Velocity (TVI), in cm/s

Time (s) :	Trace 1 : 		Ecg : 		
0.01323   	-3.08384e+00		         0.00000	-3.00000e+00	
0.01987   	-3.10638e+00		         0.00167	-3.00000e+00	
0.02651   	-2.47153e+00		         0.00333	-3.00000e+00	
0.03343   	-1.32838e+00		         0.00500	-3.00000e+00	
0.04007   	-5.22206e-01		         0.00667	-1.00000e+00	
0.04672   	-1.90459e-02		         0.00833	1.00000e+00	
0.05336   	1.40726e-01		         0.01000	6.00000e+00	
0.06027   	-3.34464e-01		         0.01167	1.20000e+01	
0.06692   	-1.50748e+00		         0.01333	2.00000e+01	
0.07356   	-2.58423e+00		         0.01500	3.00000e+01	
0.08021   	-2.34237e+00		         0.01667	4.20000e+01	
0.08712   	-1.41194e+00		         0.01833	5.70000e+01	
0.09377   	-2.77497e-01		         0.02000	7.40000e+01	
0.10041   	1.35321e+00		         0.02167	9.10000e+01	
0.10705   	2.82456e+00		         0.02333	1.10000e+02	
0.11397   	3.55266e+00		         0.02500	1.28000e+02	
0.12061   	3.89153e+00		         0.02667	1.44000e+02	
0.12725   	3.95680e+00		         0.02833	1.59000e+02	
0.13390   	3.92197e+00		         0.03000	1.71000e+02	
0.14082   	3.90789e+00		         0.03167	1.79000e+02	
0.14746   	3.87860e+00		         0.03333	1.83000e+02	
0.15410   	3.90699e+00		         0.03500	1.82000e+02	
0.16075   	4.03499e+00		         0.03667	1.77000e+02	
0.16766   	4.10244e+00		         0.03833	1.67000e+02	
0.17431   	4.19583e+00		         0.04000	1.53000e+02	
0.18095   	4.26075e+00		         0.04167	1.36000e+02	
0.18759   	4.32481e+00		         0.04333	1.17000e+02	
0.19488   	4.42093e+00		         0.04500	9.60000e+01	
0.20115   	4.52972e+00		         0.04667	7.50000e+01	
0.20780   	4.55004e+00		         0.04833	5.40000e+01	
0.21444   	4.60671e+00		         0.05000	3.50000e+01	
0.22136   	4.66635e+00		         0.05167	1.70000e+01	
0.22800   	4.62680e+00		         0.05333	1.00000e+00	
0.23464   	4.53538e+00		         0.05500	-1.20000e+01	
0.24129   	4.51668e+00		         0.05667	-2.20000e+01	
0.24820   	4.46502e+00		         0.05833	-3.00000e+01	
0.25485   	4.34723e+00		         0.06000	-3.60000e+01	
0.26149   	4.25374e+00		         0.06167	-4.00000e+01	
0.26813   	4.22906e+00		         0.06333	-4.20000e+01	
0.27505   	4.24093e+00		         0.06500	-4.40000e+01	
0.28169   	4.23097e+00		         0.06667	-4.50000e+01	
0.28833   	4.20532e+00		         0.06833	-4.50000e+01	
0.29498   	4.18613e+00		         0.07000	-4.50000e+01	
0.30189   	4.11395e+00		         0.07167	-4.50000e+01	
0.30854   	4.02817e+00		         0.07333	-4.50000e+01	
0.31518   	3.81513e+00		         0.07500	-4.40000e+01	
0.32183   	3.61836e+00		         0.07667	-4.30000e+01	
0.32874   	3.41609e+00		         0.07833	-4.30000e+01	
0.33538   	3.21503e+00		         0.08000	-4.20000e+01	
0.34203   	2.99192e+00		         0.08167	-4.20000e+01	
0.34867   	2.89982e+00		         0.08333	-4.10000e+01	
0.35559   	2.80671e+00		         0.08500	-4.00000e+01	
0.36223   	2.56271e+00		         0.08667	-3.90000e+01	
0.36887   	2.42384e+00		         0.08833	-3.90000e+01	
0.37552   	2.13081e+00		         0.09000	-3.80000e+01	
0.38244   	1.90446e+00		         0.09167	-3.70000e+01	
0.38907   	1.62262e+00		         0.09333	-3.60000e+01	
0.39572   	1.58436e+00		         0.09500	-3.50000e+01	
0.40236   	1.46929e+00		         0.09667	-3.40000e+01	
0.40928   	1.10545e+00		         0.09833	-3.30000e+01	
0.41592   	8.60729e-01		         0.10000	-3.20000e+01	
0.42257   	7.44602e-01		         0.10167	-3.10000e+01	
0.42921   	4.27763e-01		         0.10333	-3.00000e+01	
0.43613   	2.44632e-01		         0.10500	-2.90000e+01	
0.44277   	5.00787e-01		         0.10667	-2.80000e+01	
0.44941   	6.75208e-01		         0.10833	-2.70000e+01	
0.45606   	9.22712e-01		         0.11000	-2.60000e+01	
0.46297   	1.26416e+00		         0.11167	-2.60000e+01	
0.46961   	1.50213e+00		         0.11333	-2.50000e+01	
0.47626   	1.71062e+00		         0.11500	-2.40000e+01	
0.48290   	1.74172e+00		         0.11667	-2.40000e+01	
0.48982   	1.59959e+00		         0.11833	-2.30000e+01	
0.49646   	1.28518e+00		         0.12000	-2.30000e+01	
0.50311   	6.58648e-01		         0.12167	-2.20000e+01	
0.50975   	-8.97632e-02		         0.12333	-2.20000e+01	
0.51666   	-8.89008e-01		         0.12500	-2.10000e+01	
0.52331   	-1.82863e+00		         0.12667	-2.10000e+01	
0.52995   	-2.60239e+00		         0.12833	-2.00000e+01	
0.53660   	-3.22943e+00		         0.13000	-2.00000e+01	
0.54351   	-3.89871e+00		         0.13167	-1.90000e+01	
0.55015   	-4.44730e+00		         0.13333	-1.80000e+01	
0.55680   	-4.80993e+00		         0.13500	-1.80000e+01	
0.56344   	-5.12824e+00		         0.13667	-1.70000e+01	
0.57036   	-5.28112e+00		         0.13833	-1.70000e+01	
0.57707   	-5.19953e+00		         0.14000	-1.60000e+01	
0.58364   	-5.09730e+00		         0.14167	-1.50000e+01	
0.59029   	-4.85669e+00		         0.14333	-1.50000e+01	
0.59720   	-4.54994e+00		         0.14500	-1.40000e+01	
0.60385   	-4.25467e+00		         0.14667	-1.30000e+01	
0.61049   	-4.02893e+00		         0.14833	-1.30000e+01	
0.61713   	-3.58886e+00		         0.15000	-1.20000e+01	
0.62405   	-3.25141e+00		         0.15167	-1.10000e+01	
0.63069   	-3.02405e+00		         0.15333	-1.10000e+01	
0.63734   	-2.82393e+00		         0.15500	-1.00000e+01	
0.64398   	-2.60335e+00		         0.15667	-9.00000e+00	
0.65090   	-2.58194e+00		         0.15833	-9.00000e+00	
0.65754   	-2.52586e+00		         0.16000	-8.00000e+00	
0.66418   	-2.43933e+00		         0.16167	-7.00000e+00	
0.67083   	-2.22359e+00		         0.16333	-6.00000e+00	
0.67774   	-1.98883e+00		         0.16500	-5.00000e+00	
0.68439   	-1.71223e+00		         0.16667	-5.00000e+00	
0.69103   	-1.41914e+00		         0.16833	-4.00000e+00	
0.69768   	-1.07474e+00		         0.17000	-3.00000e+00	
0.70459   	-8.48095e-01		         0.17167	-3.00000e+00	
0.71123   	-6.54300e-01		         0.17333	-3.00000e+00	
0.71788   	-4.97118e-01		         0.17500	-3.00000e+00	
0.72452   	-3.80708e-01		         0.17667	-3.00000e+00	
0.73144   	-3.20825e-01		         0.17833	-3.00000e+00	
0.73807   	-2.62147e-01		         0.18000	-3.00000e+00	
0.74472   	-2.17204e-01		         0.18167	-4.00000e+00	
0.75137   	-2.37102e-01		         0.18333	-4.00000e+00	
0.75828   	-2.59844e-01		         0.18500	-4.00000e+00	
0.76492   	-2.99738e-01		         0.18667	-4.00000e+00	
0.77157   	-3.35856e-01		         0.18833	-4.00000e+00	
0.77821   	-3.70837e-01		         0.19000	-4.00000e+00	
0.78513   	-4.22994e-01		         0.19167	-4.00000e+00	
0.79177   	-5.31016e-01		         0.19333	-4.00000e+00	
0.79841   	-6.70178e-01		         0.19500	-4.00000e+00	
0.80506   	-1.01077e+00		         0.19667	-3.00000e+00	
0.81197   	-1.41330e+00		         0.19833	-2.00000e+00	
0.81862   	-2.15130e+00		         0.20000	-2.00000e+00	
0.82526   	-3.09991e+00		         0.20167	-1.00000e+00	
0.83190   	-4.17842e+00		         0.20333	0.00000e+00	
0.83882   	-5.42712e+00		         0.20500	0.00000e+00	
0.84546   	-6.64675e+00		         0.20667	1.00000e+00	
0.85211   	-7.53687e+00		         0.20833	2.00000e+00	
0.85897   	-8.24833e+00		         0.21000	2.00000e+00	
0.86567   	-8.69316e+00		         0.21167	3.00000e+00	
0.87231   	-8.60675e+00		         0.21333	4.00000e+00	
0.87895   	-8.35898e+00		         0.21500	4.00000e+00	
0.88560   	-7.92876e+00		         0.21667	5.00000e+00	
0.89251   	-7.22888e+00		         0.21833	6.00000e+00	
0.89915   	-6.36837e+00		         0.22000	6.00000e+00	
0.90580   	-5.60755e+00		         0.22167	7.00000e+00	
0.91244   	-4.81904e+00		         0.22333	7.00000e+00	
0.91936   	-4.15787e+00		         0.22500	8.00000e+00	
0.92600   	-3.62646e+00		         0.22667	9.00000e+00	
0.93265   	-3.48264e+00		         0.22833	9.00000e+00	
0.93929   	-3.48145e+00		         0.23000	1.00000e+01	
0.94620   	-3.73494e+00		         0.23167	1.10000e+01	
0.95285   	-3.56972e+00		         0.23333	1.20000e+01	
0.95949   	-3.30511e+00		         0.23500	1.20000e+01	
0.96614   	-2.65126e+00		         0.23667	1.30000e+01	
0.97305   	-1.44351e+00		         0.23833	1.40000e+01	
0.97970   	-7.48548e-01		         0.24000	1.50000e+01	
0.98634   	-7.65852e-01		         0.24167	1.60000e+01	
0.99298   	-1.39162e+00		         0.24333	1.70000e+01	
0.99990   	-1.48645e+00		         0.24500	1.80000e+01	
1.00654   	-1.76819e+00		         0.24667	1.90000e+01	
1.01319   	-1.13215e+00		         0.24833	2.00000e+01	
1.01983   	5.66494e-02		         0.25000	2.20000e+01	
1.02674   	1.84166e+00		         0.25167	2.30000e+01	
1.03339   	2.88239e+00		         0.25333	2.40000e+01	
1.04003   	3.68530e+00		         0.25500	2.50000e+01	
1.04668   	4.23306e+00		         0.25667	2.60000e+01	
1.05359   	4.48118e+00		         0.25833	2.70000e+01	
1.06024   	4.67583e+00		         0.26000	2.80000e+01	
1.06688   	4.82454e+00		         0.26167	2.90000e+01	
1.07352   	4.89122e+00		         0.26333	2.90000e+01	
1.08044   	4.93586e+00		         0.26500	3.00000e+01	
1.08707   	5.01768e+00		         0.26667	3.00000e+01	
1.09372   	4.90016e+00		         0.26833	3.00000e+01	
1.10037   	4.88380e+00		         0.27000	3.10000e+01	
1.10728   	4.84400e+00		         0.27167	3.10000e+01	
1.11392   	4.79116e+00		         0.27333	3.10000e+01	
1.12057   	4.83299e+00		         0.27500	3.10000e+01	
1.12721   	4.97105e+00		         0.27667	3.20000e+01	
1.13413   	4.95535e+00		         0.27833	3.20000e+01	
1.14077   	4.96590e+00		         0.28000	3.30000e+01	
1.14742   	5.03438e+00		         0.28167	3.30000e+01	
1.15406   	4.99345e+00		         0.28333	3.40000e+01	
1.16097   	4.90966e+00		         0.28500	3.40000e+01	
1.16762   	4.79149e+00		         0.28667	3.50000e+01	
1.17440   	4.77572e+00		         0.28833	3.50000e+01	
1.18091   	4.74882e+00		         0.29000	3.50000e+01	
1.18782   	4.72927e+00		         0.29167	3.50000e+01	
1.19446   	4.73546e+00		         0.29333	3.50000e+01	
1.20111   	4.83361e+00		         0.29500	3.40000e+01	
1.20775   	4.84963e+00		         0.29667	3.40000e+01	
1.21467   	4.84557e+00		         0.29833	3.30000e+01	
1.22131   	4.84951e+00		         0.30000	3.20000e+01	
1.22795   	4.73406e+00		         0.30167	3.10000e+01	
1.23460   	4.66835e+00		         0.30333	3.10000e+01	
1.24151   	4.52891e+00		         0.30500	3.00000e+01	
1.24816   	4.24779e+00		         0.30667	2.90000e+01	
1.25480   	3.93365e+00		         0.30833	2.90000e+01	
1.26145   	3.74711e+00		         0.31000	2.80000e+01	
1.26836   	3.48130e+00		         0.31167	2.70000e+01	
1.27500   	3.24136e+00		         0.31333	2.70000e+01	
1.28165   	3.05495e+00		         0.31500	2.60000e+01	
1.28829   	2.91167e+00		         0.31667	2.50000e+01	
1.29521   	2.70698e+00		         0.31833	2.50000e+01	
1.30185   	2.50871e+00		         0.32000	2.40000e+01	
1.30849   	2.27228e+00		         0.32167	2.40000e+01	
1.31514   	1.98400e+00		         0.32333	2.30000e+01	
1.32205   	1.72881e+00		         0.32500	2.20000e+01	
1.32870   	1.69423e+00		         0.32667	2.10000e+01	
1.33534   	1.54721e+00		         0.32833	1.90000e+01	
1.34198   	1.25726e+00		         0.33000	1.80000e+01	
1.34890   	1.20005e+00		         0.33167	1.60000e+01	
1.35554   	1.09985e+00		         0.33333	1.40000e+01	
1.36218   	9.21671e-01		         0.33500	1.20000e+01	
1.36883   	9.59714e-01		         0.33667	1.00000e+01	
1.37574   	1.37169e+00		         0.33833	8.00000e+00	
1.38239   	1.67151e+00		         0.34000	6.00000e+00	
1.38903   	1.93903e+00		         0.34167	3.00000e+00	
1.39568   	2.27739e+00		         0.34333	1.00000e+00	
1.40259   	2.56551e+00		         0.34500	-2.00000e+00	
1.40923   	2.65397e+00		         0.34667	-4.00000e+00	
1.41588   	2.58918e+00		         0.34833	-6.00000e+00	
1.42252   	2.30403e+00		         0.35000	-8.00000e+00	
1.42944   	1.75636e+00		         0.35167	-1.00000e+01	
1.43607   	7.87808e-01		         0.35333	-1.20000e+01	
1.44272   	-3.12910e-01		         0.35500	-1.40000e+01	
1.44937   	-1.40387e+00		         0.35667	-1.60000e+01	
1.45657   	-2.30920e+00		         0.35833	-1.80000e+01	
1.46293   	-3.23382e+00		         0.36000	-2.00000e+01	
1.46957   	-3.81852e+00		         0.36167	-2.10000e+01	
1.47621   	-4.17121e+00		         0.36333	-2.30000e+01	
1.48313   	-4.44394e+00		         0.36500	-2.50000e+01	
1.48977   	-4.63787e+00		         0.36667	-2.60000e+01	
1.49642   	-4.67788e+00		         0.36833	-2.80000e+01	
1.50306   	-4.70138e+00		         0.37000	-2.90000e+01	
1.50997   	-4.73170e+00		         0.37167	-3.00000e+01	
1.51662   	-4.57084e+00		         0.37333	-3.10000e+01	
1.52326   	-4.54708e+00		         0.37500	-3.20000e+01	
1.52991   	-4.42510e+00		         0.37667	-3.20000e+01	
1.53682   	-4.20038e+00		         0.37833	-3.30000e+01	
1.54346   	-3.90625e+00		         0.38000	-3.40000e+01	
1.55011   	-3.76174e+00		         0.38167	-3.40000e+01	
1.55675   	-3.38706e+00		         0.38333	-3.40000e+01	
1.56367   	-3.07006e+00		         0.38500	-3.50000e+01	
1.57031   	-2.82995e+00		         0.38667	-3.50000e+01	
1.57696   	-2.67330e+00		         0.38833	-3.50000e+01	
1.58360   	-2.44341e+00		         0.39000	-3.50000e+01	
1.59051   	-2.26181e+00		         0.39167	-3.60000e+01	
1.59716   	-2.07153e+00		         0.39333	-3.60000e+01	
1.60380   	-1.85370e+00		         0.39500	-3.60000e+01	
1.61045   	-1.61834e+00		         0.39667	-3.60000e+01	
1.61736   	-1.38778e+00		         0.39833	-3.60000e+01	
1.62400   	-1.20211e+00		         0.40000	-3.60000e+01	
1.63065   	-1.02713e+00		         0.40167	-3.60000e+01	
1.63729   	-8.44546e-01		         0.40333	-3.50000e+01	
1.64420   	-6.71692e-01		         0.40500	-3.50000e+01	
1.65085   	-6.10567e-01		         0.40667	-3.40000e+01	
1.65749   	-5.24756e-01		         0.40833	-3.40000e+01	
1.66414   	-4.84881e-01		         0.41000	-3.30000e+01	
1.67105   	-4.59626e-01		         0.41167	-3.20000e+01	
1.67770   	-4.31020e-01		         0.41333	-3.20000e+01	
1.68434   	-3.52981e-01		         0.41500	-3.10000e+01	
1.69098   	-3.34261e-01		         0.41667	-3.10000e+01	
1.69790   	-3.30447e-01		         0.41833	-3.00000e+01	
1.70454   	-6.18543e-01		         0.42000	-3.00000e+01	
1.71119   	-1.18395e+00		         0.42167	-2.90000e+01	
1.71783   	-2.11610e+00		         0.42333	-2.90000e+01	
1.72475   	-3.37014e+00		         0.42500	-2.80000e+01	
1.73139   	-4.71795e+00		         0.42667	-2.70000e+01	
1.73803   	-6.04277e+00		         0.42833	-2.70000e+01	
1.74468   	-7.13479e+00		         0.43000	-2.60000e+01	
1.75159   	-8.02476e+00		         0.43167	-2.50000e+01	
1.75823   	-8.56499e+00		         0.43333	-2.40000e+01	
1.76488   	-8.89608e+00		         0.43500	-2.30000e+01	
1.77152   	-8.90714e+00		         0.43667	-2.20000e+01	
1.77844   	-8.62683e+00		         0.43833	-2.10000e+01	
1.78509   	-8.23704e+00		         0.44000	-2.10000e+01	
1.79173   	-7.59831e+00		         0.44167	-2.00000e+01	
1.79837   	-6.98063e+00		         0.44333	-1.90000e+01	
1.80528   	-6.14243e+00		         0.44500	-1.90000e+01	
1.81193   	-5.43519e+00		         0.44667	-1.90000e+01	
1.81857   	-4.59149e+00		         0.44833	-1.90000e+01	
1.82522   	-3.95649e+00		         0.45000	-1.90000e+01	
1.83213   	-3.68981e+00		         0.45167	-1.90000e+01	
1.83877   	-3.64501e+00		         0.45333	-1.90000e+01	
1.84542   	-3.66543e+00		         0.45500	-1.90000e+01	
1.85206   	-4.04527e+00		         0.45667	-1.90000e+01	
1.85898   	-3.62853e+00		         0.45833	-1.90000e+01	
1.86562   	-1.72689e+00		         0.46000	-1.90000e+01	
1.87227   	-5.93203e-01		         0.46167	-1.90000e+01	
1.87891   	3.95192e-02		         0.46333	-1.90000e+01	
1.88582   	4.18177e-01		         0.46500	-1.80000e+01	
1.89247   	-2.52428e-01		         0.46667	-1.80000e+01	
1.89911   	-1.57891e+00		         0.46833	-1.70000e+01	
1.90575   	-1.88166e+00		         0.47000	-1.70000e+01	
1.91267   	-1.26896e+00		         0.47167	-1.60000e+01	
1.91931   	4.57517e-02		         0.47333	-1.50000e+01	
1.92596   	1.82215e+00		         0.47500	-1.40000e+01	
1.93260   	3.09101e+00		         0.47667	-1.30000e+01	
1.93952   	4.04104e+00		         0.47833	-1.20000e+01	
1.94616   	4.54518e+00		         0.48000	-1.10000e+01	
1.95280   	4.88031e+00		         0.48167	-1.10000e+01	
1.95945   	4.95763e+00		         0.48333	-1.00000e+01	
1.96636   	4.97801e+00		         0.48500	-9.00000e+00	
1.97301   	5.07845e+00		         0.48667	-9.00000e+00	
1.97965   	5.11816e+00		         0.48833	-8.00000e+00	
1.98629   	5.12537e+00		         0.49000	-7.00000e+00	
1.99321   	5.12166e+00		         0.49167	-7.00000e+00	
1.99985   	5.10627e+00		         0.49333	-6.00000e+00	
2.00650   	5.06249e+00		         0.49500	-5.00000e+00	
2.01314   	5.03542e+00		         0.49667	-4.00000e+00	
2.02005   	5.07536e+00		         0.49833	-3.00000e+00	
2.02670   	5.04512e+00		         0.50000	-2.00000e+00	
2.03334   	5.09124e+00		         0.50167	-1.00000e+00	
2.03999   	5.07757e+00		         0.50333	0.00000e+00	
2.04690   	5.08775e+00		         0.50500	1.00000e+00	
2.05354   	4.98969e+00		         0.50667	2.00000e+00	
2.06019   	5.00994e+00		         0.50833	3.00000e+00	
2.06683   	4.99409e+00		         0.51000	3.00000e+00	
2.07375   	4.99156e+00		         0.51167	4.00000e+00	
2.08039   	4.92786e+00		         0.51333	4.00000e+00	
2.08703   	4.86006e+00		         0.51500	4.00000e+00	
2.09368   	4.81268e+00		         0.51667	4.00000e+00	
2.10059   	4.80144e+00		         0.51833	3.00000e+00	
2.10724   	4.75039e+00		         0.52000	3.00000e+00	
2.11388   	4.67685e+00		         0.52167	3.00000e+00	
2.12052   	4.64518e+00		         0.52333	2.00000e+00	
2.12744   	4.58584e+00		         0.52500	2.00000e+00	
2.13409   	4.46652e+00		         0.52667	2.00000e+00	
2.14073   	4.32545e+00		         0.52833	2.00000e+00	
2.14737   	4.17997e+00		         0.53000	2.00000e+00	
2.15428   	3.99218e+00		         0.53167	2.00000e+00	
2.16093   	3.74042e+00		         0.53333	2.00000e+00	
2.16757   	3.44783e+00		         0.53500	3.00000e+00	
2.17422   	3.20276e+00		         0.53667	3.00000e+00	
2.18113   	2.95324e+00		         0.53833	3.00000e+00	
2.18777   	2.77644e+00		         0.54000	3.00000e+00	
2.19442   	2.55066e+00		         0.54167	4.00000e+00	
2.20106   	2.35852e+00		         0.54333	4.00000e+00	
2.20798   	2.13107e+00		         0.54500	4.00000e+00	
2.21462   	1.86721e+00		         0.54667	4.00000e+00	
2.22127   	1.46063e+00		         0.54833	4.00000e+00	
2.22791   	8.83314e-01		         0.55000	4.00000e+00	
2.23483   	3.07992e-01		         0.55167	4.00000e+00	
2.24147   	-1.55152e-01		         0.55333	4.00000e+00	
2.24811   	-3.29454e-01		         0.55500	4.00000e+00	
2.25476   	-3.18785e-01		         0.55667	4.00000e+00	
2.26167   	3.85034e-02		         0.55833	4.00000e+00	
2.26831   	5.00421e-01		         0.56000	3.00000e+00	
2.27496   	1.06056e+00		         0.56167	3.00000e+00	
2.28161   	1.39000e+00		         0.56333	3.00000e+00	
2.28852   	1.72439e+00		         0.56500	2.00000e+00	
2.29516   	2.00208e+00		         0.56667	2.00000e+00	
2.30180   	2.25016e+00		         0.56833	2.00000e+00	
2.30845   	2.19990e+00		         0.57000	1.00000e+00	
2.31537   	2.19122e+00		         0.57167	1.00000e+00	
2.32201   	1.88214e+00		         0.57333	1.00000e+00	
2.32865   	1.30846e+00		         0.57500	1.00000e+00	
2.33529   	2.89831e-01		         0.57667	0.00000e+00	
2.34221   	-5.48499e-01		         0.57833	0.00000e+00	
2.34886   	-1.61942e+00		         0.58000	0.00000e+00	
2.35550   	-2.52235e+00		         0.58167	0.00000e+00	
2.36214   	-3.25701e+00		         0.58333	0.00000e+00	
2.36906   	-3.66509e+00		         0.58500	0.00000e+00	
2.37570   	-4.17181e+00		         0.58667	0.00000e+00	
2.38235   	-4.48483e+00		         0.58833	-1.00000e+00	
2.38899   	-4.71829e+00		         0.59000	-1.00000e+00	
2.39590   	-4.92634e+00		         0.59167	-1.00000e+00	
2.40254   	-5.00789e+00		         0.59333	-1.00000e+00	
2.40919   	-4.97392e+00		         0.59500	-1.00000e+00	
2.41584   	-4.85220e+00		         0.59667	-1.00000e+00	
2.42275   	-4.64966e+00		         0.59833	-2.00000e+00	
2.42939   	-4.34218e+00		         0.60000	-2.00000e+00	
2.43628   	-4.11769e+00		         0.60167	-2.00000e+00	
2.44268   	-3.85033e+00		         0.60333	-2.00000e+00	
2.44959   	-3.54542e+00		         0.60500	-2.00000e+00	
2.45624   	-3.34270e+00		         0.60667	-2.00000e+00	
2.46288   	-3.14309e+00		         0.60833	-2.00000e+00	
2.46953   	-2.88957e+00		         0.61000	-2.00000e+00	
2.47644   	-2.73120e+00		         0.61167	-2.00000e+00	
2.48309   	-2.62549e+00		         0.61333	-2.00000e+00	
2.48973   	-2.42693e+00		         0.61500	-1.00000e+00	
2.49637   	-2.20663e+00		         0.61667	-1.00000e+00	
2.50329   	-2.03050e+00		         0.61833	-1.00000e+00	
2.50993   	-1.83467e+00		         0.62000	-1.00000e+00	
2.51657   	-1.54299e+00		         0.62167	-1.00000e+00	
2.52322   	-1.29034e+00		         0.62333	0.00000e+00	
2.53013   	-1.08977e+00		         0.62500	0.00000e+00	
2.53678   	-8.53527e-01		         0.62667	1.00000e+00	
2.54342   	-6.22112e-01		         0.62833	1.00000e+00	
2.55007   	-5.07555e-01		         0.63000	1.00000e+00	
2.55698   	-4.18396e-01		         0.63167	1.00000e+00	
2.56363   	-3.77378e-01		         0.63333	2.00000e+00	
2.57027   	-4.59650e-01		         0.63500	2.00000e+00	
2.57691   	-6.48200e-01		         0.63667	2.00000e+00	
2.58383   	-1.05330e+00		         0.63833	2.00000e+00	
2.59047   	-1.70954e+00		         0.64000	2.00000e+00	
2.59712   	-2.64777e+00		         0.64167	2.00000e+00	
2.60376   	-3.66225e+00		         0.64333	1.00000e+00	
2.61067   	-4.83571e+00		         0.64500	1.00000e+00	
2.61732   	-6.04992e+00		         0.64667	1.00000e+00	
2.62396   	-7.08402e+00		         0.64833	0.00000e+00	
2.63061   	-7.88911e+00		         0.65000	0.00000e+00	
2.63752   	-8.53582e+00		         0.65167	-1.00000e+00	
2.64417   	-8.88955e+00		         0.65333	-1.00000e+00	
2.65081   	-8.70897e+00		         0.65500	-1.00000e+00	
2.65745   	-8.42668e+00		         0.65667	-1.00000e+00	
2.66437   	-8.11791e+00		         0.65833	-1.00000e+00	
2.67101   	-7.42574e+00		         0.66000	-1.00000e+00	
2.67765   	-6.59471e+00		         0.66167	0.00000e+00	
2.68430   	-5.92178e+00		         0.66333	0.00000e+00	
2.69121   	-5.13841e+00		         0.66500	0.00000e+00	
2.69786   	-4.30885e+00		         0.66667	0.00000e+00	
2.70450   	-3.97693e+00		         0.66833	-1.00000e+00	
2.71114   	-3.85030e+00		         0.67000	-1.00000e+00	
2.71823   	-3.99897e+00		         0.67167	-1.00000e+00	
2.72470   	-3.93200e+00		         0.67333	-2.00000e+00	
2.73135   	-3.62162e+00		         0.67500	-2.00000e+00	
2.73799   	-2.68018e+00		         0.67667	-3.00000e+00	
2.74491   	-1.58008e+00		         0.67833	-3.00000e+00	
2.75155   	-7.41090e-01		         0.68000	-4.00000e+00	
2.75819   	4.85182e-02		         0.68167	-5.00000e+00	
			         0.68333	-5.00000e+00	
			         0.68500	-6.00000e+00	
			         0.68667	-6.00000e+00	
			         0.68833	-6.00000e+00	
			         0.69000	-6.00000e+00	
			         0.69167	-5.00000e+00	
			         0.69333	-5.00000e+00	
			         0.69500	-5.00000e+00	
			         0.69667	-4.00000e+00	
			         0.69833	-4.00000e+00	
			         0.70000	-3.00000e+00	
			         0.70167	-3.00000e+00	
			         0.70333	-3.00000e+00	
			         0.70500	-2.00000e+00	
			         0.70667	-2.00000e+00	
			         0.70833	-2.00000e+00	
			         0.71000	-2.00000e+00	
			         0.71167	-2.00000e+00	
			         0.71333	-2.00000e+00	
			         0.71500	-3.00000e+00	
			         0.71667	-3.00000e+00	
			         0.71833	-3.00000e+00	
			         0.72000	-3.00000e+00	
			         0.72167	-3.00000e+00	
			         0.72333	-3.00000e+00	
			         0.72500	-3.00000e+00	
			         0.72667	-3.00000e+00	
			         0.72833	-3.00000e+00	
			         0.73000	-3.00000e+00	
			         0.73167	-2.00000e+00	
			         0.73333	-2.00000e+00	
			         0.73500	-2.00000e+00	
			         0.73667	-2.00000e+00	
			         0.73833	-2.00000e+00	
			         0.74000	-3.00000e+00	
			         0.74167	-3.00000e+00	
			         0.74333	-3.00000e+00	
			         0.74500	-3.00000e+00	
			         0.74667	-3.00000e+00	
			         0.74833	-3.00000e+00	
			         0.75000	-3.00000e+00	
			         0.75167	-3.00000e+00	
			         0.75333	-3.00000e+00	
			         0.75500	-3.00000e+00	
			         0.75667	-2.00000e+00	
			         0.75833	-2.00000e+00	
			         0.76000	-2.00000e+00	
			         0.76167	-2.00000e+00	
			         0.76333	-1.00000e+00	
			         0.76500	-1.00000e+00	
			         0.76667	0.00000e+00	
			         0.76833	0.00000e+00	
			         0.77000	0.00000e+00	
			         0.77167	0.00000e+00	
			         0.77333	1.00000e+00	
			         0.77500	1.00000e+00	
			         0.77667	1.00000e+00	
			         0.77833	2.00000e+00	
			         0.78000	2.00000e+00	
			         0.78167	2.00000e+00	
			         0.78333	2.00000e+00	
			         0.78500	3.00000e+00	
			         0.78667	3.00000e+00	
			         0.78833	3.00000e+00	
			         0.79000	3.00000e+00	
			         0.79167	2.00000e+00	
			         0.79333	2.00000e+00	
			         0.79500	2.00000e+00	
			         0.79667	2.00000e+00	
			         0.79833	2.00000e+00	
			         0.80000	3.00000e+00	
			         0.80167	3.00000e+00	
			         0.80333	3.00000e+00	
			         0.80500	3.00000e+00	
			         0.80667	3.00000e+00	
			         0.80833	3.00000e+00	
			         0.81000	4.00000e+00	
			         0.81167	4.00000e+00	
			         0.81333	4.00000e+00	
			         0.81500	4.00000e+00	
			         0.81667	4.00000e+00	
			         0.81833	4.00000e+00	
			         0.82000	3.00000e+00	
			         0.82167	3.00000e+00	
			         0.82333	2.00000e+00	
			         0.82500	1.00000e+00	
			         0.82667	0.00000e+00	
			         0.82833	-2.00000e+00	
			         0.83000	-3.00000e+00	
			         0.83167	-4.00000e+00	
			         0.83333	-6.00000e+00	
			         0.83500	-7.00000e+00	
			         0.83667	-9.00000e+00	
			         0.83833	-1.00000e+01	
			         0.84000	-1.10000e+01	
			         0.84167	-1.20000e+01	
			         0.84333	-1.20000e+01	
			         0.84500	-1.20000e+01	
			         0.84667	-1.30000e+01	
			         0.84833	-1.30000e+01	
			         0.85000	-1.30000e+01	
			         0.85167	-1.20000e+01	
			         0.85333	-1.20000e+01	
			         0.85500	-1.20000e+01	
			         0.85667	-1.20000e+01	
			         0.85833	-1.10000e+01	
			         0.86000	-1.10000e+01	
			         0.86167	-1.10000e+01	
			         0.86333	-1.10000e+01	
			         0.86500	-1.10000e+01	
			         0.86667	-1.10000e+01	
			         0.86833	-1.00000e+01	
			         0.87000	-1.00000e+01	
			         0.87167	-1.00000e+01	
			         0.87333	-9.00000e+00	
			         0.87500	-9.00000e+00	
			         0.87667	-9.00000e+00	
			         0.87833	-9.00000e+00	
			         0.88000	-9.00000e+00	
			         0.88167	-8.00000e+00	
			         0.88333	-8.00000e+00	
			         0.88500	-8.00000e+00	
			         0.88667	-8.00000e+00	
			         0.88833	-8.00000e+00	
			         0.89000	-8.00000e+00	
			         0.89167	-8.00000e+00	
			         0.89333	-8.00000e+00	
			         0.89500	-8.00000e+00	
			         0.89667	-7.00000e+00	
			         0.89833	-7.00000e+00	
			         0.90000	-7.00000e+00	
			         0.90167	-6.00000e+00	
			         0.90333	-6.00000e+00	
			         0.90500	-6.00000e+00	
			         0.90667	-6.00000e+00	
			         0.90833	-7.00000e+00	
			         0.91000	-7.00000e+00	
			         0.91167	-7.00000e+00	
			         0.91333	-7.00000e+00	
			         0.91500	-8.00000e+00	
			         0.91667	-8.00000e+00	
			         0.91833	-8.00000e+00	
			         0.92000	-9.00000e+00	
			         0.92167	-9.00000e+00	
			         0.92333	-1.00000e+01	
			         0.92500	-1.00000e+01	
			         0.92667	-1.00000e+01	
			         0.92833	-1.00000e+01	
			         0.93000	-1.00000e+01	
			         0.93167	-1.00000e+01	
			         0.93333	-8.00000e+00	
			         0.93500	-6.00000e+00	
			         0.93667	-3.00000e+00	
			         0.93833	2.00000e+00	
			         0.94000	9.00000e+00	
			         0.94167	1.90000e+01	
			         0.94333	3.00000e+01	
			         0.94500	4.40000e+01	
			         0.94667	6.00000e+01	
			         0.94833	7.80000e+01	
			         0.95000	9.70000e+01	
			         0.95167	1.17000e+02	
			         0.95333	1.37000e+02	
			         0.95500	1.56000e+02	
			         0.95667	1.72000e+02	
			         0.95833	1.85000e+02	
			         0.96000	1.95000e+02	
			         0.96167	1.99000e+02	
			         0.96333	1.98000e+02	
			         0.96500	1.92000e+02	
			         0.96667	1.82000e+02	
			         0.96833	1.66000e+02	
			         0.97000	1.48000e+02	
			         0.97167	1.26000e+02	
			         0.97333	1.03000e+02	
			         0.97500	7.90000e+01	
			         0.97667	5.50000e+01	
			         0.97833	3.30000e+01	
			         0.98000	1.20000e+01	
			         0.98167	-5.00000e+00	
			         0.98333	-2.00000e+01	
			         0.98500	-3.20000e+01	
			         0.98667	-4.00000e+01	
			         0.98833	-4.60000e+01	
			         0.99000	-5.00000e+01	
			         0.99167	-5.20000e+01	
			         0.99333	-5.30000e+01	
			         0.99500	-5.30000e+01	
			         0.99667	-5.30000e+01	
			         0.99833	-5.20000e+01	
			         1.00000	-5.10000e+01	
			         1.00167	-5.10000e+01	
			         1.00333	-5.00000e+01	
			         1.00500	-5.00000e+01	
			         1.00667	-5.00000e+01	
			         1.00833	-5.00000e+01	
			         1.01000	-5.00000e+01	
			         1.01167	-5.00000e+01	
			         1.01333	-5.00000e+01	
			         1.01500	-4.90000e+01	
			         1.01667	-4.90000e+01	
			         1.01833	-4.80000e+01	
			         1.02000	-4.80000e+01	
			         1.02167	-4.70000e+01	
			         1.02333	-4.60000e+01	
			         1.02500	-4.50000e+01	
			         1.02667	-4.40000e+01	
			         1.02833	-4.20000e+01	
			         1.03000	-4.10000e+01	
			         1.03167	-4.00000e+01	
			         1.03333	-4.00000e+01	
			         1.03500	-3.90000e+01	
			         1.03667	-3.80000e+01	
			         1.03833	-3.70000e+01	
			         1.04000	-3.60000e+01	
			         1.04167	-3.50000e+01	
			         1.04333	-3.40000e+01	
			         1.04500	-3.30000e+01	
			         1.04667	-3.20000e+01	
			         1.04833	-3.00000e+01	
			         1.05000	-2.90000e+01	
			         1.05167	-2.70000e+01	
			         1.05333	-2.60000e+01	
			         1.05500	-2.40000e+01	
			         1.05667	-2.30000e+01	
			         1.05833	-2.10000e+01	
			         1.06000	-2.00000e+01	
			         1.06167	-1.90000e+01	
			         1.06333	-1.80000e+01	
			         1.06500	-1.70000e+01	
			         1.06667	-1.60000e+01	
			         1.06833	-1.60000e+01	
			         1.07000	-1.50000e+01	
			         1.07167	-1.50000e+01	
			         1.07333	-1.50000e+01	
			         1.07500	-1.50000e+01	
			         1.07667	-1.50000e+01	
			         1.07833	-1.50000e+01	
			         1.08000	-1.50000e+01	
			         1.08167	-1.50000e+01	
			         1.08333	-1.50000e+01	
			         1.08500	-1.50000e+01	
			         1.08667	-1.50000e+01	
			         1.08833	-1.40000e+01	
			         1.09000	-1.40000e+01	
			         1.09167	-1.30000e+01	
			         1.09333	-1.20000e+01	
			         1.09500	-1.10000e+01	
			         1.09667	-1.00000e+01	
			         1.09833	-9.00000e+00	
			         1.10000	-8.00000e+00	
			         1.10167	-7.00000e+00	
			         1.10333	-6.00000e+00	
			         1.10500	-6.00000e+00	
			         1.10667	-5.00000e+00	
			         1.10833	-5.00000e+00	
			         1.11000	-4.00000e+00	
			         1.11167	-4.00000e+00	
			         1.11333	-4.00000e+00	
			         1.11500	-4.00000e+00	
			         1.11667	-3.00000e+00	
			         1.11833	-3.00000e+00	
			         1.12000	-2.00000e+00	
			         1.12167	-2.00000e+00	
			         1.12333	-1.00000e+00	
			         1.12500	0.00000e+00	
			         1.12667	1.00000e+00	
			         1.12833	2.00000e+00	
			         1.13000	3.00000e+00	
			         1.13167	4.00000e+00	
			         1.13333	5.00000e+00	
			         1.13500	6.00000e+00	
			         1.13667	7.00000e+00	
			         1.13833	8.00000e+00	
			         1.14000	9.00000e+00	
			         1.14167	1.00000e+01	
			         1.14333	1.10000e+01	
			         1.14500	1.20000e+01	
			         1.14667	1.30000e+01	
			         1.14833	1.30000e+01	
			         1.15000	1.40000e+01	
			         1.15167	1.50000e+01	
			         1.15333	1.60000e+01	
			         1.15500	1.60000e+01	
			         1.15667	1.70000e+01	
			         1.15833	1.70000e+01	
			         1.16000	1.80000e+01	
			         1.16167	1.80000e+01	
			         1.16333	1.90000e+01	
			         1.16500	2.00000e+01	
			         1.16667	2.10000e+01	
			         1.16833	2.10000e+01	
			         1.17000	2.20000e+01	
			         1.17167	2.30000e+01	
			         1.17333	2.40000e+01	
			         1.17500	2.40000e+01	
			         1.17667	2.50000e+01	
			         1.17833	2.50000e+01	
			         1.18000	2.50000e+01	
			         1.18167	2.60000e+01	
			         1.18333	2.50000e+01	
			         1.18500	2.50000e+01	
			         1.18667	2.50000e+01	
			         1.18833	2.50000e+01	
			         1.19000	2.50000e+01	
			         1.19167	2.50000e+01	
			         1.19333	2.50000e+01	
			         1.19500	2.60000e+01	
			         1.19667	2.70000e+01	
			         1.19833	2.80000e+01	
			         1.20000	2.90000e+01	
			         1.20167	3.00000e+01	
			         1.20333	3.20000e+01	
			         1.20500	3.40000e+01	
			         1.20667	3.50000e+01	
			         1.20833	3.70000e+01	
			         1.21000	3.90000e+01	
			         1.21167	4.00000e+01	
			         1.21333	4.20000e+01	
			         1.21500	4.30000e+01	
			         1.21667	4.30000e+01	
			         1.21833	4.40000e+01	
			         1.22000	4.40000e+01	
			         1.22167	4.40000e+01	
			         1.22333	4.40000e+01	
			         1.22500	4.30000e+01	
			         1.22667	4.30000e+01	
			         1.22833	4.20000e+01	
			         1.23000	4.10000e+01	
			         1.23167	4.00000e+01	
			         1.23333	3.90000e+01	
			         1.23500	3.80000e+01	
			         1.23667	3.60000e+01	
			         1.23833	3.50000e+01	
			         1.24000	3.40000e+01	
			         1.24167	3.30000e+01	
			         1.24333	3.10000e+01	
			         1.24500	3.00000e+01	
			         1.24667	2.80000e+01	
			         1.24833	2.70000e+01	
			         1.25000	2.50000e+01	
			         1.25167	2.40000e+01	
			         1.25333	2.20000e+01	
			         1.25500	2.10000e+01	
			         1.25667	1.90000e+01	
			         1.25833	1.70000e+01	
			         1.26000	1.60000e+01	
			         1.26167	1.40000e+01	
			         1.26333	1.20000e+01	
			         1.26500	1.10000e+01	
			         1.26667	9.00000e+00	
			         1.26833	7.00000e+00	
			         1.27000	5.00000e+00	
			         1.27167	4.00000e+00	
			         1.27333	2.00000e+00	
			         1.27500	0.00000e+00	
			         1.27667	-2.00000e+00	
			         1.27833	-4.00000e+00	
			         1.28000	-7.00000e+00	
			         1.28167	-9.00000e+00	
			         1.28333	-1.10000e+01	
			         1.28500	-1.40000e+01	
			         1.28667	-1.60000e+01	
			         1.28833	-1.80000e+01	
			         1.29000	-2.00000e+01	
			         1.29167	-2.20000e+01	
			         1.29333	-2.40000e+01	
			         1.29500	-2.60000e+01	
			         1.29667	-2.70000e+01	
			         1.29833	-2.90000e+01	
			         1.30000	-3.00000e+01	
			         1.30167	-3.10000e+01	
			         1.30333	-3.20000e+01	
			         1.30500	-3.30000e+01	
			         1.30667	-3.40000e+01	
			         1.30833	-3.50000e+01	
			         1.31000	-3.50000e+01	
			         1.31167	-3.60000e+01	
			         1.31333	-3.70000e+01	
			         1.31500	-3.80000e+01	
			         1.31667	-3.80000e+01	
			         1.31833	-3.90000e+01	
			         1.32000	-3.90000e+01	
			         1.32167	-3.90000e+01	
			         1.32333	-3.90000e+01	
			         1.32500	-3.90000e+01	
			         1.32667	-3.90000e+01	
			         1.32833	-3.80000e+01	
			         1.33000	-3.80000e+01	
			         1.33167	-3.80000e+01	
			         1.33333	-3.70000e+01	
			         1.33500	-3.70000e+01	
			         1.33667	-3.60000e+01	
			         1.33833	-3.60000e+01	
			         1.34000	-3.50000e+01	
			         1.34167	-3.50000e+01	
			         1.34333	-3.40000e+01	
			         1.34500	-3.40000e+01	
			         1.34667	-3.40000e+01	
			         1.34833	-3.30000e+01	
			         1.35000	-3.30000e+01	
			         1.35167	-3.30000e+01	
			         1.35333	-3.30000e+01	
			         1.35500	-3.20000e+01	
			         1.35667	-3.20000e+01	
			         1.35833	-3.10000e+01	
			         1.36000	-3.10000e+01	
			         1.36167	-3.00000e+01	
			         1.36333	-3.00000e+01	
			         1.36500	-2.90000e+01	
			         1.36667	-2.80000e+01	
			         1.36833	-2.70000e+01	
			         1.37000	-2.60000e+01	
			         1.37167	-2.50000e+01	
			         1.37333	-2.40000e+01	
			         1.37500	-2.40000e+01	
			         1.37667	-2.30000e+01	
			         1.37833	-2.20000e+01	
			         1.38000	-2.20000e+01	
			         1.38167	-2.20000e+01	
			         1.38333	-2.10000e+01	
			         1.38500	-2.10000e+01	
			         1.38667	-2.00000e+01	
			         1.38833	-2.00000e+01	
			         1.39000	-1.90000e+01	
			         1.39167	-1.90000e+01	
			         1.39333	-1.90000e+01	
			         1.39500	-1.80000e+01	
			         1.39667	-1.70000e+01	
			         1.39833	-1.70000e+01	
			         1.40000	-1.60000e+01	
			         1.40167	-1.60000e+01	
			         1.40333	-1.50000e+01	
			         1.40500	-1.50000e+01	
			         1.40667	-1.40000e+01	
			         1.40833	-1.40000e+01	
			         1.41000	-1.30000e+01	
			         1.41167	-1.20000e+01	
			         1.41333	-1.00000e+01	
			         1.41500	-9.00000e+00	
			         1.41667	-8.00000e+00	
			         1.41833	-7.00000e+00	
			         1.42000	-6.00000e+00	
			         1.42167	-5.00000e+00	
			         1.42333	-5.00000e+00	
			         1.42500	-4.00000e+00	
			         1.42667	-4.00000e+00	
			         1.42833	-4.00000e+00	
			         1.43000	-3.00000e+00	
			         1.43167	-3.00000e+00	
			         1.43333	-3.00000e+00	
			         1.43500	-3.00000e+00	
			         1.43667	-3.00000e+00	
			         1.43833	-2.00000e+00	
			         1.44000	-2.00000e+00	
			         1.44167	-1.00000e+00	
			         1.44333	-1.00000e+00	
			         1.44500	0.00000e+00	
			         1.44667	0.00000e+00	
			         1.44833	1.00000e+00	
			         1.45000	1.00000e+00	
			         1.45167	1.00000e+00	
			         1.45333	1.00000e+00	
			         1.45500	2.00000e+00	
			         1.45667	2.00000e+00	
			         1.45833	2.00000e+00	
			         1.46000	3.00000e+00	
			         1.46167	3.00000e+00	
			         1.46333	3.00000e+00	
			         1.46500	3.00000e+00	
			         1.46667	4.00000e+00	
			         1.46833	4.00000e+00	
			         1.47000	4.00000e+00	
			         1.47167	4.00000e+00	
			         1.47333	4.00000e+00	
			         1.47500	4.00000e+00	
			         1.47667	4.00000e+00	
			         1.47833	4.00000e+00	
			         1.48000	4.00000e+00	
			         1.48167	4.00000e+00	
			         1.48333	4.00000e+00	
			         1.48500	4.00000e+00	
			         1.48667	4.00000e+00	
			         1.48833	5.00000e+00	
			         1.49000	5.00000e+00	
			         1.49167	5.00000e+00	
			         1.49333	5.00000e+00	
			         1.49500	6.00000e+00	
			         1.49667	6.00000e+00	
			         1.49833	6.00000e+00	
			         1.50000	6.00000e+00	
			         1.50167	6.00000e+00	
			         1.50333	6.00000e+00	
			         1.50500	6.00000e+00	
			         1.50667	6.00000e+00	
			         1.50833	6.00000e+00	
			         1.51000	6.00000e+00	
			         1.51167	6.00000e+00	
			         1.51333	6.00000e+00	
			         1.51500	6.00000e+00	
			         1.51667	6.00000e+00	
			         1.51833	6.00000e+00	
			         1.52000	5.00000e+00	
			         1.52167	5.00000e+00	
			         1.52333	4.00000e+00	
			         1.52500	4.00000e+00	
			         1.52667	3.00000e+00	
			         1.52833	2.00000e+00	
			         1.53000	2.00000e+00	
			         1.53167	1.00000e+00	
			         1.53333	1.00000e+00	
			         1.53500	1.00000e+00	
			         1.53667	1.00000e+00	
			         1.53833	1.00000e+00	
			         1.54000	1.00000e+00	
			         1.54167	1.00000e+00	
			         1.54333	1.00000e+00	
			         1.54500	1.00000e+00	
			         1.54667	1.00000e+00	
			         1.54833	2.00000e+00	
			         1.55000	2.00000e+00	
			         1.55167	2.00000e+00	
			         1.55333	1.00000e+00	
			         1.55500	1.00000e+00	
			         1.55667	0.00000e+00	
			         1.55833	0.00000e+00	
			         1.56000	-1.00000e+00	
			         1.56167	-1.00000e+00	
			         1.56333	-2.00000e+00	
			         1.56500	-2.00000e+00	
			         1.56667	-3.00000e+00	
			         1.56833	-3.00000e+00	
			         1.57000	-4.00000e+00	
			         1.57167	-4.00000e+00	
			         1.57333	-4.00000e+00	
			         1.57500	-4.00000e+00	
			         1.57667	-4.00000e+00	
			         1.57833	-4.00000e+00	
			         1.58000	-4.00000e+00	
			         1.58167	-4.00000e+00	
			         1.58333	-4.00000e+00	
			         1.58500	-4.00000e+00	
			         1.58667	-4.00000e+00	
			         1.58833	-5.00000e+00	
			         1.59000	-5.00000e+00	
			         1.59167	-5.00000e+00	
			         1.59333	-6.00000e+00	
			         1.59500	-6.00000e+00	
			         1.59667	-7.00000e+00	
			         1.59833	-7.00000e+00	
			         1.60000	-7.00000e+00	
			         1.60167	-8.00000e+00	
			         1.60333	-8.00000e+00	
			         1.60500	-8.00000e+00	
			         1.60667	-8.00000e+00	
			         1.60833	-8.00000e+00	
			         1.61000	-8.00000e+00	
			         1.61167	-8.00000e+00	
			         1.61333	-7.00000e+00	
			         1.61500	-7.00000e+00	
			         1.61667	-7.00000e+00	
			         1.61833	-7.00000e+00	
			         1.62000	-7.00000e+00	
			         1.62167	-6.00000e+00	
			         1.62333	-6.00000e+00	
			         1.62500	-6.00000e+00	
			         1.62667	-6.00000e+00	
			         1.62833	-6.00000e+00	
			         1.63000	-5.00000e+00	
			         1.63167	-5.00000e+00	
			         1.63333	-5.00000e+00	
			         1.63500	-5.00000e+00	
			         1.63667	-5.00000e+00	
			         1.63833	-5.00000e+00	
			         1.64000	-5.00000e+00	
			         1.64167	-5.00000e+00	
			         1.64333	-5.00000e+00	
			         1.64500	-5.00000e+00	
			         1.64667	-5.00000e+00	
			         1.64833	-5.00000e+00	
			         1.65000	-6.00000e+00	
			         1.65167	-6.00000e+00	
			         1.65333	-6.00000e+00	
			         1.65500	-7.00000e+00	
			         1.65667	-7.00000e+00	
			         1.65833	-7.00000e+00	
			         1.66000	-7.00000e+00	
			         1.66167	-7.00000e+00	
			         1.66333	-6.00000e+00	
			         1.66500	-6.00000e+00	
			         1.66667	-5.00000e+00	
			         1.66833	-4.00000e+00	
			         1.67000	-3.00000e+00	
			         1.67167	-1.00000e+00	
			         1.67333	0.00000e+00	
			         1.67500	1.00000e+00	
			         1.67667	3.00000e+00	
			         1.67833	4.00000e+00	
			         1.68000	4.00000e+00	
			         1.68167	5.00000e+00	
			         1.68333	5.00000e+00	
			         1.68500	5.00000e+00	
			         1.68667	5.00000e+00	
			         1.68833	5.00000e+00	
			         1.69000	5.00000e+00	
			         1.69167	4.00000e+00	
			         1.69333	4.00000e+00	
			         1.69500	4.00000e+00	
			         1.69667	4.00000e+00	
			         1.69833	4.00000e+00	
			         1.70000	4.00000e+00	
			         1.70167	4.00000e+00	
			         1.70333	5.00000e+00	
			         1.70500	5.00000e+00	
			         1.70667	6.00000e+00	
			         1.70833	6.00000e+00	
			         1.71000	6.00000e+00	
			         1.71167	5.00000e+00	
			         1.71333	4.00000e+00	
			         1.71500	3.00000e+00	
			         1.71667	2.00000e+00	
			         1.71833	1.00000e+00	
			         1.72000	-1.00000e+00	
			         1.72167	-3.00000e+00	
			         1.72333	-5.00000e+00	
			         1.72500	-6.00000e+00	
			         1.72667	-8.00000e+00	
			         1.72833	-1.00000e+01	
			         1.73000	-1.10000e+01	
			         1.73167	-1.20000e+01	
			         1.73333	-1.30000e+01	
			         1.73500	-1.30000e+01	
			         1.73667	-1.40000e+01	
			         1.73833	-1.40000e+01	
			         1.74000	-1.40000e+01	
			         1.74167	-1.40000e+01	
			         1.74333	-1.30000e+01	
			         1.74500	-1.30000e+01	
			         1.74667	-1.20000e+01	
			         1.74833	-1.20000e+01	
			         1.75000	-1.20000e+01	
			         1.75167	-1.10000e+01	
			         1.75333	-1.10000e+01	
			         1.75500	-1.10000e+01	
			         1.75667	-1.00000e+01	
			         1.75833	-1.00000e+01	
			         1.76000	-1.00000e+01	
			         1.76167	-1.00000e+01	
			         1.76333	-1.00000e+01	
			         1.76500	-1.00000e+01	
			         1.76667	-1.00000e+01	
			         1.76833	-1.10000e+01	
			         1.77000	-1.10000e+01	
			         1.77167	-1.00000e+01	
			         1.77333	-1.00000e+01	
			         1.77500	-1.00000e+01	
			         1.77667	-9.00000e+00	
			         1.77833	-9.00000e+00	
			         1.78000	-8.00000e+00	
			         1.78167	-7.00000e+00	
			         1.78333	-6.00000e+00	
			         1.78500	-4.00000e+00	
			         1.78667	-3.00000e+00	
			         1.78833	-2.00000e+00	
			         1.79000	-1.00000e+00	
			         1.79167	0.00000e+00	
			         1.79333	1.00000e+00	
			         1.79500	1.00000e+00	
			         1.79667	2.00000e+00	
			         1.79833	2.00000e+00	
			         1.80000	2.00000e+00	
			         1.80167	2.00000e+00	
			         1.80333	2.00000e+00	
			         1.80500	2.00000e+00	
			         1.80667	2.00000e+00	
			         1.80833	2.00000e+00	
			         1.81000	2.00000e+00	
			         1.81167	2.00000e+00	
			         1.81333	2.00000e+00	
			         1.81500	3.00000e+00	
			         1.81667	3.00000e+00	
			         1.81833	4.00000e+00	
			         1.82000	4.00000e+00	
			         1.82167	4.00000e+00	
			         1.82333	4.00000e+00	
			         1.82500	4.00000e+00	
			         1.82667	3.00000e+00	
			         1.82833	3.00000e+00	
			         1.83000	3.00000e+00	
			         1.83167	3.00000e+00	
			         1.83333	4.00000e+00	
			         1.83500	6.00000e+00	
			         1.83667	1.00000e+01	
			         1.83833	1.60000e+01	
			         1.84000	2.40000e+01	
			         1.84167	3.40000e+01	
			         1.84333	4.70000e+01	
			         1.84500	6.20000e+01	
			         1.84667	7.90000e+01	
			         1.84833	9.80000e+01	
			         1.85000	1.18000e+02	
			         1.85167	1.38000e+02	
			         1.85333	1.57000e+02	
			         1.85500	1.74000e+02	
			         1.85667	1.88000e+02	
			         1.85833	1.98000e+02	
			         1.86000	2.04000e+02	
			         1.86167	2.04000e+02	
			         1.86333	1.99000e+02	
			         1.86500	1.90000e+02	
			         1.86667	1.76000e+02	
			         1.86833	1.58000e+02	
			         1.87000	1.38000e+02	
			         1.87167	1.15000e+02	
			         1.87333	9.20000e+01	
			         1.87500	6.90000e+01	
			         1.87667	4.70000e+01	
			         1.87833	2.60000e+01	
			         1.88000	9.00000e+00	
			         1.88167	-6.00000e+00	
			         1.88333	-1.80000e+01	
			         1.88500	-2.70000e+01	
			         1.88667	-3.40000e+01	
			         1.88833	-3.80000e+01	
			         1.89000	-4.10000e+01	
			         1.89167	-4.20000e+01	
			         1.89333	-4.30000e+01	
			         1.89500	-4.30000e+01	
			         1.89667	-4.30000e+01	
			         1.89833	-4.20000e+01	
			         1.90000	-4.20000e+01	
			         1.90167	-4.20000e+01	
			         1.90333	-4.20000e+01	
			         1.90500	-4.20000e+01	
			         1.90667	-4.20000e+01	
			         1.90833	-4.30000e+01	
			         1.91000	-4.30000e+01	
			         1.91167	-4.30000e+01	
			         1.91333	-4.30000e+01	
			         1.91500	-4.30000e+01	
			         1.91667	-4.20000e+01	
			         1.91833	-4.20000e+01	
			         1.92000	-4.10000e+01	
			         1.92167	-4.00000e+01	
			         1.92333	-3.80000e+01	
			         1.92500	-3.70000e+01	
			         1.92667	-3.60000e+01	
			         1.92833	-3.50000e+01	
			         1.93000	-3.30000e+01	
			         1.93167	-3.20000e+01	
			         1.93333	-3.10000e+01	
			         1.93500	-3.10000e+01	
			         1.93667	-3.00000e+01	
			         1.93833	-2.90000e+01	
			         1.94000	-2.80000e+01	
			         1.94167	-2.80000e+01	
			         1.94333	-2.70000e+01	
			         1.94500	-2.60000e+01	
			         1.94667	-2.60000e+01	
			         1.94833	-2.50000e+01	
			         1.95000	-2.40000e+01	
			         1.95167	-2.30000e+01	
			         1.95333	-2.20000e+01	
			         1.95500	-2.10000e+01	
			         1.95667	-2.10000e+01	
			         1.95833	-2.00000e+01	
			         1.96000	-1.90000e+01	
			         1.96167	-1.80000e+01	
			         1.96333	-1.70000e+01	
			         1.96500	-1.60000e+01	
			         1.96667	-1.50000e+01	
			         1.96833	-1.40000e+01	
			         1.97000	-1.40000e+01	
			         1.97167	-1.30000e+01	
			         1.97333	-1.20000e+01	
			         1.97500	-1.20000e+01	
			         1.97667	-1.10000e+01	
			         1.97833	-1.00000e+01	
			         1.98000	-1.00000e+01	
			         1.98167	-9.00000e+00	
			         1.98333	-9.00000e+00	
			         1.98500	-8.00000e+00	
			         1.98667	-7.00000e+00	
			         1.98833	-7.00000e+00	
			         1.99000	-6.00000e+00	
			         1.99167	-5.00000e+00	
			         1.99333	-4.00000e+00	
			         1.99500	-3.00000e+00	
			         1.99667	-2.00000e+00	
			         1.99833	-2.00000e+00	
			         2.00000	-1.00000e+00	
			         2.00167	0.00000e+00	
			         2.00333	1.00000e+00	
			         2.00500	2.00000e+00	
			         2.00667	2.00000e+00	
			         2.00833	4.00000e+00	
			         2.01000	5.00000e+00	
			         2.01167	6.00000e+00	
			         2.01333	7.00000e+00	
			         2.01500	9.00000e+00	
			         2.01667	1.00000e+01	
			         2.01833	1.10000e+01	
			         2.02000	1.30000e+01	
			         2.02167	1.30000e+01	
			         2.02333	1.40000e+01	
			         2.02500	1.50000e+01	
			         2.02667	1.50000e+01	
			         2.02833	1.50000e+01	
			         2.03000	1.50000e+01	
			         2.03167	1.50000e+01	
			         2.03333	1.50000e+01	
			         2.03500	1.50000e+01	
			         2.03667	1.50000e+01	
			         2.03833	1.50000e+01	
			         2.04000	1.50000e+01	
			         2.04167	1.40000e+01	
			         2.04333	1.40000e+01	
			         2.04500	1.40000e+01	
			         2.04667	1.40000e+01	
			         2.04833	1.40000e+01	
			         2.05000	1.40000e+01	
			         2.05167	1.40000e+01	
			         2.05333	1.40000e+01	
			         2.05500	1.40000e+01	
			         2.05667	1.40000e+01	
			         2.05833	1.40000e+01	
			         2.06000	1.40000e+01	
			         2.06167	1.40000e+01	
			         2.06333	1.40000e+01	
			         2.06500	1.50000e+01	
			         2.06667	1.60000e+01	
			         2.06833	1.60000e+01	
			         2.07000	1.70000e+01	
			         2.07167	1.80000e+01	
			         2.07333	1.80000e+01	
			         2.07500	1.90000e+01	
			         2.07667	2.00000e+01	
			         2.07833	2.00000e+01	
			         2.08000	2.10000e+01	
			         2.08167	2.20000e+01	
			         2.08333	2.30000e+01	
			         2.08500	2.30000e+01	
			         2.08667	2.40000e+01	
			         2.08833	2.50000e+01	
			         2.09000	2.70000e+01	
			         2.09167	2.80000e+01	
			         2.09333	2.90000e+01	
			         2.09500	3.00000e+01	
			         2.09667	3.10000e+01	
			         2.09833	3.20000e+01	
			         2.10000	3.30000e+01	
			         2.10167	3.40000e+01	
			         2.10333	3.50000e+01	
			         2.10500	3.60000e+01	
			         2.10667	3.60000e+01	
			         2.10833	3.70000e+01	
			         2.11000	3.70000e+01	
			         2.11167	3.70000e+01	
			         2.11333	3.70000e+01	
			         2.11500	3.70000e+01	
			         2.11667	3.60000e+01	
			         2.11833	3.60000e+01	
			         2.12000	3.50000e+01	
			         2.12167	3.40000e+01	
			         2.12333	3.40000e+01	
			         2.12500	3.30000e+01	
			         2.12667	3.20000e+01	
			         2.12833	3.10000e+01	
			         2.13000	2.90000e+01	
			         2.13167	2.80000e+01	
			         2.13333	2.70000e+01	
			         2.13500	2.60000e+01	
			         2.13667	2.50000e+01	
			         2.13833	2.40000e+01	
			         2.14000	2.20000e+01	
			         2.14167	2.10000e+01	
			         2.14333	2.00000e+01	
			         2.14500	1.90000e+01	
			         2.14667	1.70000e+01	
			         2.14833	1.60000e+01	
			         2.15000	1.50000e+01	
			         2.15167	1.30000e+01	
			         2.15333	1.20000e+01	
			         2.15500	1.00000e+01	
			         2.15667	9.00000e+00	
			         2.15833	7.00000e+00	
			         2.16000	5.00000e+00	
			         2.16167	3.00000e+00	
			         2.16333	1.00000e+00	
			         2.16500	0.00000e+00	
			         2.16667	-2.00000e+00	
			         2.16833	-4.00000e+00	
			         2.17000	-6.00000e+00	
			         2.17167	-8.00000e+00	
			         2.17333	-1.00000e+01	
			         2.17500	-1.20000e+01	
			         2.17667	-1.40000e+01	
			         2.17833	-1.60000e+01	
			         2.18000	-1.80000e+01	
			         2.18167	-2.00000e+01	
			         2.18333	-2.20000e+01	
			         2.18500	-2.40000e+01	
			         2.18667	-2.60000e+01	
			         2.18833	-2.80000e+01	
			         2.19000	-3.00000e+01	
			         2.19167	-3.20000e+01	
			         2.19333	-3.40000e+01	
			         2.19500	-3.60000e+01	
			         2.19667	-3.70000e+01	
			         2.19833	-3.80000e+01	
			         2.20000	-4.00000e+01	
			         2.20167	-4.10000e+01	
			         2.20333	-4.20000e+01	
			         2.20500	-4.30000e+01	
			         2.20667	-4.30000e+01	
			         2.20833	-4.40000e+01	
			         2.21000	-4.40000e+01	
			         2.21167	-4.50000e+01	
			         2.21333	-4.50000e+01	
			         2.21500	-4.50000e+01	
			         2.21667	-4.50000e+01	
			         2.21833	-4.50000e+01	
			         2.22000	-4.50000e+01	
			         2.22167	-4.40000e+01	
			         2.22333	-4.40000e+01	
			         2.22500	-4.30000e+01	
			         2.22667	-4.30000e+01	
			         2.22833	-4.20000e+01	
			         2.23000	-4.20000e+01	
			         2.23167	-4.10000e+01	
			         2.23333	-4.10000e+01	
			         2.23500	-4.00000e+01	
			         2.23667	-3.90000e+01	
			         2.23833	-3.90000e+01	
			         2.24000	-3.80000e+01	
			         2.24167	-3.70000e+01	
			         2.24333	-3.60000e+01	
			         2.24500	-3.50000e+01	
			         2.24667	-3.40000e+01	
			         2.24833	-3.30000e+01	
			         2.25000	-3.20000e+01	
			         2.25167	-3.10000e+01	
			         2.25333	-3.00000e+01	
			         2.25500	-3.00000e+01	
			         2.25667	-2.90000e+01	
			         2.25833	-2.80000e+01	
			         2.26000	-2.70000e+01	
			         2.26167	-2.70000e+01	
			         2.26333	-2.60000e+01	
			         2.26500	-2.60000e+01	
			         2.26667	-2.60000e+01	
			         2.26833	-2.60000e+01	
			         2.27000	-2.60000e+01	
			         2.27167	-2.60000e+01	
			         2.27333	-2.60000e+01	
			         2.27500	-2.60000e+01	
			         2.27667	-2.60000e+01	
			         2.27833	-2.60000e+01	
			         2.28000	-2.60000e+01	
			         2.28167	-2.70000e+01	
			         2.28333	-2.70000e+01	
			         2.28500	-2.60000e+01	
			         2.28667	-2.60000e+01	
			         2.28833	-2.50000e+01	
			         2.29000	-2.50000e+01	
			         2.29167	-2.40000e+01	
			         2.29333	-2.30000e+01	
			         2.29500	-2.10000e+01	
			         2.29667	-2.00000e+01	
			         2.29833	-1.80000e+01	
			         2.30000	-1.70000e+01	
			         2.30167	-1.50000e+01	
			         2.30333	-1.40000e+01	
			         2.30500	-1.30000e+01	
			         2.30667	-1.20000e+01	
			         2.30833	-1.10000e+01	
			         2.31000	-1.10000e+01	
			         2.31167	-1.10000e+01	
			         2.31333	-1.10000e+01	
			         2.31500	-1.10000e+01	
			         2.31667	-1.10000e+01	
			         2.31833	-1.20000e+01	
			         2.32000	-1.20000e+01	
			         2.32167	-1.20000e+01	
			         2.32333	-1.20000e+01	
			         2.32500	-1.20000e+01	
			         2.32667	-1.20000e+01	
			         2.32833	-1.20000e+01	
			         2.33000	-1.10000e+01	
			         2.33167	-1.10000e+01	
			         2.33333	-1.00000e+01	
			         2.33500	-9.00000e+00	
			         2.33667	-8.00000e+00	
			         2.33833	-7.00000e+00	
			         2.34000	-6.00000e+00	
			         2.34167	-6.00000e+00	
			         2.34333	-5.00000e+00	
			         2.34500	-5.00000e+00	
			         2.34667	-5.00000e+00	
			         2.34833	-5.00000e+00	
			         2.35000	-5.00000e+00	
			         2.35167	-5.00000e+00	
			         2.35333	-6.00000e+00	
			         2.35500	-6.00000e+00	
			         2.35667	-6.00000e+00	
			         2.35833	-7.00000e+00	
			         2.36000	-7.00000e+00	
			         2.36167	-7.00000e+00	
			         2.36333	-7.00000e+00	
			         2.36500	-7.00000e+00	
			         2.36667	-7.00000e+00	
			         2.36833	-6.00000e+00	
			         2.37000	-6.00000e+00	
			         2.37167	-5.00000e+00	
			         2.37333	-4.00000e+00	
			         2.37500	-4.00000e+00	
			         2.37667	-3.00000e+00	
			         2.37833	-2.00000e+00	
			         2.38000	-2.00000e+00	
			         2.38167	-2.00000e+00	
			         2.38333	-1.00000e+00	
			         2.38500	-1.00000e+00	
			         2.38667	-1.00000e+00	
			         2.38833	-1.00000e+00	
			         2.39000	-1.00000e+00	
			         2.39167	-1.00000e+00	
			         2.39333	-1.00000e+00	
			         2.39500	-1.00000e+00	
			         2.39667	0.00000e+00	
			         2.39833	0.00000e+00	
			         2.40000	0.00000e+00	
			         2.40167	0.00000e+00	
			         2.40333	0.00000e+00	
			         2.40500	0.00000e+00	
			         2.40667	0.00000e+00	
			         2.40833	0.00000e+00	
			         2.41000	0.00000e+00	
			         2.41167	0.00000e+00	
			         2.41333	-1.00000e+00	
			         2.41500	-1.00000e+00	
			         2.41667	-2.00000e+00	
			         2.41833	-2.00000e+00	
			         2.42000	-3.00000e+00	
			         2.42167	-3.00000e+00	
			         2.42333	-4.00000e+00	
			         2.42500	-4.00000e+00	
			         2.42667	-4.00000e+00	
			         2.42833	-4.00000e+00	
			         2.43000	-4.00000e+00	
			         2.43167	-4.00000e+00	
			         2.43333	-3.00000e+00	
			         2.43500	-3.00000e+00	
			         2.43667	-2.00000e+00	
			         2.43833	-2.00000e+00	
			         2.44000	-2.00000e+00	
			         2.44167	-1.00000e+00	
			         2.44333	-1.00000e+00	
			         2.44500	-1.00000e+00	
			         2.44667	-1.00000e+00	
			         2.44833	-1.00000e+00	
			         2.45000	-1.00000e+00	
			         2.45167	-2.00000e+00	
			         2.45333	-2.00000e+00	
			         2.45500	-2.00000e+00	
			         2.45667	-3.00000e+00	
			         2.45833	-3.00000e+00	
			         2.46000	-3.00000e+00	
			         2.46167	-2.00000e+00	
			         2.46333	-2.00000e+00	
			         2.46500	-2.00000e+00	
			         2.46667	-1.00000e+00	
			         2.46833	-1.00000e+00	
			         2.47000	0.00000e+00	
			         2.47167	0.00000e+00	
			         2.47333	0.00000e+00	
			         2.47500	1.00000e+00	
			         2.47667	1.00000e+00	
			         2.47833	2.00000e+00	
			         2.48000	2.00000e+00	
			         2.48167	2.00000e+00	
			         2.48333	2.00000e+00	
			         2.48500	1.00000e+00	
			         2.48667	1.00000e+00	
			         2.48833	1.00000e+00	
			         2.49000	0.00000e+00	
			         2.49167	0.00000e+00	
			         2.49333	-1.00000e+00	
			         2.49500	-1.00000e+00	
			         2.49667	-1.00000e+00	
			         2.49833	-2.00000e+00	
			         2.50000	-2.00000e+00	
			         2.50167	-1.00000e+00	
			         2.50333	-1.00000e+00	
			         2.50500	0.00000e+00	
			         2.50667	0.00000e+00	
			         2.50833	1.00000e+00	
			         2.51000	2.00000e+00	
			         2.51167	3.00000e+00	
			         2.51333	4.00000e+00	
			         2.51500	5.00000e+00	
			         2.51667	5.00000e+00	
			         2.51833	6.00000e+00	
			         2.52000	6.00000e+00	
			         2.52167	6.00000e+00	
			         2.52333	5.00000e+00	
			         2.52500	5.00000e+00	
			         2.52667	4.00000e+00	
			         2.52833	3.00000e+00	
			         2.53000	2.00000e+00	
			         2.53167	1.00000e+00	
			         2.53333	0.00000e+00	
			         2.53500	0.00000e+00	
			         2.53667	-1.00000e+00	
			         2.53833	-1.00000e+00	
			         2.54000	-1.00000e+00	
			         2.54167	-1.00000e+00	
			         2.54333	-1.00000e+00	
			         2.54500	0.00000e+00	
			         2.54667	1.00000e+00	
			         2.54833	2.00000e+00	
			         2.55000	3.00000e+00	
			         2.55167	3.00000e+00	
			         2.55333	4.00000e+00	
			         2.55500	5.00000e+00	
			         2.55667	6.00000e+00	
			         2.55833	6.00000e+00	
			         2.56000	7.00000e+00	
			         2.56167	7.00000e+00	
			         2.56333	7.00000e+00	
			         2.56500	7.00000e+00	
			         2.56667	7.00000e+00	
			         2.56833	7.00000e+00	
			         2.57000	6.00000e+00	
			         2.57167	6.00000e+00	
			         2.57333	5.00000e+00	
			         2.57500	4.00000e+00	
			         2.57667	4.00000e+00	
			         2.57833	3.00000e+00	
			         2.58000	3.00000e+00	
			         2.58167	2.00000e+00	
			         2.58333	2.00000e+00	
			         2.58500	2.00000e+00	
			         2.58667	2.00000e+00	
			         2.58833	2.00000e+00	
			         2.59000	2.00000e+00	
			         2.59167	2.00000e+00	
			         2.59333	2.00000e+00	
			         2.59500	2.00000e+00	
			         2.59667	2.00000e+00	
			         2.59833	1.00000e+00	
			         2.60000	1.00000e+00	
			         2.60167	0.00000e+00	
			         2.60333	0.00000e+00	
			         2.60500	-1.00000e+00	
			         2.60667	-1.00000e+00	
			         2.60833	-1.00000e+00	
			         2.61000	-1.00000e+00	
			         2.61167	0.00000e+00	
			         2.61333	0.00000e+00	
			         2.61500	1.00000e+00	
			         2.61667	1.00000e+00	
			         2.61833	2.00000e+00	
			         2.62000	2.00000e+00	
			         2.62167	2.00000e+00	
			         2.62333	1.00000e+00	
			         2.62500	1.00000e+00	
			         2.62667	0.00000e+00	
			         2.62833	-1.00000e+00	
			         2.63000	-3.00000e+00	
			         2.63167	-5.00000e+00	
			         2.63333	-6.00000e+00	
			         2.63500	-8.00000e+00	
			         2.63667	-1.00000e+01	
			         2.63833	-1.10000e+01	
			         2.64000	-1.20000e+01	
			         2.64167	-1.30000e+01	
			         2.64333	-1.40000e+01	
			         2.64500	-1.40000e+01	
			         2.64667	-1.50000e+01	
			         2.64833	-1.50000e+01	
			         2.65000	-1.50000e+01	
			         2.65167	-1.50000e+01	
			         2.65333	-1.40000e+01	
			         2.65500	-1.40000e+01	
			         2.65667	-1.30000e+01	
			         2.65833	-1.30000e+01	
			         2.66000	-1.20000e+01	
			         2.66167	-1.10000e+01	
			         2.66333	-1.00000e+01	
			         2.66500	-9.00000e+00	
			         2.66667	-8.00000e+00	
			         2.66833	-7.00000e+00	
			         2.67000	-6.00000e+00	
			         2.67167	-6.00000e+00	
			         2.67333	-5.00000e+00	
			         2.67500	-5.00000e+00	
			         2.67667	-5.00000e+00	
			         2.67833	-5.00000e+00	
			         2.68000	-6.00000e+00	
			         2.68167	-7.00000e+00	
			         2.68333	-7.00000e+00	
			         2.68500	-8.00000e+00	
			         2.68667	-9.00000e+00	
			         2.68833	-1.00000e+01	
			         2.69000	-1.10000e+01	
			         2.69167	-1.10000e+01	
			         2.69333	-1.10000e+01	
			         2.69500	-1.10000e+01	
			         2.69667	-1.10000e+01	
			         2.69833	-1.00000e+01	
			         2.70000	-1.00000e+01	
			         2.70167	-9.00000e+00	
			         2.70333	-9.00000e+00	
			         2.70500	-9.00000e+00	
			         2.70667	-8.00000e+00	
			         2.70833	-7.00000e+00	
			         2.71000	-6.00000e+00	
			         2.71167	-3.00000e+00	
			         2.71333	0.00000e+00	
			         2.71500	6.00000e+00	
			         2.71667	1.30000e+01	
			         2.71833	2.20000e+01	
			         2.72000	3.40000e+01	
			         2.72167	4.80000e+01	
			         2.72333	6.40000e+01	
			         2.72500	8.20000e+01	
			         2.72667	1.01000e+02	
			         2.72833	1.21000e+02	
			         2.73000	1.41000e+02	
			         2.73167	1.59000e+02	
			         2.73333	1.75000e+02	
			         2.73500	1.88000e+02	
			         2.73667	1.96000e+02	
			         2.73833	2.00000e+02	
			         2.74000	1.98000e+02	
			         2.74167	1.91000e+02	
			         2.74333	1.80000e+02	
			         2.74500	1.64000e+02	
			         2.74667	1.45000e+02	
			         2.74833	1.23000e+02	
			         2.75000	1.00000e+02	
			         2.75167	7.70000e+01	
			         2.75333	5.40000e+01	
			         2.75500	3.20000e+01	
			         2.75667	1.30000e+01	
			         2.75833	-4.00000e+00	
			         2.76000	-1.80000e+01	
			         2.76167	-2.80000e+01	
			         2.76333	-3.60000e+01	
			         2.76500	-4.20000e+01	
			         2.76667	-4.50000e+01	
			         2.76833	-4.70000e+01	
			         2.77000	-4.70000e+01	
			         2.77167	-4.70000e+01	
			         2.77333	-4.70000e+01	
			         2.77500	-4.60000e+01	
			         2.77667	-4.50000e+01	
			         2.77833	-4.40000e+01	
			         2.78000	-4.40000e+01	
			         2.78167	-4.30000e+01	
			         2.78333	-4.20000e+01	
			         2.78500	-4.20000e+01	
			         2.78667	-4.20000e+01	
			         2.78833	-4.10000e+01	
			         2.79000	-4.10000e+01	
			         2.79167	-4.00000e+01	
			         2.79333	-4.00000e+01	
			         2.79500	-3.90000e+01	
