Velocity (TVI), in cm/s

Time (s) :	Trace 1 : 		Ecg : 		
0.00577   	-7.30397e+00		         0.00000	2.58000e+02	
0.01218   	-6.37343e+00		         0.00167	2.88000e+02	
0.01853   	-9.05802e+00		         0.00333	3.16000e+02	
0.02491   	4.35732e-01		         0.00500	3.41000e+02	
0.03129   	1.92628e+00		         0.00667	3.60000e+02	
0.03768   	3.42336e+00		         0.00833	3.72000e+02	
0.04405   	4.30998e+00		         0.01000	3.77000e+02	
0.05042   	2.55689e+00		         0.01167	3.73000e+02	
0.05680   	2.30133e+00		         0.01333	3.62000e+02	
0.06320   	1.99564e+00		         0.01500	3.43000e+02	
0.06956   	1.86035e+00		         0.01667	3.18000e+02	
0.07594   	2.27921e+00		         0.01833	2.86000e+02	
0.08232   	2.35497e+00		         0.02000	2.51000e+02	
0.08871   	2.37072e+00		         0.02167	2.12000e+02	
0.09508   	2.90730e+00		         0.02333	1.71000e+02	
0.10146   	3.52222e+00		         0.02500	1.31000e+02	
0.10783   	3.91818e+00		         0.02667	9.20000e+01	
0.11422   	4.01132e+00		         0.02833	5.50000e+01	
0.12059   	4.15403e+00		         0.03000	2.20000e+01	
0.12697   	4.28698e+00		         0.03167	-7.00000e+00	
0.13335   	4.32000e+00		         0.03333	-3.10000e+01	
0.13975   	4.17495e+00		         0.03500	-5.10000e+01	
0.14611   	4.11191e+00		         0.03667	-6.70000e+01	
0.15248   	4.08162e+00		         0.03833	-8.00000e+01	
0.15886   	4.04419e+00		         0.04000	-9.00000e+01	
0.16525   	4.00614e+00		         0.04167	-9.70000e+01	
0.17162   	3.93596e+00		         0.04333	-1.02000e+02	
0.17800   	3.88092e+00		         0.04500	-1.05000e+02	
0.18438   	3.78577e+00		         0.04667	-1.07000e+02	
0.19078   	3.57027e+00		         0.04833	-1.08000e+02	
0.19714   	3.57328e+00		         0.05000	-1.08000e+02	
0.20351   	3.47256e+00		         0.05167	-1.07000e+02	
0.20990   	3.23753e+00		         0.05333	-1.06000e+02	
0.21629   	3.09953e+00		         0.05500	-1.05000e+02	
0.22265   	3.13124e+00		         0.05667	-1.03000e+02	
0.22903   	2.99685e+00		         0.05833	-1.01000e+02	
0.23541   	3.03360e+00		         0.06000	-9.90000e+01	
0.24180   	3.24000e+00		         0.06167	-9.60000e+01	
0.24817   	3.32617e+00		         0.06333	-9.40000e+01	
0.25455   	3.16896e+00		         0.06500	-9.20000e+01	
0.26093   	3.08039e+00		         0.06667	-9.00000e+01	
0.26733   	2.83681e+00		         0.06833	-8.80000e+01	
0.27368   	2.59862e+00		         0.07000	-8.60000e+01	
0.28006   	2.49334e+00		         0.07167	-8.40000e+01	
0.28644   	2.41912e+00		         0.07333	-8.20000e+01	
0.29284   	2.31365e+00		         0.07500	-8.00000e+01	
0.29920   	2.24262e+00		         0.07667	-7.80000e+01	
0.30557   	2.18454e+00		         0.07833	-7.60000e+01	
0.31196   	2.13905e+00		         0.08000	-7.50000e+01	
0.31836   	2.04389e+00		         0.08167	-7.30000e+01	
0.32471   	2.03620e+00		         0.08333	-7.10000e+01	
0.33109   	2.04784e+00		         0.08500	-6.90000e+01	
0.33747   	2.01755e+00		         0.08667	-6.70000e+01	
0.34387   	1.79990e+00		         0.08833	-6.50000e+01	
0.35023   	1.64962e+00		         0.09000	-6.30000e+01	
0.35661   	1.34465e+00		         0.09167	-6.20000e+01	
0.36299   	9.51354e-01		         0.09333	-6.00000e+01	
0.36938   	3.76824e-01		         0.09500	-5.80000e+01	
0.37574   	-8.29892e-02		         0.09667	-5.60000e+01	
0.38212   	-6.08117e-01		         0.09833	-5.50000e+01	
0.38850   	-1.04272e+00		         0.10000	-5.30000e+01	
0.39491   	-1.30823e+00		         0.10167	-5.20000e+01	
0.40126   	-1.40805e+00		         0.10333	-5.00000e+01	
0.40764   	-1.34997e+00		         0.10500	-4.90000e+01	
0.41402   	-1.32495e+00		         0.10667	-4.80000e+01	
0.42041   	-1.24320e+00		         0.10833	-4.70000e+01	
0.42678   	-1.27414e+00		         0.11000	-4.60000e+01	
0.43315   	-1.04351e+00		         0.11167	-4.50000e+01	
0.43953   	-9.14370e-01		         0.11333	-4.30000e+01	
0.44593   	-8.32052e-01		         0.11500	-4.20000e+01	
0.45229   	-7.68527e-01		         0.11667	-4.10000e+01	
0.45868   	-5.36154e-01		         0.11833	-4.00000e+01	
0.46505   	-7.55484e-01		         0.12000	-3.80000e+01	
0.47144   	-1.08929e+00		         0.12167	-3.60000e+01	
0.47780   	-1.37505e+00		         0.12333	-3.50000e+01	
0.48418   	-1.71887e+00		         0.12500	-3.30000e+01	
0.49056   	-2.27487e+00		         0.12667	-3.20000e+01	
0.49697   	-2.64869e+00		         0.12833	-3.00000e+01	
0.50332   	-3.09321e+00		         0.13000	-2.90000e+01	
0.50970   	-3.54320e+00		         0.13167	-2.70000e+01	
0.51608   	-3.91117e+00		         0.13333	-2.60000e+01	
0.52248   	-4.11046e+00		         0.13500	-2.40000e+01	
0.52884   	-4.18882e+00		         0.13667	-2.30000e+01	
0.53521   	-4.19516e+00		         0.13833	-2.20000e+01	
0.54160   	-4.16573e+00		         0.14000	-2.10000e+01	
0.54800   	-3.99445e+00		         0.14167	-2.00000e+01	
0.55443   	-3.73961e+00		         0.14333	-1.80000e+01	
0.56073   	-3.60040e+00		         0.14500	-1.70000e+01	
0.56711   	-3.30644e+00		         0.14667	-1.60000e+01	
0.57352   	-2.82191e+00		         0.14833	-1.50000e+01	
0.57987   	-2.47158e+00		         0.15000	-1.30000e+01	
0.58624   	-2.29281e+00		         0.15167	-1.20000e+01	
0.59263   	-2.08257e+00		         0.15333	-1.10000e+01	
0.59903   	-1.93481e+00		         0.15500	-1.00000e+01	
0.60538   	-1.84910e+00		         0.15667	-9.00000e+00	
0.61176   	-1.82611e+00		         0.15833	-8.00000e+00	
0.61814   	-1.70853e+00		         0.16000	-7.00000e+00	
0.62454   	-1.56456e+00		         0.16167	-6.00000e+00	
0.63090   	-1.39196e+00		         0.16333	-6.00000e+00	
0.63728   	-1.29878e+00		         0.16500	-5.00000e+00	
0.64366   	-1.10048e+00		         0.16667	-5.00000e+00	
0.65005   	-9.83420e-01		         0.16833	-5.00000e+00	
0.65641   	-8.64197e-01		         0.17000	-4.00000e+00	
0.66279   	-7.42599e-01		         0.17167	-3.00000e+00	
0.66917   	-5.85727e-01		         0.17333	-2.00000e+00	
0.67558   	-4.97139e-01		         0.17500	-1.00000e+00	
0.68193   	-4.24559e-01		         0.17667	0.00000e+00	
0.68831   	-3.28762e-01		         0.17833	2.00000e+00	
0.69469   	-2.73743e-01		         0.18000	4.00000e+00	
0.70109   	-2.47818e-01		         0.18167	6.00000e+00	
0.70744   	-2.83555e-01		         0.18333	8.00000e+00	
0.71382   	-4.39978e-01		         0.18500	1.10000e+01	
0.72024   	-7.34874e-01		         0.18667	1.40000e+01	
0.72660   	-1.26623e+00		         0.18833	1.60000e+01	
0.73296   	-1.98880e+00		         0.19000	1.80000e+01	
0.73934   	-2.94974e+00		         0.19167	2.10000e+01	
0.74572   	-3.87917e+00		         0.19333	2.30000e+01	
0.75212   	-4.75906e+00		         0.19500	2.50000e+01	
0.75848   	-5.33926e+00		         0.19667	2.70000e+01	
0.76485   	-5.71467e+00		         0.19833	2.80000e+01	
0.77123   	-6.57502e+00		         0.20000	3.00000e+01	
0.77763   	-6.88944e+00		         0.20167	3.10000e+01	
0.78399   	-7.06128e+00		         0.20333	3.20000e+01	
0.79037   	-7.22150e+00		         0.20500	3.40000e+01	
0.79675   	-7.09144e+00		         0.20667	3.50000e+01	
0.80315   	-6.16798e+00		         0.20833	3.70000e+01	
0.80951   	-5.54421e+00		         0.21000	3.90000e+01	
0.81588   	-4.75532e+00		         0.21167	4.10000e+01	
0.82226   	-3.85955e+00		         0.21333	4.40000e+01	
0.82866   	-3.41179e+00		         0.21500	4.60000e+01	
0.83502   	-3.13535e+00		         0.21667	4.90000e+01	
0.84140   	-3.16106e+00		         0.21833	5.30000e+01	
0.84778   	-3.60643e+00		         0.22000	5.60000e+01	
0.85418   	-3.76965e+00		         0.22167	6.00000e+01	
0.86054   	-3.42980e+00		         0.22333	6.40000e+01	
0.86691   	-2.36151e+00		         0.22500	6.80000e+01	
0.87329   	-2.52063e-01		         0.22667	7.10000e+01	
0.87970   	2.06847e+00		         0.22833	7.50000e+01	
0.88641   	3.42140e+00		         0.23000	7.90000e+01	
0.89243   	4.15000e+00		         0.23167	8.20000e+01	
0.89881   	3.99405e+00		         0.23333	8.60000e+01	
0.90520   	3.05341e+00		         0.23500	8.90000e+01	
0.91157   	1.23156e+00		         0.23667	9.20000e+01	
0.91794   	4.42531e-01		         0.23833	9.50000e+01	
0.92433   	3.56092e-01		         0.24000	9.80000e+01	
0.93072   	3.95650e-01		         0.24167	1.00000e+02	
0.93708   	4.88762e-01		         0.24333	1.02000e+02	
0.94346   	1.78265e+00		         0.24500	1.04000e+02	
0.94984   	2.62661e+00		         0.24667	1.07000e+02	
0.95623   	3.19533e+00		         0.24833	1.09000e+02	
0.96260   	4.00579e+00		         0.25000	1.11000e+02	
0.96937   	4.67615e+00		         0.25167	1.13000e+02	
0.97536   	4.99898e+00		         0.25333	1.15000e+02	
0.98176   	5.26634e+00		         0.25500	1.17000e+02	
0.98811   	5.37059e+00		         0.25667	1.19000e+02	
0.99449   	5.28491e+00		         0.25833	1.20000e+02	
1.00087   	5.17784e+00		         0.26000	1.22000e+02	
1.00727   	5.07956e+00		         0.26167	1.23000e+02	
1.01363   	4.91574e+00		         0.26333	1.23000e+02	
1.02000   	4.74333e+00		         0.26500	1.24000e+02	
1.02639   	4.60909e+00		         0.26667	1.24000e+02	
1.03277   	4.47331e+00		         0.26833	1.23000e+02	
1.03914   	4.28260e+00		         0.27000	1.23000e+02	
1.04552   	4.17921e+00		         0.27167	1.22000e+02	
1.05202   	4.06741e+00		         0.27333	1.21000e+02	
1.05829   	4.08676e+00		         0.27500	1.20000e+02	
1.06466   	3.98962e+00		         0.27667	1.19000e+02	
1.07104   	3.94541e+00		         0.27833	1.17000e+02	
1.07742   	3.83454e+00		         0.28000	1.15000e+02	
1.08381   	3.70480e+00		         0.28167	1.13000e+02	
1.09018   	3.56130e+00		         0.28333	1.10000e+02	
1.09655   	3.51188e+00		         0.28500	1.07000e+02	
1.10293   	3.37323e+00		         0.28667	1.03000e+02	
1.10933   	3.28165e+00		         0.28833	9.90000e+01	
1.11569   	3.18984e+00		         0.29000	9.40000e+01	
1.12207   	3.07684e+00		         0.29167	8.80000e+01	
1.12844   	2.98785e+00		         0.29333	8.20000e+01	
1.13484   	2.95337e+00		         0.29500	7.50000e+01	
1.14121   	2.85629e+00		         0.29667	6.80000e+01	
1.14758   	2.79661e+00		         0.29833	6.00000e+01	
1.15396   	2.73764e+00		         0.30000	5.20000e+01	
1.16036   	2.64740e+00		         0.30167	4.30000e+01	
1.16672   	2.56663e+00		         0.30333	3.50000e+01	
1.17310   	2.47783e+00		         0.30500	2.60000e+01	
1.17948   	2.33538e+00		         0.30667	1.70000e+01	
1.18587   	2.18066e+00		         0.30833	9.00000e+00	
1.19224   	2.02417e+00		         0.31000	1.00000e+00	
1.19861   	1.85226e+00		         0.31167	-7.00000e+00	
1.20499   	1.61832e+00		         0.31333	-1.40000e+01	
1.21139   	1.39536e+00		         0.31500	-2.10000e+01	
1.21775   	1.08920e+00		         0.31667	-2.70000e+01	
1.22413   	7.72768e-01		         0.31833	-3.30000e+01	
1.23051   	3.70932e-01		         0.32000	-3.90000e+01	
1.23689   	-1.47437e-01		         0.32167	-4.40000e+01	
1.24326   	-7.47289e-01		         0.32333	-4.90000e+01	
1.24964   	-1.24695e+00		         0.32500	-5.30000e+01	
1.25602   	-1.69915e+00		         0.32667	-5.80000e+01	
1.26243   	-1.85735e+00		         0.32833	-6.20000e+01	
1.26907   	-1.51336e+00		         0.33000	-6.50000e+01	
1.27516   	-1.41761e+00		         0.33167	-6.90000e+01	
1.28154   	-1.26253e+00		         0.33333	-7.20000e+01	
1.28794   	-1.10951e+00		         0.33500	-7.60000e+01	
1.29429   	-1.35806e+00		         0.33667	-7.80000e+01	
1.30067   	-1.88824e+00		         0.33833	-8.10000e+01	
1.30706   	-1.77905e+00		         0.34000	-8.30000e+01	
1.31345   	-1.61107e+00		         0.34167	-8.40000e+01	
1.31981   	-1.57484e+00		         0.34333	-8.60000e+01	
1.32619   	-1.34287e+00		         0.34500	-8.70000e+01	
1.33257   	-1.22519e+00		         0.34667	-8.80000e+01	
1.33897   	-1.54968e+00		         0.34833	-8.90000e+01	
1.34533   	-2.02669e+00		         0.35000	-8.90000e+01	
1.35170   	-2.53832e+00		         0.35167	-9.00000e+01	
1.35808   	-3.09029e+00		         0.35333	-9.00000e+01	
1.36448   	-3.47405e+00		         0.35500	-9.10000e+01	
1.37084   	-3.68609e+00		         0.35667	-9.10000e+01	
1.37722   	-4.08519e+00		         0.35833	-9.20000e+01	
1.38360   	-4.13326e+00		         0.36000	-9.20000e+01	
1.39001   	-4.12464e+00		         0.36167	-9.20000e+01	
1.39636   	-3.97553e+00		         0.36333	-9.20000e+01	
1.40273   	-3.95324e+00		         0.36500	-9.20000e+01	
1.40911   	-3.77933e+00		         0.36667	-9.10000e+01	
1.41552   	-3.53234e+00		         0.36833	-9.00000e+01	
1.42187   	-3.38466e+00		         0.37000	-8.80000e+01	
1.42825   	-3.43759e+00		         0.37167	-8.60000e+01	
1.43463   	-3.23680e+00		         0.37333	-8.40000e+01	
1.44103   	-2.98389e+00		         0.37500	-8.10000e+01	
1.44739   	-2.92170e+00		         0.37667	-7.80000e+01	
1.45376   	-2.75663e+00		         0.37833	-7.50000e+01	
1.46015   	-2.55730e+00		         0.38000	-7.20000e+01	
1.46675   	-2.41066e+00		         0.38167	-7.00000e+01	
1.47324   	-2.21686e+00		         0.38333	-6.70000e+01	
1.47928   	-2.09024e+00		         0.38500	-6.50000e+01	
1.48566   	-1.89856e+00		         0.38667	-6.30000e+01	
1.49205   	-1.70982e+00		         0.38833	-6.20000e+01	
1.49842   	-1.59473e+00		         0.39000	-6.00000e+01	
1.50480   	-1.48901e+00		         0.39167	-5.90000e+01	
1.51118   	-1.37005e+00		         0.39333	-5.80000e+01	
1.51757   	-1.32428e+00		         0.39500	-5.70000e+01	
1.52393   	-1.24877e+00		         0.39667	-5.60000e+01	
1.53031   	-1.16205e+00		         0.39833	-5.40000e+01	
1.53669   	-1.07692e+00		         0.40000	-5.30000e+01	
1.54309   	-1.01449e+00		         0.40167	-5.10000e+01	
1.54944   	-9.23374e-01		         0.40333	-4.90000e+01	
1.55583   	-8.93549e-01		         0.40500	-4.70000e+01	
1.56221   	-9.21129e-01		         0.40667	-4.50000e+01	
1.56861   	-1.06926e+00		         0.40833	-4.30000e+01	
1.57497   	-1.22141e+00		         0.41000	-4.10000e+01	
1.58134   	-1.47826e+00		         0.41167	-4.00000e+01	
1.58772   	-1.86530e+00		         0.41333	-3.80000e+01	
1.59412   	-2.45614e+00		         0.41500	-3.70000e+01	
1.60048   	-3.19897e+00		         0.41667	-3.60000e+01	
1.60686   	-4.08556e+00		         0.41833	-3.50000e+01	
1.61324   	-5.04911e+00		         0.42000	-3.40000e+01	
1.61963   	-5.98673e+00		         0.42167	-3.40000e+01	
1.62599   	-6.73210e+00		         0.42333	-3.30000e+01	
1.63237   	-7.22163e+00		         0.42500	-3.30000e+01	
1.63876   	-7.57595e+00		         0.42667	-3.20000e+01	
1.64515   	-7.68545e+00		         0.42833	-3.20000e+01	
1.65151   	-7.43554e+00		         0.43000	-3.10000e+01	
1.65789   	-6.92174e+00		         0.43167	-3.00000e+01	
1.66427   	-6.19059e+00		         0.43333	-2.90000e+01	
1.67066   	-5.22832e+00		         0.43500	-2.80000e+01	
1.67703   	-4.25034e+00		         0.43667	-2.70000e+01	
1.68340   	-3.44610e+00		         0.43833	-2.60000e+01	
1.68978   	-2.92095e+00		         0.44000	-2.50000e+01	
1.69617   	-2.60409e+00		         0.44167	-2.40000e+01	
1.70254   	-2.53850e+00		         0.44333	-2.20000e+01	
1.70892   	-2.63095e+00		         0.44500	-2.10000e+01	
1.71530   	-2.95978e+00		         0.44667	-1.90000e+01	
1.72171   	-2.69393e+00		         0.44833	-1.80000e+01	
1.72806   	-1.94622e+00		         0.45000	-1.60000e+01	
1.73443   	-7.45120e-01		         0.45167	-1.50000e+01	
1.74081   	6.92233e-01		         0.45333	-1.40000e+01	
1.74721   	2.41927e+00		         0.45500	-1.20000e+01	
1.75357   	3.19086e+00		         0.45667	-1.10000e+01	
1.75995   	2.76212e+00		         0.45833	-1.10000e+01	
1.76633   	1.53404e+00		         0.46000	-1.00000e+01	
1.77272   	2.40015e-01		         0.46167	-1.00000e+01	
1.77908   	-8.54756e-01		         0.46333	-1.00000e+01	
1.78546   	-1.40823e+00		         0.46500	-1.10000e+01	
1.79184   	-9.99769e-01		         0.46667	-1.10000e+01	
1.79825   	-4.14355e-02		         0.46833	-1.10000e+01	
1.80460   	9.72859e-01		         0.47000	-1.10000e+01	
1.81098   	1.79922e+00		         0.47167	-1.20000e+01	
1.81736   	2.79213e+00		         0.47333	-1.20000e+01	
1.82376   	3.66399e+00		         0.47500	-1.20000e+01	
1.83012   	4.40783e+00		         0.47667	-1.20000e+01	
1.83650   	5.09180e+00		         0.47833	-1.20000e+01	
1.84288   	5.55074e+00		         0.48000	-1.20000e+01	
1.84926   	5.69315e+00		         0.48167	-1.20000e+01	
1.85563   	5.64946e+00		         0.48333	-1.20000e+01	
1.86201   	5.55985e+00		         0.48500	-1.20000e+01	
1.86839   	5.31873e+00		         0.48667	-1.20000e+01	
1.87478   	5.22856e+00		         0.48833	-1.20000e+01	
1.88115   	5.08675e+00		         0.49000	-1.20000e+01	
1.88753   	4.97725e+00		         0.49167	-1.20000e+01	
1.89391   	4.85305e+00		         0.49333	-1.20000e+01	
1.90031   	4.77574e+00		         0.49500	-1.20000e+01	
1.90666   	4.57717e+00		         0.49667	-1.10000e+01	
1.91304   	4.52796e+00		         0.49833	-1.10000e+01	
1.91942   	4.48774e+00		         0.50000	-1.00000e+01	
1.92582   	4.42958e+00		         0.50167	-1.00000e+01	
1.93218   	4.37133e+00		         0.50333	-9.00000e+00	
1.93855   	4.38508e+00		         0.50500	-9.00000e+00	
1.94493   	4.30475e+00		         0.50667	-8.00000e+00	
1.95133   	4.27771e+00		         0.50833	-7.00000e+00	
1.95769   	4.19918e+00		         0.51000	-6.00000e+00	
1.96407   	4.11225e+00		         0.51167	-4.00000e+00	
1.97044   	4.01415e+00		         0.51333	-3.00000e+00	
1.97685   	3.95857e+00		         0.51500	-2.00000e+00	
1.98321   	3.79056e+00		         0.51667	0.00000e+00	
1.98959   	3.81410e+00		         0.51833	1.00000e+00	
1.99597   	3.72468e+00		         0.52000	2.00000e+00	
2.00236   	3.61907e+00		         0.52167	3.00000e+00	
2.00872   	3.47812e+00		         0.52333	4.00000e+00	
2.01510   	3.38648e+00		         0.52500	4.00000e+00	
2.02148   	3.22050e+00		         0.52667	5.00000e+00	
2.02789   	3.02454e+00		         0.52833	6.00000e+00	
2.03424   	2.93650e+00		         0.53000	6.00000e+00	
2.04062   	2.76341e+00		         0.53167	6.00000e+00	
2.04700   	2.55326e+00		         0.53333	6.00000e+00	
2.05340   	2.33079e+00		         0.53500	6.00000e+00	
2.05975   	2.20171e+00		         0.53667	6.00000e+00	
2.06613   	1.92839e+00		         0.53833	6.00000e+00	
2.07251   	1.74117e+00		         0.54000	6.00000e+00	
2.07891   	1.57265e+00		         0.54167	6.00000e+00	
2.08527   	1.28954e+00		         0.54333	6.00000e+00	
2.09165   	9.39531e-01		         0.54500	6.00000e+00	
2.09829   	4.68521e-01		         0.54667	5.00000e+00	
2.10442   	-1.05700e-01		         0.54833	5.00000e+00	
2.11079   	-7.36944e-01		         0.55000	5.00000e+00	
2.11716   	-1.62836e+00		         0.55167	4.00000e+00	
2.12354   	-2.37560e+00		         0.55333	3.00000e+00	
2.12993   	-3.20454e+00		         0.55500	3.00000e+00	
2.13630   	-3.85805e+00		         0.55667	2.00000e+00	
2.14268   	-4.62094e+00		         0.55833	1.00000e+00	
2.14906   	-4.99034e+00		         0.56000	1.00000e+00	
2.15545   	-5.54957e+00		         0.56167	0.00000e+00	
2.16181   	-5.55965e+00		         0.56333	0.00000e+00	
2.16819   	-5.15163e+00		         0.56500	0.00000e+00	
2.17457   	-4.71296e+00		         0.56667	0.00000e+00	
2.18103   	-3.96855e+00		         0.56833	0.00000e+00	
2.18733   	-2.90284e+00		         0.57000	1.00000e+00	
2.19371   	-2.07999e+00		         0.57167	2.00000e+00	
2.20009   	-1.83551e+00		         0.57333	2.00000e+00	
2.20650   	-1.41341e+00		         0.57500	3.00000e+00	
2.21284   	-1.54731e+00		         0.57667	3.00000e+00	
2.21923   	-2.30115e+00		         0.57833	4.00000e+00	
2.22561   	-3.05285e+00		         0.58000	4.00000e+00	
2.23199   	-3.67081e+00		         0.58167	5.00000e+00	
2.23836   	-4.39474e+00		         0.58333	5.00000e+00	
2.24474   	-4.79345e+00		         0.58500	6.00000e+00	
2.25112   	-4.89342e+00		         0.58667	6.00000e+00	
2.25752   	-4.89188e+00		         0.58833	7.00000e+00	
2.26387   	-4.72499e+00		         0.59000	7.00000e+00	
2.27026   	-4.34611e+00		         0.59167	8.00000e+00	
2.27664   	-4.11949e+00		         0.59333	8.00000e+00	
2.28304   	-3.75167e+00		         0.59500	9.00000e+00	
2.28939   	-3.42907e+00		         0.59667	9.00000e+00	
2.29577   	-3.27782e+00		         0.59833	9.00000e+00	
2.30215   	-3.19335e+00		         0.60000	9.00000e+00	
2.30855   	-3.03356e+00		         0.60167	9.00000e+00	
2.31491   	-2.88570e+00		         0.60333	8.00000e+00	
2.32129   	-2.76575e+00		         0.60500	7.00000e+00	
2.32767   	-2.55746e+00		         0.60667	6.00000e+00	
2.33406   	-2.30724e+00		         0.60833	4.00000e+00	
2.34042   	-2.07573e+00		         0.61000	3.00000e+00	
2.34719   	-1.80323e+00		         0.61167	2.00000e+00	
2.35318   	-1.55255e+00		         0.61333	1.00000e+00	
2.35958   	-1.40337e+00		         0.61500	0.00000e+00	
2.36594   	-1.32266e+00		         0.61667	-1.00000e+00	
2.37232   	-1.22235e+00		         0.61833	-1.00000e+00	
2.37869   	-1.10809e+00		         0.62000	-1.00000e+00	
2.38510   	-1.08445e+00		         0.62167	-1.00000e+00	
2.39146   	-1.02373e+00		         0.62333	0.00000e+00	
2.39783   	-9.86650e-01		         0.62500	1.00000e+00	
2.40421   	-9.64174e-01		         0.62667	3.00000e+00	
2.41061   	-9.36207e-01		         0.62833	4.00000e+00	
2.41697   	-8.45888e-01		         0.63000	5.00000e+00	
2.42335   	-8.28462e-01		         0.63167	7.00000e+00	
2.42973   	-8.42968e-01		         0.63333	8.00000e+00	
2.43612   	-9.50441e-01		         0.63500	9.00000e+00	
2.44249   	-1.15736e+00		         0.63667	1.00000e+01	
2.44886   	-1.45284e+00		         0.63833	1.10000e+01	
2.45524   	-1.87111e+00		         0.64000	1.20000e+01	
2.46164   	-2.38029e+00		         0.64167	1.40000e+01	
2.46800   	-3.06068e+00		         0.64333	1.50000e+01	
2.47438   	-3.88084e+00		         0.64500	1.70000e+01	
2.48076   	-4.75294e+00		         0.64667	1.90000e+01	
2.48715   	-5.60307e+00		         0.64833	2.10000e+01	
2.49351   	-6.47862e+00		         0.65000	2.40000e+01	
2.49989   	-7.00941e+00		         0.65167	2.70000e+01	
2.50627   	-7.48764e+00		         0.65333	3.00000e+01	
2.51268   	-7.70178e+00		         0.65500	3.40000e+01	
2.51903   	-7.55000e+00		         0.65667	3.80000e+01	
2.52541   	-7.00026e+00		         0.65833	4.20000e+01	
2.53179   	-6.31516e+00		         0.66000	4.50000e+01	
2.53818   	-5.12480e+00		         0.66167	4.90000e+01	
2.54454   	-4.01622e+00		         0.66333	5.20000e+01	
2.55093   	-3.06615e+00		         0.66500	5.40000e+01	
2.55730   	-2.34359e+00		         0.66667	5.60000e+01	
2.56369   	-1.89843e+00		         0.66833	5.80000e+01	
2.57006   	-1.91388e+00		         0.67000	5.90000e+01	
2.57644   	-2.07695e+00		         0.67167	5.90000e+01	
2.58282   	-2.44126e+00		         0.67333	6.00000e+01	
2.58921   	-2.75345e+00		         0.67500	5.90000e+01	
2.59557   	-2.23442e+00		         0.67667	5.90000e+01	
2.60196   	-1.27667e+00		         0.67833	5.80000e+01	
2.60833   	1.26402e-01		         0.68000	5.70000e+01	
2.61473   	1.81110e+00		         0.68167	5.70000e+01	
2.62109   	3.05149e+00		         0.68333	5.60000e+01	
2.62747   	3.82211e+00		         0.68500	5.50000e+01	
			         0.68667	5.40000e+01	
			         0.68833	5.30000e+01	
			         0.69000	5.20000e+01	
			         0.69167	5.10000e+01	
			         0.69333	5.00000e+01	
			         0.69500	4.90000e+01	
			         0.69667	4.70000e+01	
			         0.69833	4.60000e+01	
			         0.70000	4.40000e+01	
			         0.70167	4.20000e+01	
			         0.70333	3.90000e+01	
			         0.70500	3.70000e+01	
			         0.70667	3.40000e+01	
			         0.70833	3.10000e+01	
			         0.71000	2.80000e+01	
			         0.71167	2.60000e+01	
			         0.71333	2.30000e+01	
			         0.71500	2.00000e+01	
			         0.71667	1.70000e+01	
			         0.71833	1.40000e+01	
			         0.72000	1.10000e+01	
			         0.72167	8.00000e+00	
			         0.72333	6.00000e+00	
			         0.72500	3.00000e+00	
			         0.72667	1.00000e+00	
			         0.72833	-1.00000e+00	
			         0.73000	-3.00000e+00	
			         0.73167	-4.00000e+00	
			         0.73333	-6.00000e+00	
			         0.73500	-6.00000e+00	
			         0.73667	-7.00000e+00	
			         0.73833	-7.00000e+00	
			         0.74000	-8.00000e+00	
			         0.74167	-8.00000e+00	
			         0.74333	-9.00000e+00	
			         0.74500	-9.00000e+00	
			         0.74667	-1.00000e+01	
			         0.74833	-1.10000e+01	
			         0.75000	-1.30000e+01	
			         0.75167	-1.50000e+01	
			         0.75333	-1.70000e+01	
			         0.75500	-2.00000e+01	
			         0.75667	-2.20000e+01	
			         0.75833	-2.50000e+01	
			         0.76000	-2.80000e+01	
			         0.76167	-3.00000e+01	
			         0.76333	-3.20000e+01	
			         0.76500	-3.50000e+01	
			         0.76667	-3.60000e+01	
			         0.76833	-3.80000e+01	
			         0.77000	-3.90000e+01	
			         0.77167	-4.10000e+01	
			         0.77333	-4.10000e+01	
			         0.77500	-4.20000e+01	
			         0.77667	-4.20000e+01	
			         0.77833	-4.20000e+01	
			         0.78000	-4.20000e+01	
			         0.78167	-4.20000e+01	
			         0.78333	-4.20000e+01	
			         0.78500	-4.20000e+01	
			         0.78667	-4.20000e+01	
			         0.78833	-4.20000e+01	
			         0.79000	-4.20000e+01	
			         0.79167	-4.20000e+01	
			         0.79333	-4.20000e+01	
			         0.79500	-4.30000e+01	
			         0.79667	-4.30000e+01	
			         0.79833	-4.30000e+01	
			         0.80000	-4.40000e+01	
			         0.80167	-4.40000e+01	
			         0.80333	-4.30000e+01	
			         0.80500	-4.30000e+01	
			         0.80667	-4.20000e+01	
			         0.80833	-4.10000e+01	
			         0.81000	-4.00000e+01	
			         0.81167	-3.90000e+01	
			         0.81333	-3.70000e+01	
			         0.81500	-3.50000e+01	
			         0.81667	-3.20000e+01	
			         0.81833	-3.00000e+01	
			         0.82000	-2.70000e+01	
			         0.82167	-2.40000e+01	
			         0.82333	-2.20000e+01	
			         0.82500	-2.00000e+01	
			         0.82667	-1.70000e+01	
			         0.82833	-1.60000e+01	
			         0.83000	-1.50000e+01	
			         0.83167	-1.40000e+01	
			         0.83333	-1.30000e+01	
			         0.83500	-1.30000e+01	
			         0.83667	-1.20000e+01	
			         0.83833	-1.10000e+01	
			         0.84000	-9.00000e+00	
			         0.84167	-5.00000e+00	
			         0.84333	-1.00000e+00	
			         0.84500	6.00000e+00	
			         0.84667	1.50000e+01	
			         0.84833	2.80000e+01	
			         0.85000	4.30000e+01	
			         0.85167	6.10000e+01	
			         0.85333	8.30000e+01	
			         0.85500	1.08000e+02	
			         0.85667	1.35000e+02	
			         0.85833	1.64000e+02	
			         0.86000	1.95000e+02	
			         0.86167	2.25000e+02	
			         0.86333	2.55000e+02	
			         0.86500	2.83000e+02	
			         0.86667	3.07000e+02	
			         0.86833	3.27000e+02	
			         0.87000	3.40000e+02	
			         0.87167	3.48000e+02	
			         0.87333	3.48000e+02	
			         0.87500	3.41000e+02	
			         0.87667	3.26000e+02	
			         0.87833	3.05000e+02	
			         0.88000	2.79000e+02	
			         0.88167	2.48000e+02	
			         0.88333	2.13000e+02	
			         0.88500	1.77000e+02	
			         0.88667	1.40000e+02	
			         0.88833	1.03000e+02	
			         0.89000	6.90000e+01	
			         0.89167	3.70000e+01	
			         0.89333	9.00000e+00	
			         0.89500	-1.60000e+01	
			         0.89667	-3.70000e+01	
			         0.89833	-5.40000e+01	
			         0.90000	-6.80000e+01	
			         0.90167	-7.90000e+01	
			         0.90333	-8.70000e+01	
			         0.90500	-9.30000e+01	
			         0.90667	-9.80000e+01	
			         0.90833	-1.01000e+02	
			         0.91000	-1.03000e+02	
			         0.91167	-1.05000e+02	
			         0.91333	-1.05000e+02	
			         0.91500	-1.05000e+02	
			         0.91667	-1.04000e+02	
			         0.91833	-1.03000e+02	
			         0.92000	-1.01000e+02	
			         0.92167	-9.90000e+01	
			         0.92333	-9.70000e+01	
			         0.92500	-9.50000e+01	
			         0.92667	-9.20000e+01	
			         0.92833	-8.90000e+01	
			         0.93000	-8.70000e+01	
			         0.93167	-8.50000e+01	
			         0.93333	-8.30000e+01	
			         0.93500	-8.10000e+01	
			         0.93667	-7.90000e+01	
			         0.93833	-7.70000e+01	
			         0.94000	-7.60000e+01	
			         0.94167	-7.50000e+01	
			         0.94333	-7.30000e+01	
			         0.94500	-7.10000e+01	
			         0.94667	-7.00000e+01	
			         0.94833	-6.80000e+01	
			         0.95000	-6.60000e+01	
			         0.95167	-6.40000e+01	
			         0.95333	-6.20000e+01	
			         0.95500	-6.10000e+01	
			         0.95667	-5.90000e+01	
			         0.95833	-5.80000e+01	
			         0.96000	-5.60000e+01	
			         0.96167	-5.50000e+01	
			         0.96333	-5.50000e+01	
			         0.96500	-5.40000e+01	
			         0.96667	-5.40000e+01	
			         0.96833	-5.40000e+01	
			         0.97000	-5.40000e+01	
			         0.97167	-5.40000e+01	
			         0.97333	-5.40000e+01	
			         0.97500	-5.30000e+01	
			         0.97667	-5.30000e+01	
			         0.97833	-5.20000e+01	
			         0.98000	-5.10000e+01	
			         0.98167	-5.00000e+01	
			         0.98333	-4.90000e+01	
			         0.98500	-4.80000e+01	
			         0.98667	-4.60000e+01	
			         0.98833	-4.50000e+01	
			         0.99000	-4.30000e+01	
			         0.99167	-4.20000e+01	
			         0.99333	-4.00000e+01	
			         0.99500	-3.80000e+01	
			         0.99667	-3.70000e+01	
			         0.99833	-3.50000e+01	
			         1.00000	-3.40000e+01	
			         1.00167	-3.30000e+01	
			         1.00333	-3.10000e+01	
			         1.00500	-3.00000e+01	
			         1.00667	-2.80000e+01	
			         1.00833	-2.70000e+01	
			         1.01000	-2.50000e+01	
			         1.01167	-2.40000e+01	
			         1.01333	-2.20000e+01	
			         1.01500	-2.10000e+01	
			         1.01667	-1.90000e+01	
			         1.01833	-1.80000e+01	
			         1.02000	-1.70000e+01	
			         1.02167	-1.50000e+01	
			         1.02333	-1.40000e+01	
			         1.02500	-1.30000e+01	
			         1.02667	-1.10000e+01	
			         1.02833	-1.00000e+01	
			         1.03000	-9.00000e+00	
			         1.03167	-7.00000e+00	
			         1.03333	-6.00000e+00	
			         1.03500	-5.00000e+00	
			         1.03667	-4.00000e+00	
			         1.03833	-2.00000e+00	
			         1.04000	-1.00000e+00	
			         1.04167	0.00000e+00	
			         1.04333	2.00000e+00	
			         1.04500	3.00000e+00	
			         1.04667	4.00000e+00	
			         1.04833	5.00000e+00	
			         1.05000	7.00000e+00	
			         1.05167	8.00000e+00	
			         1.05333	1.00000e+01	
			         1.05500	1.20000e+01	
			         1.05667	1.40000e+01	
			         1.05833	1.60000e+01	
			         1.06000	1.80000e+01	
			         1.06167	2.00000e+01	
			         1.06333	2.20000e+01	
			         1.06500	2.40000e+01	
			         1.06667	2.60000e+01	
			         1.06833	2.80000e+01	
			         1.07000	3.10000e+01	
			         1.07167	3.30000e+01	
			         1.07333	3.50000e+01	
			         1.07500	3.70000e+01	
			         1.07667	3.90000e+01	
			         1.07833	4.10000e+01	
			         1.08000	4.30000e+01	
			         1.08167	4.50000e+01	
			         1.08333	4.70000e+01	
			         1.08500	5.00000e+01	
			         1.08667	5.20000e+01	
			         1.08833	5.50000e+01	
			         1.09000	5.80000e+01	
			         1.09167	6.10000e+01	
			         1.09333	6.40000e+01	
			         1.09500	6.70000e+01	
			         1.09667	7.10000e+01	
			         1.09833	7.50000e+01	
			         1.10000	7.90000e+01	
			         1.10167	8.30000e+01	
			         1.10333	8.70000e+01	
			         1.10500	9.00000e+01	
			         1.10667	9.40000e+01	
			         1.10833	9.70000e+01	
			         1.11000	1.01000e+02	
			         1.11167	1.04000e+02	
			         1.11333	1.06000e+02	
			         1.11500	1.09000e+02	
			         1.11667	1.11000e+02	
			         1.11833	1.12000e+02	
			         1.12000	1.14000e+02	
			         1.12167	1.14000e+02	
			         1.12333	1.15000e+02	
			         1.12500	1.15000e+02	
			         1.12667	1.14000e+02	
			         1.12833	1.14000e+02	
			         1.13000	1.13000e+02	
			         1.13167	1.11000e+02	
			         1.13333	1.10000e+02	
			         1.13500	1.08000e+02	
			         1.13667	1.06000e+02	
			         1.13833	1.04000e+02	
			         1.14000	1.02000e+02	
			         1.14167	9.90000e+01	
			         1.14333	9.60000e+01	
			         1.14500	9.30000e+01	
			         1.14667	9.00000e+01	
			         1.14833	8.70000e+01	
			         1.15000	8.30000e+01	
			         1.15167	7.80000e+01	
			         1.15333	7.30000e+01	
			         1.15500	6.80000e+01	
			         1.15667	6.20000e+01	
			         1.15833	5.60000e+01	
			         1.16000	5.00000e+01	
			         1.16167	4.30000e+01	
			         1.16333	3.60000e+01	
			         1.16500	3.00000e+01	
			         1.16667	2.30000e+01	
			         1.16833	1.60000e+01	
			         1.17000	9.00000e+00	
			         1.17167	3.00000e+00	
			         1.17333	-4.00000e+00	
			         1.17500	-1.00000e+01	
			         1.17667	-1.60000e+01	
			         1.17833	-2.10000e+01	
			         1.18000	-2.70000e+01	
			         1.18167	-3.20000e+01	
			         1.18333	-3.70000e+01	
			         1.18500	-4.20000e+01	
			         1.18667	-4.70000e+01	
			         1.18833	-5.10000e+01	
			         1.19000	-5.60000e+01	
			         1.19167	-5.90000e+01	
			         1.19333	-6.30000e+01	
			         1.19500	-6.50000e+01	
			         1.19667	-6.80000e+01	
			         1.19833	-6.90000e+01	
			         1.20000	-7.10000e+01	
			         1.20167	-7.10000e+01	
			         1.20333	-7.20000e+01	
			         1.20500	-7.20000e+01	
			         1.20667	-7.20000e+01	
			         1.20833	-7.20000e+01	
			         1.21000	-7.20000e+01	
			         1.21167	-7.20000e+01	
			         1.21333	-7.20000e+01	
			         1.21500	-7.20000e+01	
			         1.21667	-7.30000e+01	
			         1.21833	-7.30000e+01	
			         1.22000	-7.40000e+01	
			         1.22167	-7.50000e+01	
			         1.22333	-7.60000e+01	
			         1.22500	-7.60000e+01	
			         1.22667	-7.70000e+01	
			         1.22833	-7.70000e+01	
			         1.23000	-7.70000e+01	
			         1.23167	-7.60000e+01	
			         1.23333	-7.50000e+01	
			         1.23500	-7.40000e+01	
			         1.23667	-7.20000e+01	
			         1.23833	-7.00000e+01	
			         1.24000	-6.70000e+01	
			         1.24167	-6.40000e+01	
			         1.24333	-6.10000e+01	
			         1.24500	-5.80000e+01	
			         1.24667	-5.50000e+01	
			         1.24833	-5.20000e+01	
			         1.25000	-4.90000e+01	
			         1.25167	-4.70000e+01	
			         1.25333	-4.50000e+01	
			         1.25500	-4.30000e+01	
			         1.25667	-4.10000e+01	
			         1.25833	-3.90000e+01	
			         1.26000	-3.80000e+01	
			         1.26167	-3.70000e+01	
			         1.26333	-3.70000e+01	
			         1.26500	-3.60000e+01	
			         1.26667	-3.60000e+01	
			         1.26833	-3.60000e+01	
			         1.27000	-3.50000e+01	
			         1.27167	-3.50000e+01	
			         1.27333	-3.50000e+01	
			         1.27500	-3.50000e+01	
			         1.27667	-3.40000e+01	
			         1.27833	-3.30000e+01	
			         1.28000	-3.30000e+01	
			         1.28167	-3.20000e+01	
			         1.28333	-3.10000e+01	
			         1.28500	-2.90000e+01	
			         1.28667	-2.80000e+01	
			         1.28833	-2.70000e+01	
			         1.29000	-2.70000e+01	
			         1.29167	-2.60000e+01	
			         1.29333	-2.50000e+01	
			         1.29500	-2.50000e+01	
			         1.29667	-2.50000e+01	
			         1.29833	-2.50000e+01	
			         1.30000	-2.60000e+01	
			         1.30167	-2.60000e+01	
			         1.30333	-2.70000e+01	
			         1.30500	-2.70000e+01	
			         1.30667	-2.70000e+01	
			         1.30833	-2.70000e+01	
			         1.31000	-2.70000e+01	
			         1.31167	-2.60000e+01	
			         1.31333	-2.50000e+01	
			         1.31500	-2.40000e+01	
			         1.31667	-2.30000e+01	
			         1.31833	-2.10000e+01	
			         1.32000	-2.00000e+01	
			         1.32167	-1.80000e+01	
			         1.32333	-1.70000e+01	
			         1.32500	-1.50000e+01	
			         1.32667	-1.40000e+01	
			         1.32833	-1.20000e+01	
			         1.33000	-1.10000e+01	
			         1.33167	-1.00000e+01	
			         1.33333	-9.00000e+00	
			         1.33500	-7.00000e+00	
			         1.33667	-7.00000e+00	
			         1.33833	-6.00000e+00	
			         1.34000	-5.00000e+00	
			         1.34167	-4.00000e+00	
			         1.34333	-4.00000e+00	
			         1.34500	-3.00000e+00	
			         1.34667	-3.00000e+00	
			         1.34833	-3.00000e+00	
			         1.35000	-3.00000e+00	
			         1.35167	-3.00000e+00	
			         1.35333	-2.00000e+00	
			         1.35500	-2.00000e+00	
			         1.35667	-2.00000e+00	
			         1.35833	-2.00000e+00	
			         1.36000	-1.00000e+00	
			         1.36167	-1.00000e+00	
			         1.36333	0.00000e+00	
			         1.36500	1.00000e+00	
			         1.36667	1.00000e+00	
			         1.36833	2.00000e+00	
			         1.37000	2.00000e+00	
			         1.37167	2.00000e+00	
			         1.37333	2.00000e+00	
			         1.37500	2.00000e+00	
			         1.37667	2.00000e+00	
			         1.37833	2.00000e+00	
			         1.38000	2.00000e+00	
			         1.38167	2.00000e+00	
			         1.38333	2.00000e+00	
			         1.38500	2.00000e+00	
			         1.38667	1.00000e+00	
			         1.38833	1.00000e+00	
			         1.39000	1.00000e+00	
			         1.39167	1.00000e+00	
			         1.39333	1.00000e+00	
			         1.39500	1.00000e+00	
			         1.39667	1.00000e+00	
			         1.39833	0.00000e+00	
			         1.40000	0.00000e+00	
			         1.40167	-1.00000e+00	
			         1.40333	-1.00000e+00	
			         1.40500	-2.00000e+00	
			         1.40667	-2.00000e+00	
			         1.40833	-2.00000e+00	
			         1.41000	-3.00000e+00	
			         1.41167	-2.00000e+00	
			         1.41333	-2.00000e+00	
			         1.41500	-1.00000e+00	
			         1.41667	-1.00000e+00	
			         1.41833	0.00000e+00	
			         1.42000	1.00000e+00	
			         1.42167	2.00000e+00	
			         1.42333	3.00000e+00	
			         1.42500	3.00000e+00	
			         1.42667	4.00000e+00	
			         1.42833	4.00000e+00	
			         1.43000	4.00000e+00	
			         1.43167	4.00000e+00	
			         1.43333	4.00000e+00	
			         1.43500	4.00000e+00	
			         1.43667	4.00000e+00	
			         1.43833	3.00000e+00	
			         1.44000	3.00000e+00	
			         1.44167	2.00000e+00	
			         1.44333	2.00000e+00	
			         1.44500	2.00000e+00	
			         1.44667	2.00000e+00	
			         1.44833	3.00000e+00	
			         1.45000	3.00000e+00	
			         1.45167	4.00000e+00	
			         1.45333	4.00000e+00	
			         1.45500	4.00000e+00	
			         1.45667	5.00000e+00	
			         1.45833	5.00000e+00	
			         1.46000	5.00000e+00	
			         1.46167	5.00000e+00	
			         1.46333	5.00000e+00	
			         1.46500	4.00000e+00	
			         1.46667	4.00000e+00	
			         1.46833	3.00000e+00	
			         1.47000	3.00000e+00	
			         1.47167	3.00000e+00	
			         1.47333	2.00000e+00	
			         1.47500	2.00000e+00	
			         1.47667	2.00000e+00	
			         1.47833	2.00000e+00	
			         1.48000	2.00000e+00	
			         1.48167	2.00000e+00	
			         1.48333	2.00000e+00	
			         1.48500	2.00000e+00	
			         1.48667	2.00000e+00	
			         1.48833	2.00000e+00	
			         1.49000	2.00000e+00	
			         1.49167	2.00000e+00	
			         1.49333	2.00000e+00	
			         1.49500	2.00000e+00	
			         1.49667	2.00000e+00	
			         1.49833	3.00000e+00	
			         1.50000	3.00000e+00	
			         1.50167	4.00000e+00	
			         1.50333	5.00000e+00	
			         1.50500	7.00000e+00	
			         1.50667	8.00000e+00	
			         1.50833	9.00000e+00	
			         1.51000	1.10000e+01	
			         1.51167	1.30000e+01	
			         1.51333	1.40000e+01	
			         1.51500	1.60000e+01	
			         1.51667	1.80000e+01	
			         1.51833	1.90000e+01	
			         1.52000	2.10000e+01	
			         1.52167	2.20000e+01	
			         1.52333	2.30000e+01	
			         1.52500	2.40000e+01	
			         1.52667	2.50000e+01	
			         1.52833	2.60000e+01	
			         1.53000	2.80000e+01	
			         1.53167	2.90000e+01	
			         1.53333	3.00000e+01	
			         1.53500	3.10000e+01	
			         1.53667	3.20000e+01	
			         1.53833	3.20000e+01	
			         1.54000	3.30000e+01	
			         1.54167	3.40000e+01	
			         1.54333	3.50000e+01	
			         1.54500	3.50000e+01	
			         1.54667	3.60000e+01	
			         1.54833	3.70000e+01	
			         1.55000	3.70000e+01	
			         1.55167	3.80000e+01	
			         1.55333	3.80000e+01	
			         1.55500	3.90000e+01	
			         1.55667	3.90000e+01	
			         1.55833	3.90000e+01	
			         1.56000	3.90000e+01	
			         1.56167	3.80000e+01	
			         1.56333	3.80000e+01	
			         1.56500	3.70000e+01	
			         1.56667	3.50000e+01	
			         1.56833	3.40000e+01	
			         1.57000	3.20000e+01	
			         1.57167	3.10000e+01	
			         1.57333	2.90000e+01	
			         1.57500	2.70000e+01	
			         1.57667	2.50000e+01	
			         1.57833	2.30000e+01	
			         1.58000	2.10000e+01	
			         1.58167	1.90000e+01	
			         1.58333	1.60000e+01	
			         1.58500	1.40000e+01	
			         1.58667	1.10000e+01	
			         1.58833	9.00000e+00	
			         1.59000	6.00000e+00	
			         1.59167	2.00000e+00	
			         1.59333	-1.00000e+00	
			         1.59500	-4.00000e+00	
			         1.59667	-7.00000e+00	
			         1.59833	-1.00000e+01	
			         1.60000	-1.30000e+01	
			         1.60167	-1.50000e+01	
			         1.60333	-1.70000e+01	
			         1.60500	-1.90000e+01	
			         1.60667	-2.00000e+01	
			         1.60833	-2.10000e+01	
			         1.61000	-2.20000e+01	
			         1.61167	-2.40000e+01	
			         1.61333	-2.50000e+01	
			         1.61500	-2.70000e+01	
			         1.61667	-2.90000e+01	
			         1.61833	-3.10000e+01	
			         1.62000	-3.30000e+01	
			         1.62167	-3.60000e+01	
			         1.62333	-3.90000e+01	
			         1.62500	-4.20000e+01	
			         1.62667	-4.40000e+01	
			         1.62833	-4.70000e+01	
			         1.63000	-5.00000e+01	
			         1.63167	-5.20000e+01	
			         1.63333	-5.40000e+01	
			         1.63500	-5.50000e+01	
			         1.63667	-5.50000e+01	
			         1.63833	-5.60000e+01	
			         1.64000	-5.50000e+01	
			         1.64167	-5.50000e+01	
			         1.64333	-5.40000e+01	
			         1.64500	-5.30000e+01	
			         1.64667	-5.20000e+01	
			         1.64833	-5.10000e+01	
			         1.65000	-4.90000e+01	
			         1.65167	-4.80000e+01	
			         1.65333	-4.70000e+01	
			         1.65500	-4.50000e+01	
			         1.65667	-4.40000e+01	
			         1.65833	-4.30000e+01	
			         1.66000	-4.20000e+01	
			         1.66167	-4.00000e+01	
			         1.66333	-3.90000e+01	
			         1.66500	-3.80000e+01	
			         1.66667	-3.70000e+01	
			         1.66833	-3.60000e+01	
			         1.67000	-3.50000e+01	
			         1.67167	-3.40000e+01	
			         1.67333	-3.30000e+01	
			         1.67500	-3.30000e+01	
			         1.67667	-3.20000e+01	
			         1.67833	-3.20000e+01	
			         1.68000	-3.20000e+01	
			         1.68167	-3.20000e+01	
			         1.68333	-3.10000e+01	
			         1.68500	-3.10000e+01	
			         1.68667	-3.10000e+01	
			         1.68833	-3.00000e+01	
			         1.69000	-2.90000e+01	
			         1.69167	-2.90000e+01	
			         1.69333	-2.80000e+01	
			         1.69500	-2.70000e+01	
			         1.69667	-2.60000e+01	
			         1.69833	-2.50000e+01	
			         1.70000	-2.40000e+01	
			         1.70167	-2.20000e+01	
			         1.70333	-1.90000e+01	
			         1.70500	-1.50000e+01	
			         1.70667	-1.00000e+01	
			         1.70833	-4.00000e+00	
			         1.71000	4.00000e+00	
			         1.71167	1.50000e+01	
			         1.71333	2.80000e+01	
			         1.71500	4.30000e+01	
			         1.71667	6.20000e+01	
			         1.71833	8.30000e+01	
			         1.72000	1.07000e+02	
			         1.72167	1.33000e+02	
			         1.72333	1.61000e+02	
			         1.72500	1.90000e+02	
			         1.72667	2.19000e+02	
			         1.72833	2.48000e+02	
			         1.73000	2.75000e+02	
			         1.73167	2.99000e+02	
			         1.73333	3.19000e+02	
			         1.73500	3.34000e+02	
			         1.73667	3.44000e+02	
			         1.73833	3.47000e+02	
			         1.74000	3.43000e+02	
			         1.74167	3.32000e+02	
			         1.74333	3.15000e+02	
			         1.74500	2.93000e+02	
			         1.74667	2.65000e+02	
			         1.74833	2.34000e+02	
			         1.75000	2.01000e+02	
			         1.75167	1.66000e+02	
			         1.75333	1.31000e+02	
			         1.75500	9.70000e+01	
			         1.75667	6.60000e+01	
			         1.75833	3.70000e+01	
			         1.76000	1.20000e+01	
			         1.76167	-1.00000e+01	
			         1.76333	-2.90000e+01	
			         1.76500	-4.40000e+01	
			         1.76667	-5.60000e+01	
			         1.76833	-6.60000e+01	
			         1.77000	-7.40000e+01	
			         1.77167	-7.90000e+01	
			         1.77333	-8.40000e+01	
			         1.77500	-8.60000e+01	
			         1.77667	-8.80000e+01	
			         1.77833	-9.00000e+01	
			         1.78000	-9.00000e+01	
			         1.78167	-9.00000e+01	
			         1.78333	-8.90000e+01	
			         1.78500	-8.80000e+01	
			         1.78667	-8.70000e+01	
			         1.78833	-8.50000e+01	
			         1.79000	-8.40000e+01	
			         1.79167	-8.20000e+01	
			         1.79333	-8.00000e+01	
			         1.79500	-7.90000e+01	
			         1.79667	-7.80000e+01	
			         1.79833	-7.70000e+01	
			         1.80000	-7.70000e+01	
			         1.80167	-7.60000e+01	
			         1.80333	-7.60000e+01	
			         1.80500	-7.50000e+01	
			         1.80667	-7.40000e+01	
			         1.80833	-7.40000e+01	
			         1.81000	-7.30000e+01	
			         1.81167	-7.20000e+01	
			         1.81333	-7.00000e+01	
			         1.81500	-6.90000e+01	
			         1.81667	-6.70000e+01	
			         1.81833	-6.50000e+01	
			         1.82000	-6.40000e+01	
			         1.82167	-6.20000e+01	
			         1.82333	-6.00000e+01	
			         1.82500	-5.80000e+01	
			         1.82667	-5.70000e+01	
			         1.82833	-5.60000e+01	
			         1.83000	-5.50000e+01	
			         1.83167	-5.40000e+01	
			         1.83333	-5.30000e+01	
			         1.83500	-5.20000e+01	
			         1.83667	-5.10000e+01	
			         1.83833	-5.10000e+01	
			         1.84000	-5.00000e+01	
			         1.84167	-4.90000e+01	
			         1.84333	-4.70000e+01	
			         1.84500	-4.60000e+01	
			         1.84667	-4.40000e+01	
			         1.84833	-4.30000e+01	
			         1.85000	-4.10000e+01	
			         1.85167	-3.90000e+01	
			         1.85333	-3.70000e+01	
			         1.85500	-3.60000e+01	
			         1.85667	-3.40000e+01	
			         1.85833	-3.20000e+01	
			         1.86000	-3.10000e+01	
			         1.86167	-2.90000e+01	
			         1.86333	-2.80000e+01	
			         1.86500	-2.70000e+01	
			         1.86667	-2.50000e+01	
			         1.86833	-2.40000e+01	
			         1.87000	-2.30000e+01	
			         1.87167	-2.20000e+01	
			         1.87333	-2.00000e+01	
			         1.87500	-1.90000e+01	
			         1.87667	-1.80000e+01	
			         1.87833	-1.70000e+01	
			         1.88000	-1.60000e+01	
			         1.88167	-1.50000e+01	
			         1.88333	-1.50000e+01	
			         1.88500	-1.40000e+01	
			         1.88667	-1.40000e+01	
			         1.88833	-1.30000e+01	
			         1.89000	-1.30000e+01	
			         1.89167	-1.20000e+01	
			         1.89333	-1.10000e+01	
			         1.89500	-1.00000e+01	
			         1.89667	-9.00000e+00	
			         1.89833	-8.00000e+00	
			         1.90000	-7.00000e+00	
			         1.90167	-5.00000e+00	
			         1.90333	-4.00000e+00	
			         1.90500	-2.00000e+00	
			         1.90667	-1.00000e+00	
			         1.90833	1.00000e+00	
			         1.91000	2.00000e+00	
			         1.91167	4.00000e+00	
			         1.91333	5.00000e+00	
			         1.91500	6.00000e+00	
			         1.91667	7.00000e+00	
			         1.91833	8.00000e+00	
			         1.92000	9.00000e+00	
			         1.92167	1.10000e+01	
			         1.92333	1.20000e+01	
			         1.92500	1.30000e+01	
			         1.92667	1.50000e+01	
			         1.92833	1.70000e+01	
			         1.93000	1.90000e+01	
			         1.93167	2.10000e+01	
			         1.93333	2.20000e+01	
			         1.93500	2.40000e+01	
			         1.93667	2.70000e+01	
			         1.93833	2.90000e+01	
			         1.94000	3.10000e+01	
			         1.94167	3.30000e+01	
			         1.94333	3.50000e+01	
			         1.94500	3.70000e+01	
			         1.94667	3.90000e+01	
			         1.94833	4.20000e+01	
			         1.95000	4.40000e+01	
			         1.95167	4.70000e+01	
			         1.95333	4.90000e+01	
			         1.95500	5.20000e+01	
			         1.95667	5.40000e+01	
			         1.95833	5.70000e+01	
			         1.96000	5.90000e+01	
			         1.96167	6.20000e+01	
			         1.96333	6.50000e+01	
			         1.96500	6.80000e+01	
			         1.96667	7.00000e+01	
			         1.96833	7.30000e+01	
			         1.97000	7.50000e+01	
			         1.97167	7.80000e+01	
			         1.97333	8.10000e+01	
			         1.97500	8.30000e+01	
			         1.97667	8.60000e+01	
			         1.97833	8.80000e+01	
			         1.98000	9.00000e+01	
			         1.98167	9.20000e+01	
			         1.98333	9.40000e+01	
			         1.98500	9.50000e+01	
			         1.98667	9.70000e+01	
			         1.98833	9.80000e+01	
			         1.99000	9.80000e+01	
			         1.99167	9.90000e+01	
			         1.99333	9.90000e+01	
			         1.99500	9.90000e+01	
			         1.99667	9.80000e+01	
			         1.99833	9.70000e+01	
			         2.00000	9.60000e+01	
			         2.00167	9.50000e+01	
			         2.00333	9.30000e+01	
			         2.00500	9.00000e+01	
			         2.00667	8.80000e+01	
			         2.00833	8.50000e+01	
			         2.01000	8.10000e+01	
			         2.01167	7.80000e+01	
			         2.01333	7.40000e+01	
			         2.01500	6.90000e+01	
			         2.01667	6.50000e+01	
			         2.01833	6.00000e+01	
			         2.02000	5.50000e+01	
			         2.02167	4.90000e+01	
			         2.02333	4.40000e+01	
			         2.02500	3.80000e+01	
			         2.02667	3.20000e+01	
			         2.02833	2.50000e+01	
			         2.03000	1.90000e+01	
			         2.03167	1.30000e+01	
			         2.03333	6.00000e+00	
			         2.03500	-1.00000e+00	
			         2.03667	-7.00000e+00	
			         2.03833	-1.40000e+01	
			         2.04000	-2.10000e+01	
			         2.04167	-2.70000e+01	
			         2.04333	-3.40000e+01	
			         2.04500	-4.00000e+01	
			         2.04667	-4.60000e+01	
			         2.04833	-5.20000e+01	
			         2.05000	-5.70000e+01	
			         2.05167	-6.20000e+01	
			         2.05333	-6.60000e+01	
			         2.05500	-7.00000e+01	
			         2.05667	-7.30000e+01	
			         2.05833	-7.60000e+01	
			         2.06000	-7.90000e+01	
			         2.06167	-8.10000e+01	
			         2.06333	-8.20000e+01	
			         2.06500	-8.30000e+01	
			         2.06667	-8.40000e+01	
			         2.06833	-8.50000e+01	
			         2.07000	-8.60000e+01	
			         2.07167	-8.60000e+01	
			         2.07333	-8.60000e+01	
			         2.07500	-8.70000e+01	
			         2.07667	-8.70000e+01	
			         2.07833	-8.80000e+01	
			         2.08000	-8.80000e+01	
			         2.08167	-8.80000e+01	
			         2.08333	-8.70000e+01	
			         2.08500	-8.60000e+01	
			         2.08667	-8.50000e+01	
			         2.08833	-8.40000e+01	
			         2.09000	-8.30000e+01	
			         2.09167	-8.10000e+01	
			         2.09333	-7.90000e+01	
			         2.09500	-7.80000e+01	
			         2.09667	-7.60000e+01	
			         2.09833	-7.50000e+01	
			         2.10000	-7.40000e+01	
			         2.10167	-7.30000e+01	
			         2.10333	-7.20000e+01	
			         2.10500	-7.10000e+01	
			         2.10667	-7.10000e+01	
			         2.10833	-7.10000e+01	
			         2.11000	-7.00000e+01	
			         2.11167	-7.00000e+01	
			         2.11333	-6.90000e+01	
			         2.11500	-6.80000e+01	
			         2.11667	-6.60000e+01	
			         2.11833	-6.50000e+01	
			         2.12000	-6.40000e+01	
			         2.12167	-6.20000e+01	
			         2.12333	-6.10000e+01	
			         2.12500	-5.90000e+01	
			         2.12667	-5.80000e+01	
			         2.12833	-5.70000e+01	
			         2.13000	-5.60000e+01	
			         2.13167	-5.50000e+01	
			         2.13333	-5.50000e+01	
			         2.13500	-5.40000e+01	
			         2.13667	-5.40000e+01	
			         2.13833	-5.30000e+01	
			         2.14000	-5.30000e+01	
			         2.14167	-5.20000e+01	
			         2.14333	-5.10000e+01	
			         2.14500	-5.00000e+01	
			         2.14667	-4.90000e+01	
			         2.14833	-4.80000e+01	
			         2.15000	-4.60000e+01	
			         2.15167	-4.50000e+01	
			         2.15333	-4.30000e+01	
			         2.15500	-4.10000e+01	
			         2.15667	-3.90000e+01	
			         2.15833	-3.80000e+01	
			         2.16000	-3.60000e+01	
			         2.16167	-3.40000e+01	
			         2.16333	-3.20000e+01	
			         2.16500	-3.10000e+01	
			         2.16667	-2.90000e+01	
			         2.16833	-2.80000e+01	
			         2.17000	-2.70000e+01	
			         2.17167	-2.70000e+01	
			         2.17333	-2.60000e+01	
			         2.17500	-2.60000e+01	
			         2.17667	-2.50000e+01	
			         2.17833	-2.50000e+01	
			         2.18000	-2.50000e+01	
			         2.18167	-2.50000e+01	
			         2.18333	-2.50000e+01	
			         2.18500	-2.40000e+01	
			         2.18667	-2.40000e+01	
			         2.18833	-2.30000e+01	
			         2.19000	-2.30000e+01	
			         2.19167	-2.20000e+01	
			         2.19333	-2.20000e+01	
			         2.19500	-2.10000e+01	
			         2.19667	-2.10000e+01	
			         2.19833	-2.00000e+01	
			         2.20000	-2.00000e+01	
			         2.20167	-1.90000e+01	
			         2.20333	-1.80000e+01	
			         2.20500	-1.80000e+01	
			         2.20667	-1.70000e+01	
			         2.20833	-1.60000e+01	
			         2.21000	-1.50000e+01	
			         2.21167	-1.40000e+01	
			         2.21333	-1.20000e+01	
			         2.21500	-1.10000e+01	
			         2.21667	-1.00000e+01	
			         2.21833	-9.00000e+00	
			         2.22000	-7.00000e+00	
			         2.22167	-6.00000e+00	
			         2.22333	-6.00000e+00	
			         2.22500	-5.00000e+00	
			         2.22667	-5.00000e+00	
			         2.22833	-5.00000e+00	
			         2.23000	-5.00000e+00	
			         2.23167	-5.00000e+00	
			         2.23333	-5.00000e+00	
			         2.23500	-6.00000e+00	
			         2.23667	-6.00000e+00	
			         2.23833	-6.00000e+00	
			         2.24000	-6.00000e+00	
			         2.24167	-6.00000e+00	
			         2.24333	-6.00000e+00	
			         2.24500	-5.00000e+00	
			         2.24667	-5.00000e+00	
			         2.24833	-5.00000e+00	
			         2.25000	-5.00000e+00	
			         2.25167	-5.00000e+00	
			         2.25333	-4.00000e+00	
			         2.25500	-4.00000e+00	
			         2.25667	-4.00000e+00	
			         2.25833	-4.00000e+00	
			         2.26000	-5.00000e+00	
			         2.26167	-5.00000e+00	
			         2.26333	-6.00000e+00	
			         2.26500	-6.00000e+00	
			         2.26667	-6.00000e+00	
			         2.26833	-7.00000e+00	
			         2.27000	-7.00000e+00	
			         2.27167	-7.00000e+00	
			         2.27333	-7.00000e+00	
			         2.27500	-7.00000e+00	
			         2.27667	-7.00000e+00	
			         2.27833	-7.00000e+00	
			         2.28000	-8.00000e+00	
			         2.28167	-8.00000e+00	
			         2.28333	-8.00000e+00	
			         2.28500	-9.00000e+00	
			         2.28667	-9.00000e+00	
			         2.28833	-1.00000e+01	
			         2.29000	-1.00000e+01	
			         2.29167	-1.10000e+01	
			         2.29333	-1.10000e+01	
			         2.29500	-1.10000e+01	
			         2.29667	-1.10000e+01	
			         2.29833	-1.10000e+01	
			         2.30000	-1.10000e+01	
			         2.30167	-1.10000e+01	
			         2.30333	-1.10000e+01	
			         2.30500	-1.10000e+01	
			         2.30667	-1.10000e+01	
			         2.30833	-1.00000e+01	
			         2.31000	-1.00000e+01	
			         2.31167	-1.00000e+01	
			         2.31333	-1.00000e+01	
			         2.31500	-9.00000e+00	
			         2.31667	-9.00000e+00	
			         2.31833	-9.00000e+00	
			         2.32000	-8.00000e+00	
			         2.32167	-7.00000e+00	
			         2.32333	-7.00000e+00	
			         2.32500	-6.00000e+00	
			         2.32667	-5.00000e+00	
			         2.32833	-5.00000e+00	
			         2.33000	-4.00000e+00	
			         2.33167	-4.00000e+00	
			         2.33333	-4.00000e+00	
			         2.33500	-3.00000e+00	
			         2.33667	-3.00000e+00	
			         2.33833	-3.00000e+00	
			         2.34000	-3.00000e+00	
			         2.34167	-3.00000e+00	
			         2.34333	-4.00000e+00	
			         2.34500	-4.00000e+00	
			         2.34667	-5.00000e+00	
			         2.34833	-5.00000e+00	
			         2.35000	-5.00000e+00	
			         2.35167	-6.00000e+00	
			         2.35333	-6.00000e+00	
			         2.35500	-6.00000e+00	
			         2.35667	-7.00000e+00	
			         2.35833	-7.00000e+00	
			         2.36000	-7.00000e+00	
			         2.36167	-8.00000e+00	
			         2.36333	-8.00000e+00	
			         2.36500	-8.00000e+00	
			         2.36667	-8.00000e+00	
			         2.36833	-8.00000e+00	
			         2.37000	-8.00000e+00	
			         2.37167	-7.00000e+00	
			         2.37333	-6.00000e+00	
			         2.37500	-5.00000e+00	
			         2.37667	-4.00000e+00	
			         2.37833	-3.00000e+00	
			         2.38000	-1.00000e+00	
			         2.38167	1.00000e+00	
			         2.38333	3.00000e+00	
			         2.38500	6.00000e+00	
			         2.38667	8.00000e+00	
			         2.38833	1.10000e+01	
			         2.39000	1.40000e+01	
			         2.39167	1.60000e+01	
			         2.39333	1.80000e+01	
			         2.39500	2.10000e+01	
			         2.39667	2.20000e+01	
			         2.39833	2.40000e+01	
			         2.40000	2.60000e+01	
			         2.40167	2.70000e+01	
			         2.40333	2.80000e+01	
			         2.40500	2.90000e+01	
			         2.40667	3.10000e+01	
			         2.40833	3.20000e+01	
			         2.41000	3.20000e+01	
			         2.41167	3.30000e+01	
			         2.41333	3.40000e+01	
			         2.41500	3.40000e+01	
			         2.41667	3.40000e+01	
			         2.41833	3.40000e+01	
			         2.42000	3.40000e+01	
			         2.42167	3.40000e+01	
			         2.42333	3.40000e+01	
			         2.42500	3.40000e+01	
			         2.42667	3.40000e+01	
			         2.42833	3.30000e+01	
			         2.43000	3.30000e+01	
			         2.43167	3.30000e+01	
			         2.43333	3.20000e+01	
			         2.43500	3.10000e+01	
			         2.43667	3.10000e+01	
			         2.43833	3.00000e+01	
			         2.44000	2.90000e+01	
			         2.44167	2.80000e+01	
			         2.44333	2.60000e+01	
			         2.44500	2.50000e+01	
			         2.44667	2.20000e+01	
			         2.44833	2.00000e+01	
			         2.45000	1.70000e+01	
			         2.45167	1.30000e+01	
			         2.45333	1.00000e+01	
			         2.45500	6.00000e+00	
			         2.45667	2.00000e+00	
			         2.45833	-1.00000e+00	
			         2.46000	-5.00000e+00	
			         2.46167	-8.00000e+00	
			         2.46333	-1.10000e+01	
			         2.46500	-1.30000e+01	
			         2.46667	-1.50000e+01	
			         2.46833	-1.70000e+01	
			         2.47000	-1.80000e+01	
			         2.47167	-2.00000e+01	
			         2.47333	-2.10000e+01	
			         2.47500	-2.20000e+01	
			         2.47667	-2.30000e+01	
			         2.47833	-2.40000e+01	
			         2.48000	-2.50000e+01	
			         2.48167	-2.70000e+01	
			         2.48333	-2.90000e+01	
			         2.48500	-3.10000e+01	
			         2.48667	-3.30000e+01	
			         2.48833	-3.60000e+01	
			         2.49000	-3.80000e+01	
			         2.49167	-4.00000e+01	
			         2.49333	-4.30000e+01	
			         2.49500	-4.50000e+01	
			         2.49667	-4.60000e+01	
			         2.49833	-4.80000e+01	
			         2.50000	-4.90000e+01	
			         2.50167	-5.00000e+01	
			         2.50333	-5.10000e+01	
			         2.50500	-5.20000e+01	
			         2.50667	-5.20000e+01	
			         2.50833	-5.30000e+01	
			         2.51000	-5.30000e+01	
			         2.51167	-5.20000e+01	
			         2.51333	-5.20000e+01	
			         2.51500	-5.10000e+01	
			         2.51667	-5.00000e+01	
			         2.51833	-4.80000e+01	
			         2.52000	-4.70000e+01	
			         2.52167	-4.50000e+01	
			         2.52333	-4.30000e+01	
			         2.52500	-4.10000e+01	
			         2.52667	-4.00000e+01	
			         2.52833	-3.80000e+01	
			         2.53000	-3.60000e+01	
			         2.53167	-3.50000e+01	
			         2.53333	-3.40000e+01	
			         2.53500	-3.30000e+01	
			         2.53667	-3.30000e+01	
			         2.53833	-3.30000e+01	
			         2.54000	-3.30000e+01	
			         2.54167	-3.40000e+01	
			         2.54333	-3.50000e+01	
			         2.54500	-3.60000e+01	
			         2.54667	-3.80000e+01	
			         2.54833	-3.90000e+01	
			         2.55000	-4.10000e+01	
			         2.55167	-4.20000e+01	
			         2.55333	-4.30000e+01	
			         2.55500	-4.40000e+01	
			         2.55667	-4.50000e+01	
			         2.55833	-4.50000e+01	
			         2.56000	-4.50000e+01	
			         2.56167	-4.40000e+01	
			         2.56333	-4.30000e+01	
			         2.56500	-4.10000e+01	
			         2.56667	-3.80000e+01	
			         2.56833	-3.60000e+01	
			         2.57000	-3.30000e+01	
			         2.57167	-2.90000e+01	
			         2.57333	-2.50000e+01	
			         2.57500	-2.10000e+01	
			         2.57667	-1.50000e+01	
			         2.57833	-9.00000e+00	
			         2.58000	-1.00000e+00	
			         2.58167	9.00000e+00	
			         2.58333	2.10000e+01	
			         2.58500	3.50000e+01	
			         2.58667	5.20000e+01	
			         2.58833	7.10000e+01	
			         2.59000	9.30000e+01	
			         2.59167	1.17000e+02	
			         2.59333	1.44000e+02	
			         2.59500	1.72000e+02	
			         2.59667	2.00000e+02	
			         2.59833	2.29000e+02	
			         2.60000	2.56000e+02	
			         2.60167	2.81000e+02	
			         2.60333	3.03000e+02	
			         2.60500	3.20000e+02	
			         2.60667	3.32000e+02	
			         2.60833	3.37000e+02	
			         2.61000	3.35000e+02	
			         2.61167	3.27000e+02	
			         2.61333	3.12000e+02	
			         2.61500	2.92000e+02	
			         2.61667	2.67000e+02	
			         2.61833	2.37000e+02	
			         2.62000	2.05000e+02	
			         2.62167	1.71000e+02	
