Velocity (TVI), in cm/s

Time (s) :	Trace 1 : 		Ecg : 		
0.01809   	8.61740e-01		         0.00000	1.11000e+02	
0.02719   	9.36257e-01		         0.00167	1.32000e+02	
0.03630   	1.00359e+00		         0.00333	1.55000e+02	
0.04569   	2.68626e-01		         0.00500	1.79000e+02	
0.05478   	-8.26397e-01		         0.00667	2.03000e+02	
0.06388   	-1.72495e+00		         0.00833	2.27000e+02	
0.07299   	-1.18202e+00		         0.01000	2.48000e+02	
0.08238   	5.12730e-01		         0.01167	2.65000e+02	
0.09147   	2.63953e+00		         0.01333	2.76000e+02	
0.10057   	4.50754e+00		         0.01500	2.80000e+02	
0.10968   	5.53110e+00		         0.01667	2.76000e+02	
0.11908   	5.92595e+00		         0.01833	2.64000e+02	
0.12816   	5.93835e+00		         0.02000	2.45000e+02	
0.13727   	5.88728e+00		         0.02167	2.18000e+02	
0.14637   	5.73307e+00		         0.02333	1.84000e+02	
0.15578   	5.53483e+00		         0.02500	1.45000e+02	
0.16505   	5.27968e+00		         0.02667	1.02000e+02	
0.17396   	5.11261e+00		         0.02833	5.70000e+01	
0.18306   	4.94430e+00		         0.03000	1.10000e+01	
0.19245   	4.79149e+00		         0.03167	-3.30000e+01	
0.20154   	4.76542e+00		         0.03333	-7.20000e+01	
0.21064   	4.74559e+00		         0.03500	-1.07000e+02	
0.21975   	4.72004e+00		         0.03667	-1.35000e+02	
0.22914   	4.48829e+00		         0.03833	-1.56000e+02	
0.23823   	4.28147e+00		         0.04000	-1.71000e+02	
0.24733   	4.00530e+00		         0.04167	-1.80000e+02	
0.25644   	3.83465e+00		         0.04333	-1.83000e+02	
0.26583   	3.67978e+00		         0.04500	-1.81000e+02	
0.27492   	3.58399e+00		         0.04667	-1.75000e+02	
0.28403   	3.34447e+00		         0.04833	-1.66000e+02	
0.29313   	3.07872e+00		         0.05000	-1.54000e+02	
0.30252   	2.87171e+00		         0.05167	-1.41000e+02	
0.31161   	2.69605e+00		         0.05333	-1.28000e+02	
0.32072   	2.43215e+00		         0.05500	-1.14000e+02	
0.32982   	2.22253e+00		         0.05667	-1.01000e+02	
0.33923   	1.88384e+00		         0.05833	-8.90000e+01	
0.34830   	1.55694e+00		         0.06000	-7.80000e+01	
0.35741   	1.06572e+00		         0.06167	-6.80000e+01	
0.36651   	4.88969e-01		         0.06333	-5.90000e+01	
0.37590   	-5.47978e-01		         0.06500	-5.10000e+01	
0.38499   	-1.66071e+00		         0.06667	-4.50000e+01	
0.39410   	-2.60557e+00		         0.06833	-4.00000e+01	
0.40320   	-2.17081e+00		         0.07000	-3.60000e+01	
0.41260   	-1.02681e+00		         0.07167	-3.30000e+01	
0.42168   	4.41448e-01		         0.07333	-3.10000e+01	
0.43079   	1.18705e+00		         0.07500	-2.90000e+01	
0.43989   	1.29087e+00		         0.07667	-2.70000e+01	
0.44928   	1.02737e+00		         0.07833	-2.60000e+01	
0.45837   	2.46645e-01		         0.08000	-2.50000e+01	
0.46748   	-4.90607e-01		         0.08167	-2.40000e+01	
0.47658   	-1.56223e+00		         0.08333	-2.30000e+01	
0.48598   	-2.47453e+00		         0.08500	-2.20000e+01	
0.49506   	-3.41640e+00		         0.08667	-2.10000e+01	
0.50417   	-3.98190e+00		         0.08833	-2.00000e+01	
0.51340   	-4.18684e+00		         0.09000	-2.00000e+01	
0.52266   	-4.07038e+00		         0.09167	-1.90000e+01	
0.53175   	-3.84186e+00		         0.09333	-1.80000e+01	
0.54086   	-3.71011e+00		         0.09500	-1.80000e+01	
0.54997   	-3.64064e+00		         0.09667	-1.80000e+01	
0.55936   	-3.56609e+00		         0.09833	-1.70000e+01	
0.56844   	-3.30321e+00		         0.10000	-1.70000e+01	
0.57755   	-3.01521e+00		         0.10167	-1.60000e+01	
0.58665   	-2.74362e+00		         0.10333	-1.60000e+01	
0.59604   	-2.56960e+00		         0.10500	-1.50000e+01	
0.60513   	-2.41948e+00		         0.10667	-1.50000e+01	
0.61424   	-2.27466e+00		         0.10833	-1.40000e+01	
0.62334   	-2.28303e+00		         0.11000	-1.40000e+01	
0.63273   	-2.75479e+00		         0.11167	-1.30000e+01	
0.64183   	-3.61745e+00		         0.11333	-1.30000e+01	
0.65093   	-4.91924e+00		         0.11500	-1.30000e+01	
0.66003   	-6.08234e+00		         0.11667	-1.20000e+01	
0.66944   	-6.95840e+00		         0.11833	-1.20000e+01	
0.67851   	-7.42255e+00		         0.12000	-1.20000e+01	
0.68762   	-7.74011e+00		         0.12167	-1.20000e+01	
0.69672   	-7.74522e+00		         0.12333	-1.20000e+01	
0.70613   	-7.28206e+00		         0.12500	-1.20000e+01	
0.71520   	-6.40614e+00		         0.12667	-1.20000e+01	
0.72431   	-5.56339e+00		         0.12833	-1.30000e+01	
0.73342   	-4.68448e+00		         0.13000	-1.30000e+01	
0.74281   	-3.89366e+00		         0.13167	-1.30000e+01	
0.75190   	-3.16851e+00		         0.13333	-1.30000e+01	
0.76100   	-2.57343e+00		         0.13500	-1.30000e+01	
0.77011   	-2.20394e+00		         0.13667	-1.30000e+01	
0.77951   	-2.14862e+00		         0.13833	-1.20000e+01	
0.78859   	-2.16537e+00		         0.14000	-1.20000e+01	
0.79769   	-1.67658e+00		         0.14167	-1.20000e+01	
0.80680   	-1.07489e+00		         0.14333	-1.10000e+01	
0.81619   	3.05017e-01		         0.14500	-1.00000e+01	
0.82528   	1.35381e+00		         0.14667	-1.00000e+01	
0.83438   	2.47685e+00		         0.14833	-9.00000e+00	
0.84348   	2.19148e+00		         0.15000	-8.00000e+00	
0.85289   	1.50017e+00		         0.15167	-7.00000e+00	
0.86203   	8.30957e-01		         0.15333	-7.00000e+00	
0.87107   	6.30852e-01		         0.15500	-6.00000e+00	
0.88018   	4.73025e-01		         0.15667	-6.00000e+00	
0.88956   	-7.47046e-01		         0.15833	-5.00000e+00	
0.89865   	-1.84943e+00		         0.16000	-5.00000e+00	
0.90776   	-2.26338e+00		         0.16167	-4.00000e+00	
0.91687   	-1.13548e+00		         0.16333	-4.00000e+00	
0.92626   	5.11529e-01		         0.16500	-4.00000e+00	
0.93535   	2.29844e+00		         0.16667	-3.00000e+00	
0.94445   	4.08925e+00		         0.16833	-3.00000e+00	
0.95356   	5.26193e+00		         0.17000	-3.00000e+00	
0.96294   	5.66106e+00		         0.17167	-2.00000e+00	
0.97204   	5.74025e+00		         0.17333	-2.00000e+00	
0.98114   	5.50946e+00		         0.17500	-1.00000e+00	
0.99025   	5.35908e+00		         0.17667	-1.00000e+00	
0.99963   	5.01458e+00		         0.17833	-1.00000e+00	
1.00873   	4.86652e+00		         0.18000	0.00000e+00	
1.01784   	4.74550e+00		         0.18167	0.00000e+00	
1.02694   	4.61585e+00		         0.18333	1.00000e+00	
1.03633   	4.67397e+00		         0.18500	2.00000e+00	
1.04542   	4.62617e+00		         0.18667	3.00000e+00	
1.05452   	4.62778e+00		         0.18833	4.00000e+00	
1.06363   	4.37617e+00		         0.19000	4.00000e+00	
1.07302   	4.21433e+00		         0.19167	5.00000e+00	
1.08211   	4.03445e+00		         0.19333	6.00000e+00	
1.09121   	3.80182e+00		         0.19500	7.00000e+00	
1.10032   	3.55124e+00		         0.19667	8.00000e+00	
1.10970   	3.26722e+00		         0.19833	9.00000e+00	
1.11880   	3.23748e+00		         0.20000	9.00000e+00	
1.12790   	3.12261e+00		         0.20167	1.00000e+01	
1.13701   	3.01314e+00		         0.20333	1.10000e+01	
1.14641   	2.74027e+00		         0.20500	1.10000e+01	
1.15549   	2.47933e+00		         0.20667	1.20000e+01	
1.16460   	2.20195e+00		         0.20833	1.20000e+01	
1.17370   	1.97771e+00		         0.21000	1.30000e+01	
1.18308   	1.75193e+00		         0.21167	1.40000e+01	
1.19218   	1.45169e+00		         0.21333	1.50000e+01	
1.20128   	1.11297e+00		         0.21500	1.60000e+01	
1.21039   	6.98986e-01		         0.21667	1.70000e+01	
1.21979   	-1.66671e-02		         0.21833	1.80000e+01	
1.22887   	-7.97403e-01		         0.22000	1.90000e+01	
1.23798   	-1.10947e+00		         0.22167	2.00000e+01	
1.24708   	-3.68141e-01		         0.22333	2.20000e+01	
1.25647   	6.87979e-01		         0.22500	2.30000e+01	
1.26556   	1.39844e+00		         0.22667	2.50000e+01	
1.27466   	1.49847e+00		         0.22833	2.80000e+01	
1.28377   	1.38616e+00		         0.23000	3.00000e+01	
1.29317   	1.11895e+00		         0.23167	3.20000e+01	
1.30225   	6.15184e-01		         0.23333	3.40000e+01	
1.31135   	-2.51910e-01		         0.23500	3.60000e+01	
1.32046   	-1.35121e+00		         0.23667	3.90000e+01	
1.32986   	-2.43077e+00		         0.23833	4.10000e+01	
1.33894   	-3.45472e+00		         0.24000	4.30000e+01	
1.34804   	-4.02116e+00		         0.24167	4.50000e+01	
1.35715   	-4.34875e+00		         0.24333	4.70000e+01	
1.36654   	-4.20788e+00		         0.24500	4.90000e+01	
1.37563   	-4.03427e+00		         0.24667	5.10000e+01	
1.38473   	-3.62730e+00		         0.24833	5.30000e+01	
1.39384   	-3.34727e+00		         0.25000	5.50000e+01	
1.40322   	-3.14197e+00		         0.25167	5.60000e+01	
1.41232   	-3.02457e+00		         0.25333	5.80000e+01	
1.42143   	-2.74904e+00		         0.25500	6.00000e+01	
1.43053   	-2.43213e+00		         0.25667	6.10000e+01	
1.43991   	-2.38181e+00		         0.25833	6.30000e+01	
1.44901   	-2.35856e+00		         0.26000	6.50000e+01	
1.45811   	-2.38899e+00		         0.26167	6.60000e+01	
1.46722   	-2.24270e+00		         0.26333	6.80000e+01	
1.47662   	-2.47938e+00		         0.26500	6.90000e+01	
1.48570   	-3.19616e+00		         0.26667	7.00000e+01	
1.49480   	-4.27490e+00		         0.26833	7.20000e+01	
1.50391   	-5.26929e+00		         0.27000	7.30000e+01	
1.51331   	-6.02637e+00		         0.27167	7.40000e+01	
1.52239   	-6.75521e+00		         0.27333	7.50000e+01	
1.53150   	-7.20348e+00		         0.27500	7.60000e+01	
1.54060   	-7.23687e+00		         0.27667	7.70000e+01	
1.54999   	-6.70644e+00		         0.27833	7.80000e+01	
1.55936   	-5.92711e+00		         0.28000	7.90000e+01	
1.56819   	-5.27233e+00		         0.28167	7.90000e+01	
1.57729   	-4.77121e+00		         0.28333	7.90000e+01	
1.58668   	-4.29091e+00		         0.28500	7.90000e+01	
1.59577   	-3.37042e+00		         0.28667	7.90000e+01	
1.60488   	-2.54731e+00		         0.28833	7.90000e+01	
1.61398   	-1.87923e+00		         0.29000	7.80000e+01	
1.62337   	-1.98770e+00		         0.29167	7.70000e+01	
1.63246   	-2.24367e+00		         0.29333	7.60000e+01	
1.64157   	-2.26177e+00		         0.29500	7.40000e+01	
1.65067   	-7.06104e-01		         0.29667	7.30000e+01	
1.66007   	1.09569e+00		         0.29833	7.10000e+01	
1.66915   	2.58362e+00		         0.30000	7.00000e+01	
1.67826   	2.60579e+00		         0.30167	6.80000e+01	
1.68736   	1.69439e+00		         0.30333	6.60000e+01	
1.69674   	6.82970e-01		         0.30500	6.50000e+01	
1.70584   	2.90824e-01		         0.30667	6.30000e+01	
1.71495   	3.21401e-01		         0.30833	6.20000e+01	
1.72405   	1.91385e-01		         0.31000	6.00000e+01	
1.73344   	-7.39078e-01		         0.31167	5.80000e+01	
1.74253   	-1.57269e+00		         0.31333	5.60000e+01	
1.75164   	-1.99313e+00		         0.31500	5.40000e+01	
1.76075   	-1.22535e+00		         0.31667	5.10000e+01	
1.77014   	5.96181e-01		         0.31833	4.80000e+01	
1.77922   	2.69750e+00		         0.32000	4.50000e+01	
1.78833   	4.30796e+00		         0.32167	4.10000e+01	
1.79743   	5.14715e+00		         0.32333	3.70000e+01	
1.80684   	5.41318e+00		         0.32500	3.30000e+01	
1.81592   	5.31996e+00		         0.32667	2.80000e+01	
1.82502   	5.07925e+00		         0.32833	2.30000e+01	
1.83412   	4.97716e+00		         0.33000	1.70000e+01	
1.84351   	4.73590e+00		         0.33167	1.20000e+01	
1.85260   	4.67874e+00		         0.33333	6.00000e+00	
1.86171   	4.45428e+00		         0.33500	1.00000e+00	
1.87081   	4.29966e+00		         0.33667	-5.00000e+00	
1.88020   	4.05842e+00		         0.33833	-1.00000e+01	
1.88929   	3.99847e+00		         0.34000	-1.50000e+01	
1.89840   	4.10718e+00		         0.34167	-2.00000e+01	
1.90750   	4.16834e+00		         0.34333	-2.50000e+01	
1.91690   	3.99768e+00		         0.34500	-3.00000e+01	
1.92598   	3.81788e+00		         0.34667	-3.40000e+01	
1.93509   	3.75098e+00		         0.34833	-3.80000e+01	
1.94419   	3.72551e+00		         0.35000	-4.20000e+01	
1.95359   	3.52924e+00		         0.35167	-4.60000e+01	
1.96267   	3.31202e+00		         0.35333	-5.00000e+01	
1.97178   	3.08200e+00		         0.35500	-5.30000e+01	
1.98089   	2.93202e+00		         0.35667	-5.60000e+01	
1.99028   	2.68767e+00		         0.35833	-5.80000e+01	
1.99936   	2.42078e+00		         0.36000	-6.10000e+01	
2.00847   	2.10752e+00		         0.36167	-6.30000e+01	
2.01758   	1.80647e+00		         0.36333	-6.50000e+01	
2.02698   	1.57461e+00		         0.36500	-6.70000e+01	
2.03606   	1.39779e+00		         0.36667	-6.80000e+01	
2.04516   	1.12834e+00		         0.36833	-7.00000e+01	
2.05427   	6.35378e-01		         0.37000	-7.10000e+01	
2.06366   	-1.13732e-01		         0.37167	-7.20000e+01	
2.07275   	-9.43728e-01		         0.37333	-7.30000e+01	
2.08185   	-1.30706e+00		         0.37500	-7.30000e+01	
2.09095   	-7.02368e-01		         0.37667	-7.40000e+01	
2.10035   	1.38765e-01		         0.37833	-7.40000e+01	
2.10943   	8.58829e-01		         0.38000	-7.40000e+01	
2.11854   	1.08688e+00		         0.38167	-7.30000e+01	
2.12765   	1.37923e+00		         0.38333	-7.30000e+01	
2.13704   	1.50787e+00		         0.38500	-7.20000e+01	
2.14613   	1.26050e+00		         0.38667	-7.20000e+01	
2.15523   	6.00990e-01		         0.38833	-7.10000e+01	
2.16434   	-4.07839e-01		         0.39000	-7.10000e+01	
2.17374   	-1.46599e+00		         0.39167	-7.00000e+01	
2.18282   	-2.45731e+00		         0.39333	-6.90000e+01	
2.19192   	-3.16705e+00		         0.39500	-6.90000e+01	
2.20103   	-3.66311e+00		         0.39667	-6.80000e+01	
2.21042   	-3.85389e+00		         0.39833	-6.80000e+01	
2.21951   	-3.76058e+00		         0.40000	-6.70000e+01	
2.22861   	-3.61281e+00		         0.40167	-6.70000e+01	
2.23772   	-3.39002e+00		         0.40333	-6.70000e+01	
2.24710   	-3.17777e+00		         0.40500	-6.60000e+01	
2.25620   	-2.90989e+00		         0.40667	-6.60000e+01	
2.26530   	-2.72344e+00		         0.40833	-6.50000e+01	
2.27441   	-2.59621e+00		         0.41000	-6.40000e+01	
2.28379   	-2.46092e+00		         0.41167	-6.30000e+01	
2.29289   	-2.37389e+00		         0.41333	-6.10000e+01	
2.30199   	-2.44359e+00		         0.41500	-6.00000e+01	
2.31110   	-2.82160e+00		         0.41667	-5.80000e+01	
2.32049   	-3.56762e+00		         0.41833	-5.70000e+01	
2.32958   	-4.53911e+00		         0.42000	-5.50000e+01	
2.33868   	-5.78120e+00		         0.42167	-5.40000e+01	
2.34779   	-6.93306e+00		         0.42333	-5.20000e+01	
2.35718   	-7.85149e+00		         0.42500	-5.00000e+01	
2.36627   	-8.31085e+00		         0.42667	-4.90000e+01	
2.37537   	-8.28018e+00		         0.42833	-4.70000e+01	
2.38448   	-7.83731e+00		         0.43000	-4.60000e+01	
2.39388   	-6.92302e+00		         0.43167	-4.40000e+01	
2.40296   	-5.98098e+00		         0.43333	-4.30000e+01	
2.41206   	-5.15148e+00		         0.43500	-4.20000e+01	
2.42117   	-4.35016e+00		         0.43667	-4.10000e+01	
2.43055   	-3.52602e+00		         0.43833	-3.90000e+01	
2.43965   	-2.85820e+00		         0.44000	-3.80000e+01	
2.44875   	-2.30137e+00		         0.44167	-3.70000e+01	
2.45786   	-2.19109e+00		         0.44333	-3.70000e+01	
2.46726   	-2.13880e+00		         0.44500	-3.60000e+01	
2.47634   	-2.17206e+00		         0.44667	-3.50000e+01	
2.48544   	-1.43155e+00		         0.44833	-3.40000e+01	
2.49455   	-2.56762e-02		         0.45000	-3.30000e+01	
2.50395   	1.34673e+00		         0.45167	-3.30000e+01	
2.51303   	1.98340e+00		         0.45333	-3.20000e+01	
2.52242   	1.64396e+00		         0.45500	-3.10000e+01	
2.53124   	1.10866e+00		         0.45667	-3.10000e+01	
2.54064   	8.88114e-01		         0.45833	-3.00000e+01	
2.54972   	9.50514e-01		         0.46000	-2.90000e+01	
2.55882   	1.04327e+00		         0.46167	-2.80000e+01	
			         0.46333	-2.70000e+01	
			         0.46500	-2.60000e+01	
			         0.46667	-2.50000e+01	
			         0.46833	-2.40000e+01	
			         0.47000	-2.40000e+01	
			         0.47167	-2.30000e+01	
			         0.47333	-2.20000e+01	
			         0.47500	-2.10000e+01	
			         0.47667	-2.10000e+01	
			         0.47833	-2.00000e+01	
			         0.48000	-2.00000e+01	
			         0.48167	-1.90000e+01	
			         0.48333	-1.90000e+01	
			         0.48500	-1.90000e+01	
			         0.48667	-1.80000e+01	
			         0.48833	-1.80000e+01	
			         0.49000	-1.70000e+01	
			         0.49167	-1.70000e+01	
			         0.49333	-1.60000e+01	
			         0.49500	-1.60000e+01	
			         0.49667	-1.50000e+01	
			         0.49833	-1.40000e+01	
			         0.50000	-1.40000e+01	
			         0.50167	-1.30000e+01	
			         0.50333	-1.30000e+01	
			         0.50500	-1.20000e+01	
			         0.50667	-1.20000e+01	
			         0.50833	-1.20000e+01	
			         0.51000	-1.20000e+01	
			         0.51167	-1.10000e+01	
			         0.51333	-1.10000e+01	
			         0.51500	-1.10000e+01	
			         0.51667	-1.10000e+01	
			         0.51833	-1.10000e+01	
			         0.52000	-1.20000e+01	
			         0.52167	-1.20000e+01	
			         0.52333	-1.20000e+01	
			         0.52500	-1.20000e+01	
			         0.52667	-1.20000e+01	
			         0.52833	-1.20000e+01	
			         0.53000	-1.20000e+01	
			         0.53167	-1.20000e+01	
			         0.53333	-1.20000e+01	
			         0.53500	-1.20000e+01	
			         0.53667	-1.30000e+01	
			         0.53833	-1.30000e+01	
			         0.54000	-1.30000e+01	
			         0.54167	-1.30000e+01	
			         0.54333	-1.30000e+01	
			         0.54500	-1.30000e+01	
			         0.54667	-1.30000e+01	
			         0.54833	-1.30000e+01	
			         0.55000	-1.30000e+01	
			         0.55167	-1.30000e+01	
			         0.55333	-1.30000e+01	
			         0.55500	-1.30000e+01	
			         0.55667	-1.30000e+01	
			         0.55833	-1.30000e+01	
			         0.56000	-1.30000e+01	
			         0.56167	-1.30000e+01	
			         0.56333	-1.30000e+01	
			         0.56500	-1.30000e+01	
			         0.56667	-1.30000e+01	
			         0.56833	-1.30000e+01	
			         0.57000	-1.30000e+01	
			         0.57167	-1.30000e+01	
			         0.57333	-1.30000e+01	
			         0.57500	-1.20000e+01	
			         0.57667	-1.10000e+01	
			         0.57833	-1.00000e+01	
			         0.58000	-9.00000e+00	
			         0.58167	-7.00000e+00	
			         0.58333	-4.00000e+00	
			         0.58500	-2.00000e+00	
			         0.58667	1.00000e+00	
			         0.58833	4.00000e+00	
			         0.59000	7.00000e+00	
			         0.59167	1.00000e+01	
			         0.59333	1.20000e+01	
			         0.59500	1.50000e+01	
			         0.59667	1.80000e+01	
			         0.59833	2.00000e+01	
			         0.60000	2.20000e+01	
			         0.60167	2.30000e+01	
			         0.60333	2.30000e+01	
			         0.60500	2.40000e+01	
			         0.60667	2.30000e+01	
			         0.60833	2.20000e+01	
			         0.61000	2.00000e+01	
			         0.61167	1.80000e+01	
			         0.61333	1.50000e+01	
			         0.61500	1.20000e+01	
			         0.61667	9.00000e+00	
			         0.61833	5.00000e+00	
			         0.62000	1.00000e+00	
			         0.62167	-3.00000e+00	
			         0.62333	-7.00000e+00	
			         0.62500	-1.10000e+01	
			         0.62667	-1.50000e+01	
			         0.62833	-1.90000e+01	
			         0.63000	-2.30000e+01	
			         0.63167	-2.60000e+01	
			         0.63333	-2.90000e+01	
			         0.63500	-3.10000e+01	
			         0.63667	-3.40000e+01	
			         0.63833	-3.60000e+01	
			         0.64000	-3.70000e+01	
			         0.64167	-3.80000e+01	
			         0.64333	-3.90000e+01	
			         0.64500	-3.90000e+01	
			         0.64667	-3.90000e+01	
			         0.64833	-3.90000e+01	
			         0.65000	-3.90000e+01	
			         0.65167	-3.80000e+01	
			         0.65333	-3.70000e+01	
			         0.65500	-3.70000e+01	
			         0.65667	-3.60000e+01	
			         0.65833	-3.50000e+01	
			         0.66000	-3.40000e+01	
			         0.66167	-3.40000e+01	
			         0.66333	-3.30000e+01	
			         0.66500	-3.20000e+01	
			         0.66667	-3.10000e+01	
			         0.66833	-3.00000e+01	
			         0.67000	-2.90000e+01	
			         0.67167	-2.80000e+01	
			         0.67333	-2.70000e+01	
			         0.67500	-2.70000e+01	
			         0.67667	-2.60000e+01	
			         0.67833	-2.60000e+01	
			         0.68000	-2.60000e+01	
			         0.68167	-2.70000e+01	
			         0.68333	-2.80000e+01	
			         0.68500	-2.80000e+01	
			         0.68667	-2.90000e+01	
			         0.68833	-3.00000e+01	
			         0.69000	-3.10000e+01	
			         0.69167	-3.20000e+01	
			         0.69333	-3.30000e+01	
			         0.69500	-3.30000e+01	
			         0.69667	-3.40000e+01	
			         0.69833	-3.40000e+01	
			         0.70000	-3.40000e+01	
			         0.70167	-3.40000e+01	
			         0.70333	-3.40000e+01	
			         0.70500	-3.40000e+01	
			         0.70667	-3.30000e+01	
			         0.70833	-3.30000e+01	
			         0.71000	-3.20000e+01	
			         0.71167	-3.20000e+01	
			         0.71333	-3.10000e+01	
			         0.71500	-3.00000e+01	
			         0.71667	-2.90000e+01	
			         0.71833	-2.70000e+01	
			         0.72000	-2.60000e+01	
			         0.72167	-2.40000e+01	
			         0.72333	-2.20000e+01	
			         0.72500	-2.00000e+01	
			         0.72667	-1.90000e+01	
			         0.72833	-1.70000e+01	
			         0.73000	-1.60000e+01	
			         0.73167	-1.40000e+01	
			         0.73333	-1.30000e+01	
			         0.73500	-1.20000e+01	
			         0.73667	-1.10000e+01	
			         0.73833	-1.00000e+01	
			         0.74000	-9.00000e+00	
			         0.74167	-9.00000e+00	
			         0.74333	-9.00000e+00	
			         0.74500	-8.00000e+00	
			         0.74667	-8.00000e+00	
			         0.74833	-8.00000e+00	
			         0.75000	-8.00000e+00	
			         0.75167	-8.00000e+00	
			         0.75333	-7.00000e+00	
			         0.75500	-7.00000e+00	
			         0.75667	-7.00000e+00	
			         0.75833	-7.00000e+00	
			         0.76000	-6.00000e+00	
			         0.76167	-6.00000e+00	
			         0.76333	-5.00000e+00	
			         0.76500	-5.00000e+00	
			         0.76667	-4.00000e+00	
			         0.76833	-3.00000e+00	
			         0.77000	-3.00000e+00	
			         0.77167	-2.00000e+00	
			         0.77333	-2.00000e+00	
			         0.77500	-1.00000e+00	
			         0.77667	-1.00000e+00	
			         0.77833	0.00000e+00	
			         0.78000	0.00000e+00	
			         0.78167	1.00000e+00	
			         0.78333	1.00000e+00	
			         0.78500	1.00000e+00	
			         0.78667	1.00000e+00	
			         0.78833	1.00000e+00	
			         0.79000	1.00000e+00	
			         0.79167	1.00000e+00	
			         0.79333	1.00000e+00	
			         0.79500	2.00000e+00	
			         0.79667	2.00000e+00	
			         0.79833	2.00000e+00	
			         0.80000	2.00000e+00	
			         0.80167	3.00000e+00	
			         0.80333	3.00000e+00	
			         0.80500	4.00000e+00	
			         0.80667	4.00000e+00	
			         0.80833	5.00000e+00	
			         0.81000	6.00000e+00	
			         0.81167	7.00000e+00	
			         0.81333	7.00000e+00	
			         0.81500	8.00000e+00	
			         0.81667	9.00000e+00	
			         0.81833	1.10000e+01	
			         0.82000	1.20000e+01	
			         0.82167	1.30000e+01	
			         0.82333	1.50000e+01	
			         0.82500	1.70000e+01	
			         0.82667	2.00000e+01	
			         0.82833	2.30000e+01	
			         0.83000	2.70000e+01	
			         0.83167	3.20000e+01	
			         0.83333	3.80000e+01	
			         0.83500	4.60000e+01	
			         0.83667	5.50000e+01	
			         0.83833	6.70000e+01	
			         0.84000	8.10000e+01	
			         0.84167	9.80000e+01	
			         0.84333	1.16000e+02	
			         0.84500	1.37000e+02	
			         0.84667	1.60000e+02	
			         0.84833	1.84000e+02	
			         0.85000	2.08000e+02	
			         0.85167	2.31000e+02	
			         0.85333	2.52000e+02	
			         0.85500	2.69000e+02	
			         0.85667	2.79000e+02	
			         0.85833	2.83000e+02	
			         0.86000	2.79000e+02	
			         0.86167	2.66000e+02	
			         0.86333	2.46000e+02	
			         0.86500	2.19000e+02	
			         0.86667	1.85000e+02	
			         0.86833	1.45000e+02	
			         0.87000	1.02000e+02	
			         0.87167	5.70000e+01	
			         0.87333	1.20000e+01	
			         0.87500	-3.10000e+01	
			         0.87667	-7.10000e+01	
			         0.87833	-1.05000e+02	
			         0.88000	-1.33000e+02	
			         0.88167	-1.54000e+02	
			         0.88333	-1.69000e+02	
			         0.88500	-1.77000e+02	
			         0.88667	-1.80000e+02	
			         0.88833	-1.78000e+02	
			         0.89000	-1.72000e+02	
			         0.89167	-1.63000e+02	
			         0.89333	-1.51000e+02	
			         0.89500	-1.38000e+02	
			         0.89667	-1.25000e+02	
			         0.89833	-1.11000e+02	
			         0.90000	-9.80000e+01	
			         0.90167	-8.50000e+01	
			         0.90333	-7.40000e+01	
			         0.90500	-6.40000e+01	
			         0.90667	-5.50000e+01	
			         0.90833	-4.80000e+01	
			         0.91000	-4.20000e+01	
			         0.91167	-3.80000e+01	
			         0.91333	-3.40000e+01	
			         0.91500	-3.10000e+01	
			         0.91667	-3.00000e+01	
			         0.91833	-2.80000e+01	
			         0.92000	-2.70000e+01	
			         0.92167	-2.70000e+01	
			         0.92333	-2.60000e+01	
			         0.92500	-2.60000e+01	
			         0.92667	-2.60000e+01	
			         0.92833	-2.50000e+01	
			         0.93000	-2.50000e+01	
			         0.93167	-2.40000e+01	
			         0.93333	-2.30000e+01	
			         0.93500	-2.20000e+01	
			         0.93667	-2.10000e+01	
			         0.93833	-2.00000e+01	
			         0.94000	-1.90000e+01	
			         0.94167	-1.70000e+01	
			         0.94333	-1.60000e+01	
			         0.94500	-1.50000e+01	
			         0.94667	-1.40000e+01	
			         0.94833	-1.30000e+01	
			         0.95000	-1.30000e+01	
			         0.95167	-1.20000e+01	
			         0.95333	-1.20000e+01	
			         0.95500	-1.20000e+01	
			         0.95667	-1.10000e+01	
			         0.95833	-1.10000e+01	
			         0.96000	-1.10000e+01	
			         0.96167	-1.10000e+01	
			         0.96333	-1.10000e+01	
			         0.96500	-1.10000e+01	
			         0.96667	-1.00000e+01	
			         0.96833	-1.00000e+01	
			         0.97000	-1.00000e+01	
			         0.97167	-1.00000e+01	
			         0.97333	-1.00000e+01	
			         0.97500	-1.00000e+01	
			         0.97667	-9.00000e+00	
			         0.97833	-9.00000e+00	
			         0.98000	-8.00000e+00	
			         0.98167	-8.00000e+00	
			         0.98333	-7.00000e+00	
			         0.98500	-7.00000e+00	
			         0.98667	-6.00000e+00	
			         0.98833	-5.00000e+00	
			         0.99000	-4.00000e+00	
			         0.99167	-4.00000e+00	
			         0.99333	-3.00000e+00	
			         0.99500	-2.00000e+00	
			         0.99667	-2.00000e+00	
			         0.99833	-1.00000e+00	
			         1.00000	-1.00000e+00	
			         1.00167	-1.00000e+00	
			         1.00333	-1.00000e+00	
			         1.00500	-1.00000e+00	
			         1.00667	-1.00000e+00	
			         1.00833	-1.00000e+00	
			         1.01000	-1.00000e+00	
			         1.01167	-2.00000e+00	
			         1.01333	-2.00000e+00	
			         1.01500	-2.00000e+00	
			         1.01667	-2.00000e+00	
			         1.01833	-2.00000e+00	
			         1.02000	-2.00000e+00	
			         1.02167	-2.00000e+00	
			         1.02333	-2.00000e+00	
			         1.02500	-1.00000e+00	
			         1.02667	0.00000e+00	
			         1.02833	0.00000e+00	
			         1.03000	1.00000e+00	
			         1.03167	2.00000e+00	
			         1.03333	3.00000e+00	
			         1.03500	4.00000e+00	
			         1.03667	6.00000e+00	
			         1.03833	7.00000e+00	
			         1.04000	8.00000e+00	
			         1.04167	9.00000e+00	
			         1.04333	1.00000e+01	
			         1.04500	1.20000e+01	
			         1.04667	1.30000e+01	
			         1.04833	1.40000e+01	
			         1.05000	1.50000e+01	
			         1.05167	1.60000e+01	
			         1.05333	1.80000e+01	
			         1.05500	1.90000e+01	
			         1.05667	2.00000e+01	
			         1.05833	2.20000e+01	
			         1.06000	2.30000e+01	
			         1.06167	2.40000e+01	
			         1.06333	2.50000e+01	
			         1.06500	2.60000e+01	
			         1.06667	2.70000e+01	
			         1.06833	2.90000e+01	
			         1.07000	3.00000e+01	
			         1.07167	3.10000e+01	
			         1.07333	3.20000e+01	
			         1.07500	3.40000e+01	
			         1.07667	3.50000e+01	
			         1.07833	3.70000e+01	
			         1.08000	3.90000e+01	
			         1.08167	4.10000e+01	
			         1.08333	4.30000e+01	
			         1.08500	4.50000e+01	
			         1.08667	4.70000e+01	
			         1.08833	4.90000e+01	
			         1.09000	5.10000e+01	
			         1.09167	5.40000e+01	
			         1.09333	5.60000e+01	
			         1.09500	5.80000e+01	
			         1.09667	6.00000e+01	
			         1.09833	6.20000e+01	
			         1.10000	6.30000e+01	
			         1.10167	6.50000e+01	
			         1.10333	6.60000e+01	
			         1.10500	6.80000e+01	
			         1.10667	6.90000e+01	
			         1.10833	7.00000e+01	
			         1.11000	7.10000e+01	
			         1.11167	7.20000e+01	
			         1.11333	7.20000e+01	
			         1.11500	7.30000e+01	
			         1.11667	7.40000e+01	
			         1.11833	7.50000e+01	
			         1.12000	7.50000e+01	
			         1.12167	7.50000e+01	
			         1.12333	7.60000e+01	
			         1.12500	7.60000e+01	
			         1.12667	7.60000e+01	
			         1.12833	7.60000e+01	
			         1.13000	7.60000e+01	
			         1.13167	7.60000e+01	
			         1.13333	7.60000e+01	
			         1.13500	7.50000e+01	
			         1.13667	7.50000e+01	
			         1.13833	7.40000e+01	
			         1.14000	7.30000e+01	
			         1.14167	7.20000e+01	
			         1.14333	7.10000e+01	
			         1.14500	6.90000e+01	
			         1.14667	6.80000e+01	
			         1.14833	6.60000e+01	
			         1.15000	6.40000e+01	
			         1.15167	6.20000e+01	
			         1.15333	5.90000e+01	
			         1.15500	5.70000e+01	
			         1.15667	5.40000e+01	
			         1.15833	5.10000e+01	
			         1.16000	4.80000e+01	
			         1.16167	4.40000e+01	
			         1.16333	4.10000e+01	
			         1.16500	3.70000e+01	
			         1.16667	3.30000e+01	
			         1.16833	2.90000e+01	
			         1.17000	2.50000e+01	
			         1.17167	2.10000e+01	
			         1.17333	1.70000e+01	
			         1.17500	1.30000e+01	
			         1.17667	9.00000e+00	
			         1.17833	5.00000e+00	
			         1.18000	1.00000e+00	
			         1.18167	-3.00000e+00	
			         1.18333	-8.00000e+00	
			         1.18500	-1.20000e+01	
			         1.18667	-1.60000e+01	
			         1.18833	-2.10000e+01	
			         1.19000	-2.50000e+01	
			         1.19167	-2.90000e+01	
			         1.19333	-3.40000e+01	
			         1.19500	-3.80000e+01	
			         1.19667	-4.20000e+01	
			         1.19833	-4.50000e+01	
			         1.20000	-4.80000e+01	
			         1.20167	-5.10000e+01	
			         1.20333	-5.30000e+01	
			         1.20500	-5.50000e+01	
			         1.20667	-5.60000e+01	
			         1.20833	-5.60000e+01	
			         1.21000	-5.60000e+01	
			         1.21167	-5.50000e+01	
			         1.21333	-5.50000e+01	
			         1.21500	-5.40000e+01	
			         1.21667	-5.40000e+01	
			         1.21833	-5.30000e+01	
			         1.22000	-5.30000e+01	
			         1.22167	-5.40000e+01	
			         1.22333	-5.50000e+01	
			         1.22500	-5.60000e+01	
			         1.22667	-5.80000e+01	
			         1.22833	-6.10000e+01	
			         1.23000	-6.30000e+01	
			         1.23167	-6.60000e+01	
			         1.23333	-6.90000e+01	
			         1.23500	-7.10000e+01	
			         1.23667	-7.40000e+01	
			         1.23833	-7.50000e+01	
			         1.24000	-7.60000e+01	
			         1.24167	-7.70000e+01	
			         1.24333	-7.70000e+01	
			         1.24500	-7.70000e+01	
			         1.24667	-7.60000e+01	
			         1.24833	-7.40000e+01	
			         1.25000	-7.30000e+01	
			         1.25167	-7.10000e+01	
			         1.25333	-6.90000e+01	
			         1.25500	-6.60000e+01	
			         1.25667	-6.40000e+01	
			         1.25833	-6.20000e+01	
			         1.26000	-6.00000e+01	
			         1.26167	-5.80000e+01	
			         1.26333	-5.60000e+01	
			         1.26500	-5.40000e+01	
			         1.26667	-5.20000e+01	
			         1.26833	-5.00000e+01	
			         1.27000	-4.80000e+01	
			         1.27167	-4.70000e+01	
			         1.27333	-4.50000e+01	
			         1.27500	-4.40000e+01	
			         1.27667	-4.30000e+01	
			         1.27833	-4.20000e+01	
			         1.28000	-4.10000e+01	
			         1.28167	-4.00000e+01	
			         1.28333	-3.90000e+01	
			         1.28500	-3.80000e+01	
			         1.28667	-3.70000e+01	
			         1.28833	-3.60000e+01	
			         1.29000	-3.50000e+01	
			         1.29167	-3.40000e+01	
			         1.29333	-3.30000e+01	
			         1.29500	-3.20000e+01	
			         1.29667	-3.10000e+01	
			         1.29833	-3.00000e+01	
			         1.30000	-2.80000e+01	
			         1.30167	-2.70000e+01	
			         1.30333	-2.60000e+01	
			         1.30500	-2.40000e+01	
			         1.30667	-2.30000e+01	
			         1.30833	-2.20000e+01	
			         1.31000	-2.10000e+01	
			         1.31167	-2.00000e+01	
			         1.31333	-1.90000e+01	
			         1.31500	-1.80000e+01	
			         1.31667	-1.80000e+01	
			         1.31833	-1.70000e+01	
			         1.32000	-1.70000e+01	
			         1.32167	-1.70000e+01	
			         1.32333	-1.70000e+01	
			         1.32500	-1.70000e+01	
			         1.32667	-1.70000e+01	
			         1.32833	-1.70000e+01	
			         1.33000	-1.70000e+01	
			         1.33167	-1.70000e+01	
			         1.33333	-1.60000e+01	
			         1.33500	-1.60000e+01	
			         1.33667	-1.50000e+01	
			         1.33833	-1.50000e+01	
			         1.34000	-1.40000e+01	
			         1.34167	-1.30000e+01	
			         1.34333	-1.20000e+01	
			         1.34500	-1.10000e+01	
			         1.34667	-1.00000e+01	
			         1.34833	-9.00000e+00	
			         1.35000	-8.00000e+00	
			         1.35167	-7.00000e+00	
			         1.35333	-7.00000e+00	
			         1.35500	-7.00000e+00	
			         1.35667	-7.00000e+00	
			         1.35833	-7.00000e+00	
			         1.36000	-7.00000e+00	
			         1.36167	-8.00000e+00	
			         1.36333	-8.00000e+00	
			         1.36500	-9.00000e+00	
			         1.36667	-9.00000e+00	
			         1.36833	-9.00000e+00	
			         1.37000	-1.00000e+01	
			         1.37167	-1.00000e+01	
			         1.37333	-1.00000e+01	
			         1.37500	-1.00000e+01	
			         1.37667	-1.00000e+01	
			         1.37833	-1.00000e+01	
			         1.38000	-1.00000e+01	
			         1.38167	-1.00000e+01	
			         1.38333	-1.00000e+01	
			         1.38500	-1.00000e+01	
			         1.38667	-1.00000e+01	
			         1.38833	-9.00000e+00	
			         1.39000	-9.00000e+00	
			         1.39167	-9.00000e+00	
			         1.39333	-9.00000e+00	
			         1.39500	-9.00000e+00	
			         1.39667	-1.00000e+01	
			         1.39833	-1.00000e+01	
			         1.40000	-1.00000e+01	
			         1.40167	-1.10000e+01	
			         1.40333	-1.20000e+01	
			         1.40500	-1.20000e+01	
			         1.40667	-1.30000e+01	
			         1.40833	-1.40000e+01	
			         1.41000	-1.40000e+01	
			         1.41167	-1.50000e+01	
			         1.41333	-1.50000e+01	
			         1.41500	-1.40000e+01	
			         1.41667	-1.40000e+01	
			         1.41833	-1.30000e+01	
			         1.42000	-1.20000e+01	
			         1.42167	-1.00000e+01	
			         1.42333	-7.00000e+00	
			         1.42500	-5.00000e+00	
			         1.42667	-2.00000e+00	
			         1.42833	2.00000e+00	
			         1.43000	5.00000e+00	
			         1.43167	9.00000e+00	
			         1.43333	1.20000e+01	
			         1.43500	1.50000e+01	
			         1.43667	1.80000e+01	
			         1.43833	2.10000e+01	
			         1.44000	2.30000e+01	
			         1.44167	2.50000e+01	
			         1.44333	2.60000e+01	
			         1.44500	2.70000e+01	
			         1.44667	2.70000e+01	
			         1.44833	2.70000e+01	
			         1.45000	2.50000e+01	
			         1.45167	2.30000e+01	
			         1.45333	2.10000e+01	
			         1.45500	1.80000e+01	
			         1.45667	1.50000e+01	
			         1.45833	1.20000e+01	
			         1.46000	8.00000e+00	
			         1.46167	4.00000e+00	
			         1.46333	1.00000e+00	
			         1.46500	-2.00000e+00	
			         1.46667	-6.00000e+00	
			         1.46833	-9.00000e+00	
			         1.47000	-1.10000e+01	
			         1.47167	-1.40000e+01	
			         1.47333	-1.60000e+01	
			         1.47500	-1.80000e+01	
			         1.47667	-1.90000e+01	
			         1.47833	-2.10000e+01	
			         1.48000	-2.30000e+01	
			         1.48167	-2.40000e+01	
			         1.48333	-2.60000e+01	
			         1.48500	-2.70000e+01	
			         1.48667	-2.90000e+01	
			         1.48833	-3.10000e+01	
			         1.49000	-3.30000e+01	
			         1.49167	-3.40000e+01	
			         1.49333	-3.60000e+01	
			         1.49500	-3.70000e+01	
			         1.49667	-3.80000e+01	
			         1.49833	-3.90000e+01	
			         1.50000	-4.00000e+01	
			         1.50167	-4.00000e+01	
			         1.50333	-4.00000e+01	
			         1.50500	-4.00000e+01	
			         1.50667	-3.90000e+01	
			         1.50833	-3.80000e+01	
			         1.51000	-3.70000e+01	
			         1.51167	-3.50000e+01	
			         1.51333	-3.40000e+01	
			         1.51500	-3.20000e+01	
			         1.51667	-3.10000e+01	
			         1.51833	-3.00000e+01	
			         1.52000	-2.90000e+01	
			         1.52167	-2.90000e+01	
			         1.52333	-2.90000e+01	
			         1.52500	-2.90000e+01	
			         1.52667	-3.00000e+01	
			         1.52833	-3.10000e+01	
			         1.53000	-3.20000e+01	
			         1.53167	-3.40000e+01	
			         1.53333	-3.50000e+01	
			         1.53500	-3.60000e+01	
			         1.53667	-3.70000e+01	
			         1.53833	-3.80000e+01	
			         1.54000	-3.80000e+01	
			         1.54167	-3.80000e+01	
			         1.54333	-3.70000e+01	
			         1.54500	-3.70000e+01	
			         1.54667	-3.60000e+01	
			         1.54833	-3.40000e+01	
			         1.55000	-3.30000e+01	
			         1.55167	-3.10000e+01	
			         1.55333	-3.00000e+01	
			         1.55500	-2.80000e+01	
			         1.55667	-2.70000e+01	
			         1.55833	-2.60000e+01	
			         1.56000	-2.50000e+01	
			         1.56167	-2.40000e+01	
			         1.56333	-2.30000e+01	
			         1.56500	-2.20000e+01	
			         1.56667	-2.10000e+01	
			         1.56833	-2.10000e+01	
			         1.57000	-2.00000e+01	
			         1.57167	-2.00000e+01	
			         1.57333	-1.90000e+01	
			         1.57500	-1.90000e+01	
			         1.57667	-1.80000e+01	
			         1.57833	-1.80000e+01	
			         1.58000	-1.80000e+01	
			         1.58167	-1.80000e+01	
			         1.58333	-1.70000e+01	
			         1.58500	-1.70000e+01	
			         1.58667	-1.60000e+01	
			         1.58833	-1.60000e+01	
			         1.59000	-1.50000e+01	
			         1.59167	-1.50000e+01	
			         1.59333	-1.40000e+01	
			         1.59500	-1.40000e+01	
			         1.59667	-1.30000e+01	
			         1.59833	-1.20000e+01	
			         1.60000	-1.20000e+01	
			         1.60167	-1.10000e+01	
			         1.60333	-1.00000e+01	
			         1.60500	-1.00000e+01	
			         1.60667	-9.00000e+00	
			         1.60833	-8.00000e+00	
			         1.61000	-8.00000e+00	
			         1.61167	-7.00000e+00	
			         1.61333	-6.00000e+00	
			         1.61500	-5.00000e+00	
			         1.61667	-5.00000e+00	
			         1.61833	-4.00000e+00	
			         1.62000	-3.00000e+00	
			         1.62167	-2.00000e+00	
			         1.62333	-2.00000e+00	
			         1.62500	-1.00000e+00	
			         1.62667	-1.00000e+00	
			         1.62833	0.00000e+00	
			         1.63000	0.00000e+00	
			         1.63167	0.00000e+00	
			         1.63333	-1.00000e+00	
			         1.63500	-1.00000e+00	
			         1.63667	-1.00000e+00	
			         1.63833	-1.00000e+00	
			         1.64000	-2.00000e+00	
			         1.64167	-2.00000e+00	
			         1.64333	-2.00000e+00	
			         1.64500	-2.00000e+00	
			         1.64667	-2.00000e+00	
			         1.64833	-2.00000e+00	
			         1.65000	-2.00000e+00	
			         1.65167	-1.00000e+00	
			         1.65333	0.00000e+00	
			         1.65500	0.00000e+00	
			         1.65667	1.00000e+00	
			         1.65833	2.00000e+00	
			         1.66000	3.00000e+00	
			         1.66167	4.00000e+00	
			         1.66333	6.00000e+00	
			         1.66500	7.00000e+00	
			         1.66667	9.00000e+00	
			         1.66833	1.10000e+01	
			         1.67000	1.40000e+01	
			         1.67167	1.80000e+01	
			         1.67333	2.30000e+01	
			         1.67500	2.90000e+01	
			         1.67667	3.80000e+01	
			         1.67833	4.80000e+01	
			         1.68000	6.10000e+01	
			         1.68167	7.60000e+01	
			         1.68333	9.30000e+01	
			         1.68500	1.13000e+02	
			         1.68667	1.35000e+02	
			         1.68833	1.59000e+02	
			         1.69000	1.85000e+02	
			         1.69167	2.10000e+02	
			         1.69333	2.35000e+02	
			         1.69500	2.57000e+02	
			         1.69667	2.76000e+02	
			         1.69833	2.88000e+02	
			         1.70000	2.94000e+02	
			         1.70167	2.92000e+02	
			         1.70333	2.82000e+02	
			         1.70500	2.63000e+02	
			         1.70667	2.37000e+02	
			         1.70833	2.04000e+02	
			         1.71000	1.65000e+02	
			         1.71167	1.22000e+02	
			         1.71333	7.70000e+01	
			         1.71500	3.10000e+01	
			         1.71667	-1.40000e+01	
			         1.71833	-5.50000e+01	
			         1.72000	-9.20000e+01	
			         1.72167	-1.23000e+02	
			         1.72333	-1.47000e+02	
			         1.72500	-1.64000e+02	
			         1.72667	-1.75000e+02	
			         1.72833	-1.81000e+02	
			         1.73000	-1.82000e+02	
			         1.73167	-1.78000e+02	
			         1.73333	-1.71000e+02	
			         1.73500	-1.62000e+02	
			         1.73667	-1.51000e+02	
			         1.73833	-1.39000e+02	
			         1.74000	-1.26000e+02	
			         1.74167	-1.14000e+02	
			         1.74333	-1.01000e+02	
			         1.74500	-9.00000e+01	
			         1.74667	-8.00000e+01	
			         1.74833	-7.00000e+01	
			         1.75000	-6.20000e+01	
			         1.75167	-5.60000e+01	
			         1.75333	-5.00000e+01	
			         1.75500	-4.60000e+01	
			         1.75667	-4.20000e+01	
			         1.75833	-3.90000e+01	
			         1.76000	-3.70000e+01	
			         1.76167	-3.50000e+01	
			         1.76333	-3.40000e+01	
			         1.76500	-3.30000e+01	
			         1.76667	-3.20000e+01	
			         1.76833	-3.10000e+01	
			         1.77000	-3.00000e+01	
			         1.77167	-2.90000e+01	
			         1.77333	-2.90000e+01	
			         1.77500	-2.80000e+01	
			         1.77667	-2.70000e+01	
			         1.77833	-2.60000e+01	
			         1.78000	-2.50000e+01	
			         1.78167	-2.40000e+01	
			         1.78333	-2.30000e+01	
			         1.78500	-2.20000e+01	
			         1.78667	-2.10000e+01	
			         1.78833	-2.10000e+01	
			         1.79000	-2.00000e+01	
			         1.79167	-1.90000e+01	
			         1.79333	-1.80000e+01	
			         1.79500	-1.80000e+01	
			         1.79667	-1.70000e+01	
			         1.79833	-1.60000e+01	
			         1.80000	-1.60000e+01	
			         1.80167	-1.50000e+01	
			         1.80333	-1.50000e+01	
			         1.80500	-1.40000e+01	
			         1.80667	-1.40000e+01	
			         1.80833	-1.30000e+01	
			         1.81000	-1.30000e+01	
			         1.81167	-1.30000e+01	
			         1.81333	-1.20000e+01	
			         1.81500	-1.20000e+01	
			         1.81667	-1.20000e+01	
			         1.81833	-1.20000e+01	
			         1.82000	-1.20000e+01	
			         1.82167	-1.20000e+01	
			         1.82333	-1.20000e+01	
			         1.82500	-1.30000e+01	
			         1.82667	-1.30000e+01	
			         1.82833	-1.30000e+01	
			         1.83000	-1.30000e+01	
			         1.83167	-1.30000e+01	
			         1.83333	-1.30000e+01	
			         1.83500	-1.30000e+01	
			         1.83667	-1.20000e+01	
			         1.83833	-1.20000e+01	
			         1.84000	-1.20000e+01	
			         1.84167	-1.10000e+01	
			         1.84333	-1.10000e+01	
			         1.84500	-1.00000e+01	
			         1.84667	-9.00000e+00	
			         1.84833	-9.00000e+00	
			         1.85000	-8.00000e+00	
			         1.85167	-7.00000e+00	
			         1.85333	-6.00000e+00	
			         1.85500	-5.00000e+00	
			         1.85667	-4.00000e+00	
			         1.85833	-3.00000e+00	
			         1.86000	-2.00000e+00	
			         1.86167	0.00000e+00	
			         1.86333	1.00000e+00	
			         1.86500	3.00000e+00	
			         1.86667	5.00000e+00	
			         1.86833	6.00000e+00	
			         1.87000	8.00000e+00	
			         1.87167	1.00000e+01	
			         1.87333	1.10000e+01	
			         1.87500	1.20000e+01	
			         1.87667	1.30000e+01	
			         1.87833	1.30000e+01	
			         1.88000	1.30000e+01	
			         1.88167	1.20000e+01	
			         1.88333	1.20000e+01	
			         1.88500	1.10000e+01	
			         1.88667	9.00000e+00	
			         1.88833	8.00000e+00	
			         1.89000	7.00000e+00	
			         1.89167	7.00000e+00	
			         1.89333	7.00000e+00	
			         1.89500	7.00000e+00	
			         1.89667	8.00000e+00	
			         1.89833	9.00000e+00	
			         1.90000	1.00000e+01	
			         1.90167	1.20000e+01	
			         1.90333	1.40000e+01	
			         1.90500	1.60000e+01	
			         1.90667	1.90000e+01	
			         1.90833	2.10000e+01	
			         1.91000	2.30000e+01	
			         1.91167	2.60000e+01	
			         1.91333	2.80000e+01	
			         1.91500	3.00000e+01	
			         1.91667	3.20000e+01	
			         1.91833	3.40000e+01	
			         1.92000	3.70000e+01	
			         1.92167	3.90000e+01	
			         1.92333	4.10000e+01	
			         1.92500	4.30000e+01	
			         1.92667	4.50000e+01	
			         1.92833	4.70000e+01	
			         1.93000	4.90000e+01	
			         1.93167	5.10000e+01	
			         1.93333	5.30000e+01	
			         1.93500	5.40000e+01	
			         1.93667	5.60000e+01	
			         1.93833	5.70000e+01	
			         1.94000	5.80000e+01	
			         1.94167	6.00000e+01	
			         1.94333	6.10000e+01	
			         1.94500	6.20000e+01	
			         1.94667	6.30000e+01	
			         1.94833	6.50000e+01	
			         1.95000	6.60000e+01	
			         1.95167	6.70000e+01	
			         1.95333	6.90000e+01	
			         1.95500	7.00000e+01	
			         1.95667	7.20000e+01	
			         1.95833	7.30000e+01	
			         1.96000	7.50000e+01	
			         1.96167	7.60000e+01	
			         1.96333	7.70000e+01	
			         1.96500	7.80000e+01	
			         1.96667	7.80000e+01	
			         1.96833	7.80000e+01	
			         1.97000	7.90000e+01	
			         1.97167	7.80000e+01	
			         1.97333	7.80000e+01	
			         1.97500	7.80000e+01	
			         1.97667	7.70000e+01	
			         1.97833	7.70000e+01	
			         1.98000	7.60000e+01	
			         1.98167	7.50000e+01	
			         1.98333	7.40000e+01	
			         1.98500	7.30000e+01	
			         1.98667	7.20000e+01	
			         1.98833	7.10000e+01	
			         1.99000	7.00000e+01	
			         1.99167	6.80000e+01	
			         1.99333	6.70000e+01	
			         1.99500	6.40000e+01	
			         1.99667	6.20000e+01	
			         1.99833	5.90000e+01	
			         2.00000	5.70000e+01	
			         2.00167	5.30000e+01	
			         2.00333	5.00000e+01	
			         2.00500	4.60000e+01	
			         2.00667	4.20000e+01	
			         2.00833	3.80000e+01	
			         2.01000	3.30000e+01	
			         2.01167	2.90000e+01	
			         2.01333	2.40000e+01	
			         2.01500	1.90000e+01	
			         2.01667	1.40000e+01	
			         2.01833	9.00000e+00	
			         2.02000	4.00000e+00	
			         2.02167	-1.00000e+00	
			         2.02333	-6.00000e+00	
			         2.02500	-1.10000e+01	
			         2.02667	-1.60000e+01	
			         2.02833	-2.00000e+01	
			         2.03000	-2.50000e+01	
			         2.03167	-2.90000e+01	
			         2.03333	-3.20000e+01	
			         2.03500	-3.60000e+01	
			         2.03667	-3.90000e+01	
			         2.03833	-4.20000e+01	
			         2.04000	-4.50000e+01	
			         2.04167	-4.70000e+01	
			         2.04333	-5.00000e+01	
			         2.04500	-5.20000e+01	
			         2.04667	-5.40000e+01	
			         2.04833	-5.60000e+01	
			         2.05000	-5.80000e+01	
			         2.05167	-6.00000e+01	
			         2.05333	-6.10000e+01	
			         2.05500	-6.30000e+01	
			         2.05667	-6.40000e+01	
			         2.05833	-6.50000e+01	
			         2.06000	-6.60000e+01	
			         2.06167	-6.70000e+01	
			         2.06333	-6.80000e+01	
			         2.06500	-6.90000e+01	
			         2.06667	-6.90000e+01	
			         2.06833	-6.90000e+01	
			         2.07000	-7.00000e+01	
			         2.07167	-7.00000e+01	
			         2.07333	-7.00000e+01	
			         2.07500	-6.90000e+01	
			         2.07667	-6.90000e+01	
			         2.07833	-6.90000e+01	
			         2.08000	-6.80000e+01	
			         2.08167	-6.80000e+01	
			         2.08333	-6.70000e+01	
			         2.08500	-6.60000e+01	
			         2.08667	-6.50000e+01	
			         2.08833	-6.40000e+01	
			         2.09000	-6.30000e+01	
			         2.09167	-6.20000e+01	
			         2.09333	-6.10000e+01	
			         2.09500	-5.90000e+01	
			         2.09667	-5.80000e+01	
			         2.09833	-5.70000e+01	
			         2.10000	-5.60000e+01	
			         2.10167	-5.50000e+01	
			         2.10333	-5.40000e+01	
			         2.10500	-5.30000e+01	
			         2.10667	-5.30000e+01	
			         2.10833	-5.20000e+01	
			         2.11000	-5.20000e+01	
			         2.11167	-5.10000e+01	
			         2.11333	-5.00000e+01	
			         2.11500	-5.00000e+01	
			         2.11667	-4.90000e+01	
			         2.11833	-4.80000e+01	
			         2.12000	-4.60000e+01	
			         2.12167	-4.50000e+01	
			         2.12333	-4.40000e+01	
			         2.12500	-4.20000e+01	
			         2.12667	-4.10000e+01	
			         2.12833	-3.90000e+01	
			         2.13000	-3.70000e+01	
			         2.13167	-3.60000e+01	
			         2.13333	-3.40000e+01	
			         2.13500	-3.30000e+01	
			         2.13667	-3.20000e+01	
			         2.13833	-3.10000e+01	
			         2.14000	-3.00000e+01	
			         2.14167	-2.90000e+01	
			         2.14333	-2.80000e+01	
			         2.14500	-2.70000e+01	
			         2.14667	-2.70000e+01	
			         2.14833	-2.60000e+01	
			         2.15000	-2.50000e+01	
			         2.15167	-2.50000e+01	
			         2.15333	-2.40000e+01	
			         2.15500	-2.30000e+01	
			         2.15667	-2.20000e+01	
			         2.15833	-2.20000e+01	
			         2.16000	-2.10000e+01	
			         2.16167	-2.00000e+01	
			         2.16333	-1.80000e+01	
			         2.16500	-1.70000e+01	
			         2.16667	-1.60000e+01	
			         2.16833	-1.50000e+01	
			         2.17000	-1.40000e+01	
			         2.17167	-1.30000e+01	
			         2.17333	-1.30000e+01	
			         2.17500	-1.20000e+01	
			         2.17667	-1.20000e+01	
			         2.17833	-1.10000e+01	
			         2.18000	-1.10000e+01	
			         2.18167	-1.10000e+01	
			         2.18333	-1.00000e+01	
			         2.18500	-1.00000e+01	
			         2.18667	-1.00000e+01	
			         2.18833	-9.00000e+00	
			         2.19000	-9.00000e+00	
			         2.19167	-8.00000e+00	
			         2.19333	-8.00000e+00	
			         2.19500	-7.00000e+00	
			         2.19667	-7.00000e+00	
			         2.19833	-6.00000e+00	
			         2.20000	-6.00000e+00	
			         2.20167	-6.00000e+00	
			         2.20333	-7.00000e+00	
			         2.20500	-7.00000e+00	
			         2.20667	-8.00000e+00	
			         2.20833	-8.00000e+00	
			         2.21000	-9.00000e+00	
			         2.21167	-9.00000e+00	
			         2.21333	-1.00000e+01	
			         2.21500	-1.10000e+01	
			         2.21667	-1.10000e+01	
			         2.21833	-1.20000e+01	
			         2.22000	-1.20000e+01	
			         2.22167	-1.20000e+01	
			         2.22333	-1.20000e+01	
			         2.22500	-1.20000e+01	
			         2.22667	-1.20000e+01	
			         2.22833	-1.20000e+01	
			         2.23000	-1.10000e+01	
			         2.23167	-1.10000e+01	
			         2.23333	-1.10000e+01	
			         2.23500	-1.10000e+01	
			         2.23667	-1.10000e+01	
			         2.23833	-1.10000e+01	
			         2.24000	-1.00000e+01	
			         2.24167	-1.00000e+01	
			         2.24333	-1.00000e+01	
			         2.24500	-1.00000e+01	
			         2.24667	-1.00000e+01	
			         2.24833	-1.00000e+01	
			         2.25000	-1.00000e+01	
			         2.25167	-9.00000e+00	
			         2.25333	-9.00000e+00	
			         2.25500	-8.00000e+00	
			         2.25667	-7.00000e+00	
			         2.25833	-6.00000e+00	
			         2.26000	-4.00000e+00	
			         2.26167	-3.00000e+00	
			         2.26333	-1.00000e+00	
			         2.26500	1.00000e+00	
			         2.26667	4.00000e+00	
			         2.26833	6.00000e+00	
			         2.27000	9.00000e+00	
			         2.27167	1.10000e+01	
			         2.27333	1.40000e+01	
			         2.27500	1.60000e+01	
			         2.27667	1.80000e+01	
			         2.27833	1.90000e+01	
			         2.28000	2.00000e+01	
			         2.28167	2.10000e+01	
			         2.28333	2.10000e+01	
			         2.28500	2.00000e+01	
			         2.28667	1.90000e+01	
			         2.28833	1.80000e+01	
			         2.29000	1.60000e+01	
			         2.29167	1.30000e+01	
			         2.29333	1.00000e+01	
			         2.29500	7.00000e+00	
			         2.29667	3.00000e+00	
			         2.29833	0.00000e+00	
			         2.30000	-3.00000e+00	
			         2.30167	-7.00000e+00	
			         2.30333	-1.10000e+01	
			         2.30500	-1.40000e+01	
			         2.30667	-1.70000e+01	
			         2.30833	-2.10000e+01	
			         2.31000	-2.30000e+01	
			         2.31167	-2.60000e+01	
			         2.31333	-2.80000e+01	
			         2.31500	-3.00000e+01	
			         2.31667	-3.10000e+01	
			         2.31833	-3.20000e+01	
			         2.32000	-3.20000e+01	
			         2.32167	-3.30000e+01	
			         2.32333	-3.30000e+01	
			         2.32500	-3.20000e+01	
			         2.32667	-3.20000e+01	
			         2.32833	-3.10000e+01	
			         2.33000	-3.10000e+01	
			         2.33167	-3.00000e+01	
			         2.33333	-2.90000e+01	
			         2.33500	-2.90000e+01	
			         2.33667	-2.80000e+01	
			         2.33833	-2.80000e+01	
			         2.34000	-2.80000e+01	
			         2.34167	-2.70000e+01	
			         2.34333	-2.60000e+01	
			         2.34500	-2.60000e+01	
			         2.34667	-2.50000e+01	
			         2.34833	-2.50000e+01	
			         2.35000	-2.40000e+01	
			         2.35167	-2.40000e+01	
			         2.35333	-2.40000e+01	
			         2.35500	-2.40000e+01	
			         2.35667	-2.40000e+01	
			         2.35833	-2.50000e+01	
			         2.36000	-2.60000e+01	
			         2.36167	-2.70000e+01	
			         2.36333	-2.90000e+01	
			         2.36500	-3.00000e+01	
			         2.36667	-3.20000e+01	
			         2.36833	-3.30000e+01	
			         2.37000	-3.40000e+01	
			         2.37167	-3.50000e+01	
			         2.37333	-3.60000e+01	
			         2.37500	-3.60000e+01	
			         2.37667	-3.50000e+01	
			         2.37833	-3.50000e+01	
			         2.38000	-3.40000e+01	
			         2.38167	-3.30000e+01	
			         2.38333	-3.20000e+01	
			         2.38500	-3.10000e+01	
			         2.38667	-3.00000e+01	
			         2.38833	-2.90000e+01	
			         2.39000	-2.80000e+01	
			         2.39167	-2.70000e+01	
			         2.39333	-2.70000e+01	
			         2.39500	-2.60000e+01	
			         2.39667	-2.50000e+01	
			         2.39833	-2.40000e+01	
			         2.40000	-2.30000e+01	
			         2.40167	-2.20000e+01	
			         2.40333	-2.10000e+01	
			         2.40500	-2.00000e+01	
			         2.40667	-1.80000e+01	
			         2.40833	-1.70000e+01	
			         2.41000	-1.60000e+01	
			         2.41167	-1.40000e+01	
			         2.41333	-1.30000e+01	
			         2.41500	-1.20000e+01	
			         2.41667	-1.10000e+01	
			         2.41833	-1.10000e+01	
			         2.42000	-1.00000e+01	
			         2.42167	-1.00000e+01	
			         2.42333	-1.00000e+01	
			         2.42500	-1.00000e+01	
			         2.42667	-1.00000e+01	
			         2.42833	-1.10000e+01	
			         2.43000	-1.10000e+01	
			         2.43167	-1.10000e+01	
			         2.43333	-1.10000e+01	
			         2.43500	-1.10000e+01	
			         2.43667	-1.10000e+01	
			         2.43833	-1.10000e+01	
			         2.44000	-1.10000e+01	
			         2.44167	-1.10000e+01	
			         2.44333	-1.10000e+01	
			         2.44500	-1.10000e+01	
			         2.44667	-1.00000e+01	
			         2.44833	-1.00000e+01	
			         2.45000	-1.00000e+01	
			         2.45167	-9.00000e+00	
			         2.45333	-9.00000e+00	
			         2.45500	-8.00000e+00	
			         2.45667	-7.00000e+00	
			         2.45833	-7.00000e+00	
			         2.46000	-6.00000e+00	
			         2.46167	-5.00000e+00	
			         2.46333	-5.00000e+00	
			         2.46500	-4.00000e+00	
			         2.46667	-4.00000e+00	
			         2.46833	-3.00000e+00	
			         2.47000	-3.00000e+00	
			         2.47167	-2.00000e+00	
			         2.47333	-2.00000e+00	
			         2.47500	-2.00000e+00	
			         2.47667	-2.00000e+00	
			         2.47833	-1.00000e+00	
			         2.48000	-1.00000e+00	
			         2.48167	0.00000e+00	
			         2.48333	0.00000e+00	
			         2.48500	1.00000e+00	
			         2.48667	1.00000e+00	
			         2.48833	2.00000e+00	
			         2.49000	3.00000e+00	
			         2.49167	4.00000e+00	
			         2.49333	6.00000e+00	
			         2.49500	7.00000e+00	
			         2.49667	8.00000e+00	
			         2.49833	1.00000e+01	
			         2.50000	1.10000e+01	
			         2.50167	1.30000e+01	
			         2.50333	1.50000e+01	
			         2.50500	1.80000e+01	
			         2.50667	2.10000e+01	
			         2.50833	2.50000e+01	
			         2.51000	3.10000e+01	
			         2.51167	3.70000e+01	
			         2.51333	4.50000e+01	
			         2.51500	5.50000e+01	
			         2.51667	6.60000e+01	
			         2.51833	8.00000e+01	
			         2.52000	9.60000e+01	
			         2.52167	1.14000e+02	
			         2.52333	1.35000e+02	
			         2.52500	1.57000e+02	
			         2.52667	1.81000e+02	
			         2.52833	2.05000e+02	
			         2.53000	2.28000e+02	
			         2.53167	2.49000e+02	
			         2.53333	2.67000e+02	
			         2.53500	2.80000e+02	
			         2.53667	2.86000e+02	
			         2.53833	2.84000e+02	
			         2.54000	2.74000e+02	
			         2.54167	2.57000e+02	
			         2.54333	2.31000e+02	
			         2.54500	1.99000e+02	
			         2.54667	1.61000e+02	
			         2.54833	1.18000e+02	
			         2.55000	7.30000e+01	
			         2.55167	2.70000e+01	
			         2.55333	-1.70000e+01	
			         2.55500	-5.80000e+01	
			         2.55667	-9.40000e+01	
			         2.55833	-1.24000e+02	
			         2.56000	-1.48000e+02	
			         2.56167	-1.64000e+02	
			         2.56333	-1.74000e+02	
			         2.56500	-1.78000e+02	
			         2.56667	-1.77000e+02	
			         2.56833	-1.71000e+02	
			         2.57000	-1.62000e+02	
			         2.57167	-1.51000e+02	
			         2.57333	-1.38000e+02	
			         2.57500	-1.24000e+02	
			         2.57667	-1.10000e+02	
			         2.57833	-9.60000e+01	
			         2.58000	-8.30000e+01	
			         2.58167	-7.10000e+01	
			         2.58333	-6.00000e+01	
			         2.58500	-5.10000e+01	
			         2.58667	-4.30000e+01	
			         2.58833	-3.60000e+01	
			         2.59000	-3.10000e+01	
			         2.59167	-2.70000e+01	
			         2.59333	-2.40000e+01	
			         2.59500	-2.20000e+01	
			         2.59667	-2.00000e+01	
			         2.59833	-1.90000e+01	
			         2.60000	-1.80000e+01	
			         2.60167	-1.70000e+01	
			         2.60333	-1.60000e+01	
			         2.60500	-1.60000e+01	
			         2.60667	-1.50000e+01	
			         2.60833	-1.40000e+01	
