Velocity (TVI), in cm/s

Time (s) :	Trace 1 : 		Ecg : 		
0.01129   	-2.14505e+00		         0.00000	-8.00000e+00	
0.01687   	-2.34869e+00		         0.00167	-2.00000e+00	
0.02245   	-1.73734e+00		         0.00333	5.00000e+00	
0.02831   	-1.30103e+00		         0.00500	1.40000e+01	
0.03389   	-1.33116e+00		         0.00667	2.40000e+01	
0.03947   	-8.76553e-01		         0.00833	3.60000e+01	
0.04505   	-4.09049e-01		         0.01000	5.00000e+01	
0.05091   	-5.43589e-01		         0.01167	6.60000e+01	
0.05649   	-4.29645e-01		         0.01333	8.40000e+01	
0.06207   	-1.17367e-01		         0.01500	1.02000e+02	
0.06765   	-4.02504e-03		         0.01667	1.23000e+02	
0.07350   	4.33632e-01		         0.01833	1.45000e+02	
0.07909   	9.08693e-01		         0.02000	1.68000e+02	
0.08467   	1.53996e+00		         0.02167	1.92000e+02	
0.09025   	2.30519e+00		         0.02333	2.16000e+02	
0.09611   	3.02130e+00		         0.02500	2.40000e+02	
0.10169   	3.51448e+00		         0.02667	2.63000e+02	
0.10727   	3.88891e+00		         0.02833	2.85000e+02	
0.11285   	4.13166e+00		         0.03000	3.04000e+02	
0.11870   	4.29193e+00		         0.03167	3.20000e+02	
0.12428   	4.43791e+00		         0.03333	3.32000e+02	
0.12987   	4.54433e+00		         0.03500	3.40000e+02	
0.13545   	4.57598e+00		         0.03667	3.44000e+02	
0.14130   	4.66901e+00		         0.03833	3.42000e+02	
0.14689   	4.74080e+00		         0.04000	3.35000e+02	
0.15247   	4.77546e+00		         0.04167	3.23000e+02	
0.15805   	4.84995e+00		         0.04333	3.06000e+02	
0.16390   	4.98011e+00		         0.04500	2.84000e+02	
0.16949   	5.01724e+00		         0.04667	2.59000e+02	
0.17507   	5.10150e+00		         0.04833	2.31000e+02	
0.18065   	5.13687e+00		         0.05000	2.01000e+02	
0.18650   	5.22650e+00		         0.05167	1.71000e+02	
0.19208   	5.24384e+00		         0.05333	1.40000e+02	
0.19767   	5.26837e+00		         0.05500	1.09000e+02	
0.20325   	5.21768e+00		         0.05667	8.00000e+01	
0.20910   	5.20439e+00		         0.05833	5.30000e+01	
0.21469   	5.14420e+00		         0.06000	2.70000e+01	
0.22026   	5.09052e+00		         0.06167	5.00000e+00	
0.22585   	5.02867e+00		         0.06333	-1.50000e+01	
0.23170   	5.00517e+00		         0.06500	-3.20000e+01	
0.23765   	4.96048e+00		         0.06667	-4.60000e+01	
0.24287   	4.89983e+00		         0.06833	-5.80000e+01	
0.24844   	4.84618e+00		         0.07000	-6.70000e+01	
0.25443   	4.75464e+00		         0.07167	-7.40000e+01	
0.25989   	4.64060e+00		         0.07333	-7.90000e+01	
0.26547   	4.56373e+00		         0.07500	-8.30000e+01	
0.27105   	4.47355e+00		         0.07667	-8.60000e+01	
0.27690   	4.41652e+00		         0.07833	-8.80000e+01	
0.28248   	4.33552e+00		         0.08000	-8.90000e+01	
0.28807   	4.23346e+00		         0.08167	-9.00000e+01	
0.29365   	4.19005e+00		         0.08333	-9.00000e+01	
0.29950   	4.12097e+00		         0.08500	-9.00000e+01	
0.30508   	3.98231e+00		         0.08667	-9.00000e+01	
0.31067   	3.93698e+00		         0.08833	-9.00000e+01	
0.31625   	3.87211e+00		         0.09000	-9.00000e+01	
0.32210   	3.73515e+00		         0.09167	-9.10000e+01	
0.32768   	3.70935e+00		         0.09333	-9.10000e+01	
0.33327   	3.66990e+00		         0.09500	-9.20000e+01	
0.33885   	3.57237e+00		         0.09667	-9.30000e+01	
0.34470   	3.53311e+00		         0.09833	-9.30000e+01	
0.35028   	3.49623e+00		         0.10000	-9.40000e+01	
0.35587   	3.33661e+00		         0.10167	-9.40000e+01	
0.36144   	3.28115e+00		         0.10333	-9.30000e+01	
0.36730   	3.15573e+00		         0.10500	-9.30000e+01	
0.37288   	2.99240e+00		         0.10667	-9.10000e+01	
0.37847   	2.81429e+00		         0.10833	-9.00000e+01	
0.38405   	2.59898e+00		         0.11000	-8.80000e+01	
0.38990   	2.41174e+00		         0.11167	-8.60000e+01	
0.39548   	2.17575e+00		         0.11333	-8.30000e+01	
0.40107   	1.93555e+00		         0.11500	-8.10000e+01	
0.40665   	1.63962e+00		         0.11667	-7.80000e+01	
0.41250   	1.61937e+00		         0.11833	-7.60000e+01	
0.41808   	1.10702e+00		         0.12000	-7.30000e+01	
0.42367   	5.79089e-01		         0.12167	-7.10000e+01	
0.42925   	2.96471e-02		         0.12333	-6.80000e+01	
0.43510   	-4.53660e-01		         0.12500	-6.70000e+01	
0.44068   	-8.70216e-01		         0.12667	-6.50000e+01	
0.44627   	-7.80983e-01		         0.12833	-6.40000e+01	
0.45185   	-5.76798e-01		         0.13000	-6.20000e+01	
0.45770   	-4.17343e-01		         0.13167	-6.10000e+01	
0.46328   	-3.41863e-01		         0.13333	-6.00000e+01	
0.46886   	-4.79712e-01		         0.13500	-5.90000e+01	
0.47444   	-6.40884e-01		         0.13667	-5.80000e+01	
0.48030   	-8.41525e-01		         0.13833	-5.70000e+01	
0.48588   	-9.40993e-01		         0.14000	-5.50000e+01	
0.49147   	-1.06726e+00		         0.14167	-5.40000e+01	
0.49705   	-1.37651e+00		         0.14333	-5.30000e+01	
0.50290   	-1.81187e+00		         0.14500	-5.10000e+01	
0.50848   	-2.41050e+00		         0.14667	-5.00000e+01	
0.51407   	-2.96111e+00		         0.14833	-4.80000e+01	
0.51965   	-3.60657e+00		         0.15000	-4.60000e+01	
0.52550   	-3.95155e+00		         0.15167	-4.40000e+01	
0.53108   	-4.60996e+00		         0.15333	-4.20000e+01	
0.53666   	-5.21006e+00		         0.15500	-4.00000e+01	
0.54225   	-5.93912e+00		         0.15667	-3.80000e+01	
0.54810   	-6.52448e+00		         0.15833	-3.60000e+01	
0.55368   	-7.25179e+00		         0.16000	-3.40000e+01	
0.55926   	-7.45629e+00		         0.16167	-3.20000e+01	
0.56485   	-7.38597e+00		         0.16333	-3.00000e+01	
0.57070   	-7.26403e+00		         0.16500	-2.80000e+01	
0.57628   	-7.02713e+00		         0.16667	-2.70000e+01	
0.58187   	-6.61379e+00		         0.16833	-2.50000e+01	
0.58744   	-6.28725e+00		         0.17000	-2.40000e+01	
0.59330   	-6.01554e+00		         0.17167	-2.30000e+01	
0.59888   	-5.63791e+00		         0.17333	-2.20000e+01	
0.60446   	-5.21854e+00		         0.17500	-2.10000e+01	
0.61005   	-4.96869e+00		         0.17667	-2.10000e+01	
0.61590   	-4.71872e+00		         0.17833	-2.00000e+01	
0.62148   	-4.38580e+00		         0.18000	-2.00000e+01	
0.62706   	-4.13520e+00		         0.18167	-1.90000e+01	
0.63265   	-3.89191e+00		         0.18333	-1.80000e+01	
0.63850   	-3.56155e+00		         0.18500	-1.80000e+01	
0.64408   	-3.26262e+00		         0.18667	-1.70000e+01	
0.64966   	-3.07286e+00		         0.18833	-1.60000e+01	
0.65525   	-2.81769e+00		         0.19000	-1.40000e+01	
0.66110   	-2.54244e+00		         0.19167	-1.30000e+01	
0.66668   	-2.38265e+00		         0.19333	-1.20000e+01	
0.67226   	-2.12610e+00		         0.19500	-1.10000e+01	
0.67785   	-1.87758e+00		         0.19667	-9.00000e+00	
0.68370   	-1.61504e+00		         0.19833	-8.00000e+00	
0.68928   	-1.51583e+00		         0.20000	-7.00000e+00	
0.69487   	-1.39679e+00		         0.20167	-6.00000e+00	
0.70044   	-1.38136e+00		         0.20333	-5.00000e+00	
0.70631   	-1.37314e+00		         0.20500	-4.00000e+00	
0.71188   	-1.26365e+00		         0.20667	-3.00000e+00	
0.71746   	-1.08356e+00		         0.20833	-1.00000e+00	
0.72305   	-8.27557e-01		         0.21000	0.00000e+00	
0.72890   	-5.84387e-01		         0.21167	1.00000e+00	
0.73448   	-3.29504e-01		         0.21333	2.00000e+00	
0.74006   	-2.83416e-01		         0.21500	4.00000e+00	
0.74565   	-2.37144e-01		         0.21667	5.00000e+00	
0.75150   	-2.70520e-01		         0.21833	6.00000e+00	
0.75708   	-2.86172e-01		         0.22000	8.00000e+00	
0.76266   	-3.27315e-01		         0.22167	1.00000e+01	
0.76824   	-3.23872e-01		         0.22333	1.10000e+01	
0.77410   	-3.33334e-01		         0.22500	1.30000e+01	
0.77968   	-3.43457e-01		         0.22667	1.40000e+01	
0.78561   	-3.54432e-01		         0.22833	1.60000e+01	
0.79085   	-3.40564e-01		         0.23000	1.80000e+01	
0.79670   	-3.64470e-01		         0.23167	2.00000e+01	
0.80228   	-3.74373e-01		         0.23333	2.20000e+01	
0.80787   	-3.89480e-01		         0.23500	2.40000e+01	
0.81344   	-3.98926e-01		         0.23667	2.70000e+01	
0.81930   	-4.28983e-01		         0.23833	2.90000e+01	
0.82488   	-4.29640e-01		         0.24000	3.10000e+01	
0.83046   	-4.52279e-01		         0.24167	3.40000e+01	
0.83604   	-4.89391e-01		         0.24333	3.60000e+01	
0.84190   	-5.47176e-01		         0.24500	3.80000e+01	
0.84748   	-5.79043e-01		         0.24667	4.00000e+01	
0.85306   	-6.10056e-01		         0.24833	4.20000e+01	
0.85865   	-6.14537e-01		         0.25000	4.40000e+01	
0.86450   	-6.00060e-01		         0.25167	4.60000e+01	
0.87008   	-5.70158e-01		         0.25333	4.70000e+01	
0.87566   	-5.78755e-01		         0.25500	4.90000e+01	
0.88125   	-5.83750e-01		         0.25667	5.10000e+01	
0.88710   	-6.30190e-01		         0.25833	5.30000e+01	
0.89268   	-7.05859e-01		         0.26000	5.50000e+01	
0.89826   	-7.25666e-01		         0.26167	5.70000e+01	
0.90384   	-7.21204e-01		         0.26333	5.90000e+01	
0.90970   	-6.21042e-01		         0.26500	6.10000e+01	
0.91528   	-3.77981e-01		         0.26667	6.30000e+01	
0.92086   	-3.51287e-01		         0.26833	6.60000e+01	
0.92644   	-5.60428e-01		         0.27000	6.80000e+01	
0.93230   	-8.09759e-01		         0.27167	7.00000e+01	
0.93788   	-1.56811e+00		         0.27333	7.30000e+01	
0.94346   	-2.43935e+00		         0.27500	7.50000e+01	
0.94904   	-3.20202e+00		         0.27667	7.60000e+01	
0.95490   	-3.69992e+00		         0.27833	7.80000e+01	
0.96048   	-4.43055e+00		         0.28000	7.90000e+01	
0.96606   	-4.62576e+00		         0.28167	8.00000e+01	
0.97165   	-4.66148e+00		         0.28333	8.10000e+01	
0.97750   	-4.60939e+00		         0.28500	8.20000e+01	
0.98308   	-4.52085e+00		         0.28667	8.20000e+01	
0.98866   	-4.14748e+00		         0.28833	8.20000e+01	
0.99424   	-4.03074e+00		         0.29000	8.20000e+01	
1.00010   	-3.91169e+00		         0.29167	8.10000e+01	
1.00568   	-3.67595e+00		         0.29333	8.00000e+01	
1.01126   	-3.48993e+00		         0.29500	7.90000e+01	
1.01684   	-3.36497e+00		         0.29667	7.70000e+01	
1.02269   	-2.98555e+00		         0.29833	7.50000e+01	
1.02828   	-2.80079e+00		         0.30000	7.40000e+01	
1.03386   	-2.53621e+00		         0.30167	7.10000e+01	
1.03944   	-2.22073e+00		         0.30333	6.90000e+01	
1.04530   	-1.77741e+00		         0.30500	6.60000e+01	
1.05123   	-1.83720e+00		         0.30667	6.40000e+01	
1.05646   	-1.28454e+00		         0.30833	6.10000e+01	
1.06204   	-8.94235e-01		         0.31000	5.80000e+01	
1.06794   	-9.98608e-01		         0.31167	5.50000e+01	
1.07348   	-1.03030e+00		         0.31333	5.10000e+01	
1.07906   	-6.62482e-01		         0.31500	4.80000e+01	
1.08464   	-7.73772e-01		         0.31667	4.40000e+01	
1.09050   	-8.78238e-01		         0.31833	4.00000e+01	
1.09608   	-4.24456e-01		         0.32000	3.50000e+01	
1.10166   	-1.20660e-01		         0.32167	3.10000e+01	
1.10724   	1.20919e-01		         0.32333	2.50000e+01	
1.11310   	5.30355e-01		         0.32500	2.00000e+01	
1.11868   	1.04609e+00		         0.32667	1.40000e+01	
1.12426   	1.52826e+00		         0.32833	8.00000e+00	
1.12984   	2.05548e+00		         0.33000	3.00000e+00	
1.13570   	2.80292e+00		         0.33167	-3.00000e+00	
1.14128   	3.33748e+00		         0.33333	-9.00000e+00	
1.14686   	3.77677e+00		         0.33500	-1.50000e+01	
1.15244   	4.09257e+00		         0.33667	-2.00000e+01	
1.15830   	4.31008e+00		         0.33833	-2.60000e+01	
1.16388   	4.34259e+00		         0.34000	-3.10000e+01	
1.16946   	4.33181e+00		         0.34167	-3.60000e+01	
1.17504   	4.36394e+00		         0.34333	-4.00000e+01	
1.18090   	4.39137e+00		         0.34500	-4.40000e+01	
1.18648   	4.46256e+00		         0.34667	-4.80000e+01	
1.19206   	4.51857e+00		         0.34833	-5.10000e+01	
1.19764   	4.56620e+00		         0.35000	-5.40000e+01	
1.20350   	4.69194e+00		         0.35167	-5.70000e+01	
1.20908   	4.68867e+00		         0.35333	-5.90000e+01	
1.21466   	4.75850e+00		         0.35500	-6.10000e+01	
1.22024   	4.87946e+00		         0.35667	-6.30000e+01	
1.22610   	5.02640e+00		         0.35833	-6.40000e+01	
1.23168   	4.98374e+00		         0.36000	-6.60000e+01	
1.23726   	5.01857e+00		         0.36167	-6.70000e+01	
1.24284   	5.01689e+00		         0.36333	-6.80000e+01	
1.24869   	4.97411e+00		         0.36500	-6.90000e+01	
1.25428   	4.89083e+00		         0.36667	-7.10000e+01	
1.25986   	4.86713e+00		         0.36833	-7.20000e+01	
1.26544   	4.86463e+00		         0.37000	-7.30000e+01	
1.27130   	4.86100e+00		         0.37167	-7.40000e+01	
1.27688   	4.81182e+00		         0.37333	-7.40000e+01	
1.28246   	4.72962e+00		         0.37500	-7.50000e+01	
1.28804   	4.63048e+00		         0.37667	-7.50000e+01	
1.29390   	4.51982e+00		         0.37833	-7.50000e+01	
1.29948   	4.38459e+00		         0.38000	-7.50000e+01	
1.30506   	4.33753e+00		         0.38167	-7.50000e+01	
1.31064   	4.20524e+00		         0.38333	-7.50000e+01	
1.31649   	4.17041e+00		         0.38500	-7.40000e+01	
1.32208   	4.13280e+00		         0.38667	-7.30000e+01	
1.32766   	4.03900e+00		         0.38833	-7.30000e+01	
1.33361   	3.93430e+00		         0.39000	-7.20000e+01	
1.33910   	3.88567e+00		         0.39167	-7.20000e+01	
1.34468   	3.79554e+00		         0.39333	-7.20000e+01	
1.35026   	3.71507e+00		         0.39500	-7.10000e+01	
1.35584   	3.64641e+00		         0.39667	-7.10000e+01	
1.36169   	3.54623e+00		         0.39833	-7.00000e+01	
1.36728   	3.49264e+00		         0.40000	-6.90000e+01	
1.37286   	3.40682e+00		         0.40167	-6.80000e+01	
1.37844   	3.28026e+00		         0.40333	-6.70000e+01	
1.38429   	3.21354e+00		         0.40500	-6.60000e+01	
1.38988   	3.14414e+00		         0.40667	-6.40000e+01	
1.39546   	3.07965e+00		         0.40833	-6.30000e+01	
1.40104   	3.00126e+00		         0.41000	-6.10000e+01	
1.40689   	2.88231e+00		         0.41167	-6.00000e+01	
1.41248   	2.66685e+00		         0.41333	-5.80000e+01	
1.41806   	2.50569e+00		         0.41500	-5.60000e+01	
1.42364   	2.26730e+00		         0.41667	-5.40000e+01	
1.42949   	1.98494e+00		         0.41833	-5.30000e+01	
1.43507   	1.63591e+00		         0.42000	-5.10000e+01	
1.44066   	1.32219e+00		         0.42167	-5.00000e+01	
1.44624   	1.21694e+00		         0.42333	-4.90000e+01	
1.45209   	7.00099e-01		         0.42500	-4.70000e+01	
1.45768   	1.77744e-01		         0.42667	-4.60000e+01	
1.46326   	-2.14891e-01		         0.42833	-4.50000e+01	
1.46884   	-2.97531e-01		         0.43000	-4.40000e+01	
1.47469   	-5.45318e-01		         0.43167	-4.30000e+01	
1.48027   	-3.05146e-01		         0.43333	-4.20000e+01	
1.48586   	-1.16353e-01		         0.43500	-4.20000e+01	
1.49144   	3.59290e-03		         0.43667	-4.10000e+01	
1.49729   	-4.31037e-02		         0.43833	-4.00000e+01	
1.50288   	-3.17649e-01		         0.44000	-4.00000e+01	
1.50846   	-6.47530e-01		         0.44167	-3.90000e+01	
1.51404   	-8.63143e-01		         0.44333	-3.80000e+01	
1.51989   	-1.01041e+00		         0.44500	-3.70000e+01	
1.52548   	-1.47184e+00		         0.44667	-3.60000e+01	
1.53106   	-1.82925e+00		         0.44833	-3.50000e+01	
1.53664   	-2.24500e+00		         0.45000	-3.40000e+01	
1.54249   	-2.65586e+00		         0.45167	-3.30000e+01	
1.54807   	-3.26678e+00		         0.45333	-3.20000e+01	
1.55366   	-3.43953e+00		         0.45500	-3.00000e+01	
1.55924   	-3.90765e+00		         0.45667	-2.90000e+01	
1.56509   	-4.52217e+00		         0.45833	-2.80000e+01	
1.57068   	-5.36966e+00		         0.46000	-2.70000e+01	
1.57626   	-6.02663e+00		         0.46167	-2.70000e+01	
1.58184   	-6.91614e+00		         0.46333	-2.60000e+01	
1.58769   	-7.41227e+00		         0.46500	-2.60000e+01	
1.59327   	-7.67014e+00		         0.46667	-2.60000e+01	
1.59921   	-7.51971e+00		         0.46833	-2.60000e+01	
1.60444   	-7.26007e+00		         0.47000	-2.60000e+01	
1.61029   	-7.02596e+00		         0.47167	-2.60000e+01	
1.61587   	-6.68952e+00		         0.47333	-2.60000e+01	
1.62146   	-6.20095e+00		         0.47500	-2.50000e+01	
1.62704   	-5.80436e+00		         0.47667	-2.50000e+01	
1.63289   	-5.44616e+00		         0.47833	-2.40000e+01	
1.63847   	-4.96845e+00		         0.48000	-2.30000e+01	
1.64406   	-4.63770e+00		         0.48167	-2.20000e+01	
1.64964   	-4.48483e+00		         0.48333	-2.10000e+01	
1.65549   	-4.22387e+00		         0.48500	-2.00000e+01	
1.66107   	-4.00338e+00		         0.48667	-1.90000e+01	
1.66666   	-3.83322e+00		         0.48833	-1.80000e+01	
1.67224   	-3.57054e+00		         0.49000	-1.70000e+01	
1.67809   	-3.23610e+00		         0.49167	-1.60000e+01	
1.68367   	-2.98047e+00		         0.49333	-1.50000e+01	
1.68926   	-2.72363e+00		         0.49500	-1.50000e+01	
1.69484   	-2.44760e+00		         0.49667	-1.50000e+01	
1.70069   	-2.24380e+00		         0.49833	-1.50000e+01	
1.70627   	-1.98123e+00		         0.50000	-1.60000e+01	
1.71186   	-1.85706e+00		         0.50167	-1.60000e+01	
1.71744   	-1.77835e+00		         0.50333	-1.60000e+01	
1.72329   	-1.72113e+00		         0.50500	-1.70000e+01	
1.72887   	-1.60679e+00		         0.50667	-1.70000e+01	
1.73446   	-1.46614e+00		         0.50833	-1.60000e+01	
1.74004   	-1.30801e+00		         0.51000	-1.60000e+01	
1.74589   	-1.15204e+00		         0.51167	-1.50000e+01	
1.75147   	-9.83803e-01		         0.51333	-1.40000e+01	
1.75706   	-8.46117e-01		         0.51500	-1.30000e+01	
1.76264   	-7.71528e-01		         0.51667	-1.20000e+01	
1.76849   	-6.70183e-01		         0.51833	-1.00000e+01	
1.77407   	-5.07556e-01		         0.52000	-9.00000e+00	
1.77965   	-3.90553e-01		         0.52167	-7.00000e+00	
1.78524   	-3.58111e-01		         0.52333	-6.00000e+00	
1.79109   	-3.39989e-01		         0.52500	-5.00000e+00	
1.79667   	-3.21416e-01		         0.52667	-4.00000e+00	
1.80226   	-3.04422e-01		         0.52833	-3.00000e+00	
1.80784   	-2.95034e-01		         0.53000	-2.00000e+00	
1.81369   	-2.25664e-01		         0.53167	-1.00000e+00	
1.81927   	-1.69568e-01		         0.53333	-1.00000e+00	
1.82486   	-1.84559e-01		         0.53500	-1.00000e+00	
1.83044   	-2.22993e-01		         0.53667	-1.00000e+00	
1.83629   	-2.55358e-01		         0.53833	-1.00000e+00	
1.84187   	-3.29284e-01		         0.54000	-1.00000e+00	
1.84745   	-4.30552e-01		         0.54167	-1.00000e+00	
1.85304   	-4.56328e-01		         0.54333	-2.00000e+00	
1.85889   	-4.63156e-01		         0.54500	-3.00000e+00	
1.86447   	-4.75634e-01		         0.54667	-4.00000e+00	
1.87005   	-4.96872e-01		         0.54833	-5.00000e+00	
1.87564   	-5.04554e-01		         0.55000	-5.00000e+00	
1.88149   	-5.08728e-01		         0.55167	-6.00000e+00	
1.88707   	-5.11308e-01		         0.55333	-6.00000e+00	
1.89265   	-5.13536e-01		         0.55500	-7.00000e+00	
1.89824   	-4.94398e-01		         0.55667	-7.00000e+00	
1.90409   	-4.56787e-01		         0.55833	-8.00000e+00	
1.90967   	-4.50897e-01		         0.56000	-8.00000e+00	
1.91525   	-4.57056e-01		         0.56167	-8.00000e+00	
1.92084   	-4.56207e-01		         0.56333	-8.00000e+00	
1.92669   	-4.55613e-01		         0.56500	-8.00000e+00	
1.93227   	-4.98554e-01		         0.56667	-7.00000e+00	
1.93785   	-5.49324e-01		         0.56833	-7.00000e+00	
1.94344   	-5.75577e-01		         0.57000	-7.00000e+00	
1.94929   	-6.25751e-01		         0.57167	-7.00000e+00	
1.95487   	-7.14148e-01		         0.57333	-7.00000e+00	
1.96046   	-7.06858e-01		         0.57500	-7.00000e+00	
1.96603   	-8.67468e-01		         0.57667	-8.00000e+00	
1.97189   	-7.16340e-01		         0.57833	-8.00000e+00	
1.97747   	-6.36119e-01		         0.58000	-8.00000e+00	
1.98305   	-7.88930e-01		         0.58167	-8.00000e+00	
1.98864   	-1.43262e+00		         0.58333	-8.00000e+00	
1.99449   	-2.01444e+00		         0.58500	-9.00000e+00	
2.00007   	-3.18509e+00		         0.58667	-9.00000e+00	
2.00566   	-3.98516e+00		         0.58833	-9.00000e+00	
2.01123   	-4.39420e+00		         0.59000	-9.00000e+00	
2.01709   	-4.69915e+00		         0.59167	-1.00000e+01	
2.02268   	-4.86370e+00		         0.59333	-9.00000e+00	
2.02825   	-4.73560e+00		         0.59500	-9.00000e+00	
2.03384   	-4.65640e+00		         0.59667	-9.00000e+00	
2.03969   	-5.00344e+00		         0.59833	-8.00000e+00	
2.04527   	-4.83494e+00		         0.60000	-7.00000e+00	
2.05086   	-4.36799e+00		         0.60167	-6.00000e+00	
2.05644   	-3.89334e+00		         0.60333	-6.00000e+00	
2.06229   	-3.55235e+00		         0.60500	-5.00000e+00	
2.06787   	-3.00026e+00		         0.60667	-4.00000e+00	
2.07346   	-2.56677e+00		         0.60833	-3.00000e+00	
2.07903   	-2.54328e+00		         0.61000	-2.00000e+00	
2.08489   	-2.30218e+00		         0.61167	-1.00000e+00	
2.09047   	-2.55775e+00		         0.61333	-1.00000e+00	
2.09605   	-2.36017e+00		         0.61500	-1.00000e+00	
2.10164   	-2.12766e+00		         0.61667	-1.00000e+00	
2.10749   	-1.92789e+00		         0.61833	-1.00000e+00	
2.11307   	-1.55286e+00		         0.62000	-2.00000e+00	
2.11866   	-7.01369e-01		         0.62167	-2.00000e+00	
2.12424   	8.57589e-02		         0.62333	-3.00000e+00	
2.13009   	1.95185e-01		         0.62500	-4.00000e+00	
2.13567   	4.31681e-01		         0.62667	-4.00000e+00	
2.14125   	4.61616e-01		         0.62833	-5.00000e+00	
2.14711   	3.58196e-01		         0.63000	-6.00000e+00	
2.15269   	1.34511e-01		         0.63167	-6.00000e+00	
2.15827   	4.44569e-01		         0.63333	-7.00000e+00	
2.16385   	8.84784e-01		         0.63500	-7.00000e+00	
2.16944   	1.25513e+00		         0.63667	-8.00000e+00	
2.17529   	1.88234e+00		         0.63833	-8.00000e+00	
2.18087   	2.43586e+00		         0.64000	-9.00000e+00	
2.18646   	3.12034e+00		         0.64167	-9.00000e+00	
2.19203   	3.67988e+00		         0.64333	-1.00000e+01	
2.19789   	4.04969e+00		         0.64500	-1.00000e+01	
2.20347   	4.26393e+00		         0.64667	-1.10000e+01	
2.20905   	4.44740e+00		         0.64833	-1.10000e+01	
2.21463   	4.46514e+00		         0.65000	-1.10000e+01	
2.22049   	4.50274e+00		         0.65167	-1.10000e+01	
2.22607   	4.57922e+00		         0.65333	-1.10000e+01	
2.23165   	4.57492e+00		         0.65500	-1.10000e+01	
2.23723   	4.56891e+00		         0.65667	-1.10000e+01	
2.24309   	4.65110e+00		         0.65833	-1.00000e+01	
2.24867   	4.68111e+00		         0.66000	-9.00000e+00	
2.25425   	4.74623e+00		         0.66167	-8.00000e+00	
2.25983   	4.86875e+00		         0.66333	-7.00000e+00	
2.26569   	4.90891e+00		         0.66500	-6.00000e+00	
2.27127   	4.93426e+00		         0.66667	-6.00000e+00	
2.27685   	5.01341e+00		         0.66833	-5.00000e+00	
2.28243   	4.99787e+00		         0.67000	-4.00000e+00	
2.28829   	5.01014e+00		         0.67167	-4.00000e+00	
2.29387   	4.98360e+00		         0.67333	-4.00000e+00	
2.29946   	4.99501e+00		         0.67500	-3.00000e+00	
2.30503   	4.95383e+00		         0.67667	-3.00000e+00	
2.31089   	4.99004e+00		         0.67833	-3.00000e+00	
2.31647   	4.96368e+00		         0.68000	-3.00000e+00	
2.32205   	4.97637e+00		         0.68167	-3.00000e+00	
2.32763   	4.96852e+00		         0.68333	-3.00000e+00	
2.33349   	4.94525e+00		         0.68500	-3.00000e+00	
2.33907   	4.90855e+00		         0.68667	-3.00000e+00	
2.34465   	4.90065e+00		         0.68833	-3.00000e+00	
2.35023   	4.90304e+00		         0.69000	-3.00000e+00	
2.35609   	4.83656e+00		         0.69167	-3.00000e+00	
2.36167   	4.78491e+00		         0.69333	-3.00000e+00	
2.36725   	4.69805e+00		         0.69500	-3.00000e+00	
2.37283   	4.59613e+00		         0.69667	-3.00000e+00	
2.37868   	4.43714e+00		         0.69833	-3.00000e+00	
2.38427   	4.27938e+00		         0.70000	-3.00000e+00	
2.38985   	4.16093e+00		         0.70167	-2.00000e+00	
2.39543   	4.03374e+00		         0.70333	-2.00000e+00	
2.40129   	3.89822e+00		         0.70500	-2.00000e+00	
2.40687   	3.84577e+00		         0.70667	-2.00000e+00	
2.41259   	3.78286e+00		         0.70833	-2.00000e+00	
2.41803   	3.72122e+00		         0.71000	-2.00000e+00	
2.42389   	3.65917e+00		         0.71167	-3.00000e+00	
2.42947   	3.60899e+00		         0.71333	-3.00000e+00	
2.43505   	3.49955e+00		         0.71500	-3.00000e+00	
2.44063   	3.34579e+00		         0.71667	-4.00000e+00	
2.44649   	3.19709e+00		         0.71833	-4.00000e+00	
2.45207   	3.02698e+00		         0.72000	-4.00000e+00	
2.45765   	2.85395e+00		         0.72167	-5.00000e+00	
2.46323   	2.64884e+00		         0.72333	-5.00000e+00	
2.46909   	2.46782e+00		         0.72500	-5.00000e+00	
2.47467   	2.29331e+00		         0.72667	-5.00000e+00	
2.48025   	2.10778e+00		         0.72833	-6.00000e+00	
2.48583   	1.82527e+00		         0.73000	-6.00000e+00	
2.49169   	1.55638e+00		         0.73167	-6.00000e+00	
2.49727   	1.30280e+00		         0.73333	-5.00000e+00	
2.50285   	9.04946e-01		         0.73500	-5.00000e+00	
2.50843   	4.16793e-01		         0.73667	-5.00000e+00	
2.51428   	-5.50040e-02		         0.73833	-4.00000e+00	
2.51987   	-3.75950e-01		         0.74000	-4.00000e+00	
2.52544   	-7.28617e-01		         0.74167	-4.00000e+00	
2.53103   	-7.61290e-01		         0.74333	-4.00000e+00	
2.53689   	-6.07854e-01		         0.74500	-3.00000e+00	
2.54247   	-4.66251e-01		         0.74667	-3.00000e+00	
2.54805   	-4.81992e-01		         0.74833	-2.00000e+00	
2.55363   	-5.05105e-01		         0.75000	-2.00000e+00	
2.55949   	-7.27957e-01		         0.75167	-2.00000e+00	
2.56507   	-9.46840e-01		         0.75333	-2.00000e+00	
2.57065   	-9.86723e-01		         0.75500	-2.00000e+00	
2.57623   	-1.20628e+00		         0.75667	-2.00000e+00	
2.58209   	-1.26503e+00		         0.75833	-3.00000e+00	
2.58767   	-1.54775e+00		         0.76000	-3.00000e+00	
2.59325   	-1.92029e+00		         0.76167	-2.00000e+00	
2.59883   	-2.55356e+00		         0.76333	-2.00000e+00	
2.60469   	-3.15470e+00		         0.76500	-2.00000e+00	
2.61026   	-3.82097e+00		         0.76667	-2.00000e+00	
2.61585   	-4.43017e+00		         0.76833	-1.00000e+00	
2.62143   	-5.06496e+00		         0.77000	-1.00000e+00	
2.62728   	-5.65355e+00		         0.77167	-1.00000e+00	
2.63287   	-6.07920e+00		         0.77333	0.00000e+00	
2.63844   	-6.60835e+00		         0.77500	0.00000e+00	
2.64403   	-6.89469e+00		         0.77667	0.00000e+00	
2.64988   	-7.11285e+00		         0.77833	1.00000e+00	
2.65547   	-7.13460e+00		         0.78000	1.00000e+00	
2.66105   	-7.03725e+00		         0.78167	1.00000e+00	
2.66663   	-6.64669e+00		         0.78333	1.00000e+00	
2.67249   	-6.31105e+00		         0.78500	1.00000e+00	
2.67831   	-5.85579e+00		         0.78667	1.00000e+00	
2.68365   	-5.45541e+00		         0.78833	1.00000e+00	
2.68923   	-5.08095e+00		         0.79000	1.00000e+00	
2.69508   	-4.75425e+00		         0.79167	1.00000e+00	
2.70067   	-4.56520e+00		         0.79333	1.00000e+00	
2.70625   	-4.36594e+00		         0.79500	1.00000e+00	
2.71183   	-4.13785e+00		         0.79667	1.00000e+00	
2.71768   	-3.88181e+00		         0.79833	1.00000e+00	
2.72327   	-3.68624e+00		         0.80000	1.00000e+00	
2.72885   	-3.31979e+00		         0.80167	1.00000e+00	
2.73443   	-3.05671e+00		         0.80333	1.00000e+00	
2.74028   	-2.79960e+00		         0.80500	1.00000e+00	
2.74586   	-2.54210e+00		         0.80667	1.00000e+00	
2.75144   	-2.32455e+00		         0.80833	0.00000e+00	
2.75703   	-2.11631e+00		         0.81000	0.00000e+00	
2.76288   	-1.91489e+00		         0.81167	-1.00000e+00	
2.76847   	-1.71420e+00		         0.81333	-1.00000e+00	
2.77405   	-1.70491e+00		         0.81500	-2.00000e+00	
2.77963   	-1.76393e+00		         0.81667	-2.00000e+00	
2.78548   	-1.71310e+00		         0.81833	-3.00000e+00	
2.79106   	-1.65429e+00		         0.82000	-3.00000e+00	
2.79665   	-1.58095e+00		         0.82167	-3.00000e+00	
2.80223   	-1.33947e+00		         0.82333	-3.00000e+00	
2.80808   	-9.87738e-01		         0.82500	-3.00000e+00	
2.81366   	-7.62460e-01		         0.82667	-2.00000e+00	
2.81925   	-5.77944e-01		         0.82833	-2.00000e+00	
2.82483   	-4.51638e-01		         0.83000	-1.00000e+00	
2.83068   	-3.60952e-01		         0.83167	-1.00000e+00	
2.83626   	-3.41022e-01		         0.83333	0.00000e+00	
2.84184   	-3.41212e-01		         0.83500	1.00000e+00	
2.84743   	-3.08805e-01		         0.83667	2.00000e+00	
2.85328   	-2.84562e-01		         0.83833	3.00000e+00	
2.85886   	-2.65876e-01		         0.84000	4.00000e+00	
2.86444   	-2.63672e-01		         0.84167	5.00000e+00	
2.87003   	-2.58500e-01		         0.84333	6.00000e+00	
2.87588   	-2.82667e-01		         0.84500	6.00000e+00	
2.88146   	-2.76709e-01		         0.84667	7.00000e+00	
2.88705   	-2.91055e-01		         0.84833	8.00000e+00	
2.89263   	-2.99245e-01		         0.85000	8.00000e+00	
2.89848   	-3.22345e-01		         0.85167	8.00000e+00	
2.90406   	-3.40706e-01		         0.85333	9.00000e+00	
2.90964   	-3.77383e-01		         0.85500	9.00000e+00	
2.91523   	-4.27677e-01		         0.85667	8.00000e+00	
2.92108   	-5.00407e-01		         0.85833	8.00000e+00	
2.92666   	-5.93746e-01		         0.86000	8.00000e+00	
2.93225   	-7.27880e-01		         0.86167	8.00000e+00	
2.93783   	-9.14129e-01		         0.86333	8.00000e+00	
2.94368   	-1.09664e+00		         0.86500	8.00000e+00	
2.94926   	-1.42053e+00		         0.86667	8.00000e+00	
2.95485   	-1.64362e+00		         0.86833	8.00000e+00	
2.96061   	-2.02032e+00		         0.87000	8.00000e+00	
2.96628   	-2.25064e+00		         0.87167	8.00000e+00	
2.97186   	-2.56519e+00		         0.87333	8.00000e+00	
2.97744   	-2.87922e+00		         0.87500	8.00000e+00	
2.98303   	-3.33815e+00		         0.87667	8.00000e+00	
2.98888   	-3.66257e+00		         0.87833	9.00000e+00	
2.99446   	-4.13312e+00		         0.88000	9.00000e+00	
3.00005   	-4.48109e+00		         0.88167	9.00000e+00	
3.00563   	-4.78581e+00		         0.88333	9.00000e+00	
3.01148   	-5.04930e+00		         0.88500	9.00000e+00	
3.01706   	-5.19175e+00		         0.88667	9.00000e+00	
3.02264   	-5.18539e+00		         0.88833	9.00000e+00	
3.02823   	-5.18310e+00		         0.89000	9.00000e+00	
3.03408   	-4.97909e+00		         0.89167	9.00000e+00	
3.03967   	-4.57771e+00		         0.89333	8.00000e+00	
3.04524   	-4.08112e+00		         0.89500	8.00000e+00	
3.05083   	-3.77752e+00		         0.89667	7.00000e+00	
3.05668   	-3.48338e+00		         0.89833	7.00000e+00	
3.06226   	-3.14556e+00		         0.90000	6.00000e+00	
3.06784   	-2.94524e+00		         0.90167	6.00000e+00	
3.07343   	-2.79469e+00		         0.90333	6.00000e+00	
3.07928   	-2.49104e+00		         0.90500	6.00000e+00	
3.08486   	-2.23954e+00		         0.90667	6.00000e+00	
3.09044   	-2.09275e+00		         0.90833	6.00000e+00	
3.09603   	-1.70842e+00		         0.91000	6.00000e+00	
3.10188   	-1.29879e+00		         0.91167	7.00000e+00	
3.10746   	-5.78362e-01		         0.91333	7.00000e+00	
3.11304   	5.35869e-01		         0.91500	7.00000e+00	
3.11863   	1.49896e+00		         0.91667	7.00000e+00	
3.12448   	2.02640e+00		         0.91833	7.00000e+00	
3.13006   	2.70977e+00		         0.92000	7.00000e+00	
			         0.92167	7.00000e+00	
			         0.92333	7.00000e+00	
			         0.92500	6.00000e+00	
			         0.92667	6.00000e+00	
			         0.92833	5.00000e+00	
			         0.93000	5.00000e+00	
			         0.93167	5.00000e+00	
			         0.93333	4.00000e+00	
			         0.93500	4.00000e+00	
			         0.93667	4.00000e+00	
			         0.93833	4.00000e+00	
			         0.94000	4.00000e+00	
			         0.94167	4.00000e+00	
			         0.94333	4.00000e+00	
			         0.94500	4.00000e+00	
			         0.94667	3.00000e+00	
			         0.94833	3.00000e+00	
			         0.95000	2.00000e+00	
			         0.95167	1.00000e+00	
			         0.95333	1.00000e+00	
			         0.95500	0.00000e+00	
			         0.95667	-1.00000e+00	
			         0.95833	-3.00000e+00	
			         0.96000	-4.00000e+00	
			         0.96167	-5.00000e+00	
			         0.96333	-6.00000e+00	
			         0.96500	-7.00000e+00	
			         0.96667	-8.00000e+00	
			         0.96833	-9.00000e+00	
			         0.97000	-1.00000e+01	
			         0.97167	-1.10000e+01	
			         0.97333	-1.20000e+01	
			         0.97500	-1.20000e+01	
			         0.97667	-1.30000e+01	
			         0.97833	-1.30000e+01	
			         0.98000	-1.40000e+01	
			         0.98167	-1.40000e+01	
			         0.98333	-1.40000e+01	
			         0.98500	-1.40000e+01	
			         0.98667	-1.40000e+01	
			         0.98833	-1.40000e+01	
			         0.99000	-1.40000e+01	
			         0.99167	-1.30000e+01	
			         0.99333	-1.30000e+01	
			         0.99500	-1.30000e+01	
			         0.99667	-1.20000e+01	
			         0.99833	-1.20000e+01	
			         1.00000	-1.20000e+01	
			         1.00167	-1.10000e+01	
			         1.00333	-1.10000e+01	
			         1.00500	-1.10000e+01	
			         1.00667	-1.10000e+01	
			         1.00833	-1.20000e+01	
			         1.01000	-1.20000e+01	
			         1.01167	-1.30000e+01	
			         1.01333	-1.40000e+01	
			         1.01500	-1.50000e+01	
			         1.01667	-1.60000e+01	
			         1.01833	-1.70000e+01	
			         1.02000	-1.80000e+01	
			         1.02167	-1.80000e+01	
			         1.02333	-1.80000e+01	
			         1.02500	-1.70000e+01	
			         1.02667	-1.50000e+01	
			         1.02833	-1.20000e+01	
			         1.03000	-7.00000e+00	
			         1.03167	-1.00000e+00	
			         1.03333	7.00000e+00	
			         1.03500	1.70000e+01	
			         1.03667	2.80000e+01	
			         1.03833	4.00000e+01	
			         1.04000	5.50000e+01	
			         1.04167	7.10000e+01	
			         1.04333	8.80000e+01	
			         1.04500	1.08000e+02	
			         1.04667	1.29000e+02	
			         1.04833	1.52000e+02	
			         1.05000	1.75000e+02	
			         1.05167	2.00000e+02	
			         1.05333	2.24000e+02	
			         1.05500	2.48000e+02	
			         1.05667	2.72000e+02	
			         1.05833	2.93000e+02	
			         1.06000	3.12000e+02	
			         1.06167	3.28000e+02	
			         1.06333	3.40000e+02	
			         1.06500	3.47000e+02	
			         1.06667	3.49000e+02	
			         1.06833	3.46000e+02	
			         1.07000	3.37000e+02	
			         1.07167	3.24000e+02	
			         1.07333	3.05000e+02	
			         1.07500	2.83000e+02	
			         1.07667	2.57000e+02	
			         1.07833	2.29000e+02	
			         1.08000	1.99000e+02	
			         1.08167	1.68000e+02	
			         1.08333	1.37000e+02	
			         1.08500	1.07000e+02	
			         1.08667	7.80000e+01	
			         1.08833	5.10000e+01	
			         1.09000	2.60000e+01	
			         1.09167	4.00000e+00	
			         1.09333	-1.60000e+01	
			         1.09500	-3.20000e+01	
			         1.09667	-4.70000e+01	
			         1.09833	-5.80000e+01	
			         1.10000	-6.80000e+01	
			         1.10167	-7.50000e+01	
			         1.10333	-8.10000e+01	
			         1.10500	-8.60000e+01	
			         1.10667	-8.90000e+01	
			         1.10833	-9.20000e+01	
			         1.11000	-9.40000e+01	
			         1.11167	-9.50000e+01	
			         1.11333	-9.60000e+01	
			         1.11500	-9.70000e+01	
			         1.11667	-9.70000e+01	
			         1.11833	-9.70000e+01	
			         1.12000	-9.70000e+01	
			         1.12167	-9.70000e+01	
			         1.12333	-9.70000e+01	
			         1.12500	-9.70000e+01	
			         1.12667	-9.60000e+01	
			         1.12833	-9.50000e+01	
			         1.13000	-9.30000e+01	
			         1.13167	-9.20000e+01	
			         1.13333	-9.10000e+01	
			         1.13500	-8.90000e+01	
			         1.13667	-8.70000e+01	
			         1.13833	-8.50000e+01	
			         1.14000	-8.30000e+01	
			         1.14167	-8.10000e+01	
			         1.14333	-7.80000e+01	
			         1.14500	-7.60000e+01	
			         1.14667	-7.40000e+01	
			         1.14833	-7.20000e+01	
			         1.15000	-7.00000e+01	
			         1.15167	-6.90000e+01	
			         1.15333	-6.70000e+01	
			         1.15500	-6.60000e+01	
			         1.15667	-6.40000e+01	
			         1.15833	-6.30000e+01	
			         1.16000	-6.20000e+01	
			         1.16167	-6.10000e+01	
			         1.16333	-6.00000e+01	
			         1.16500	-5.90000e+01	
			         1.16667	-5.80000e+01	
			         1.16833	-5.70000e+01	
			         1.17000	-5.50000e+01	
			         1.17167	-5.40000e+01	
			         1.17333	-5.20000e+01	
			         1.17500	-5.10000e+01	
			         1.17667	-4.90000e+01	
			         1.17833	-4.70000e+01	
			         1.18000	-4.60000e+01	
			         1.18167	-4.40000e+01	
			         1.18333	-4.20000e+01	
			         1.18500	-4.10000e+01	
			         1.18667	-3.90000e+01	
			         1.18833	-3.80000e+01	
			         1.19000	-3.70000e+01	
			         1.19167	-3.50000e+01	
			         1.19333	-3.40000e+01	
			         1.19500	-3.30000e+01	
			         1.19667	-3.10000e+01	
			         1.19833	-3.00000e+01	
			         1.20000	-2.80000e+01	
			         1.20167	-2.70000e+01	
			         1.20333	-2.50000e+01	
			         1.20500	-2.40000e+01	
			         1.20667	-2.30000e+01	
			         1.20833	-2.20000e+01	
			         1.21000	-2.10000e+01	
			         1.21167	-1.90000e+01	
			         1.21333	-1.90000e+01	
			         1.21500	-1.80000e+01	
			         1.21667	-1.70000e+01	
			         1.21833	-1.60000e+01	
			         1.22000	-1.60000e+01	
			         1.22167	-1.50000e+01	
			         1.22333	-1.40000e+01	
			         1.22500	-1.30000e+01	
			         1.22667	-1.20000e+01	
			         1.22833	-1.10000e+01	
			         1.23000	-9.00000e+00	
			         1.23167	-8.00000e+00	
			         1.23333	-7.00000e+00	
			         1.23500	-6.00000e+00	
			         1.23667	-4.00000e+00	
			         1.23833	-3.00000e+00	
			         1.24000	-1.00000e+00	
			         1.24167	0.00000e+00	
			         1.24333	1.00000e+00	
			         1.24500	3.00000e+00	
			         1.24667	5.00000e+00	
			         1.24833	7.00000e+00	
			         1.25000	9.00000e+00	
			         1.25167	1.10000e+01	
			         1.25333	1.30000e+01	
			         1.25500	1.50000e+01	
			         1.25667	1.70000e+01	
			         1.25833	1.90000e+01	
			         1.26000	2.10000e+01	
			         1.26167	2.30000e+01	
			         1.26333	2.50000e+01	
			         1.26500	2.70000e+01	
			         1.26667	2.90000e+01	
			         1.26833	3.10000e+01	
			         1.27000	3.30000e+01	
			         1.27167	3.50000e+01	
			         1.27333	3.70000e+01	
			         1.27500	3.90000e+01	
			         1.27667	4.10000e+01	
			         1.27833	4.30000e+01	
			         1.28000	4.50000e+01	
			         1.28167	4.70000e+01	
			         1.28333	4.90000e+01	
			         1.28500	5.20000e+01	
			         1.28667	5.40000e+01	
			         1.28833	5.60000e+01	
			         1.29000	5.80000e+01	
			         1.29167	6.00000e+01	
			         1.29333	6.20000e+01	
			         1.29500	6.40000e+01	
			         1.29667	6.60000e+01	
			         1.29833	6.80000e+01	
			         1.30000	7.00000e+01	
			         1.30167	7.10000e+01	
			         1.30333	7.30000e+01	
			         1.30500	7.40000e+01	
			         1.30667	7.60000e+01	
			         1.30833	7.70000e+01	
			         1.31000	7.80000e+01	
			         1.31167	7.90000e+01	
			         1.31333	7.90000e+01	
			         1.31500	7.90000e+01	
			         1.31667	7.90000e+01	
			         1.31833	7.90000e+01	
			         1.32000	7.80000e+01	
			         1.32167	7.80000e+01	
			         1.32333	7.70000e+01	
			         1.32500	7.60000e+01	
			         1.32667	7.50000e+01	
			         1.32833	7.30000e+01	
			         1.33000	7.20000e+01	
			         1.33167	7.00000e+01	
			         1.33333	6.80000e+01	
			         1.33500	6.60000e+01	
			         1.33667	6.40000e+01	
			         1.33833	6.10000e+01	
			         1.34000	5.80000e+01	
			         1.34167	5.50000e+01	
			         1.34333	5.20000e+01	
			         1.34500	4.80000e+01	
			         1.34667	4.40000e+01	
			         1.34833	3.90000e+01	
			         1.35000	3.40000e+01	
			         1.35167	2.90000e+01	
			         1.35333	2.40000e+01	
			         1.35500	1.80000e+01	
			         1.35667	1.20000e+01	
			         1.35833	6.00000e+00	
			         1.36000	0.00000e+00	
			         1.36167	-6.00000e+00	
			         1.36333	-1.20000e+01	
			         1.36500	-1.70000e+01	
			         1.36667	-2.30000e+01	
			         1.36833	-2.80000e+01	
			         1.37000	-3.30000e+01	
			         1.37167	-3.80000e+01	
			         1.37333	-4.20000e+01	
			         1.37500	-4.50000e+01	
			         1.37667	-4.90000e+01	
			         1.37833	-5.20000e+01	
			         1.38000	-5.50000e+01	
			         1.38167	-5.70000e+01	
			         1.38333	-6.00000e+01	
			         1.38500	-6.20000e+01	
			         1.38667	-6.50000e+01	
			         1.38833	-6.70000e+01	
			         1.39000	-6.90000e+01	
			         1.39167	-7.00000e+01	
			         1.39333	-7.20000e+01	
			         1.39500	-7.40000e+01	
			         1.39667	-7.50000e+01	
			         1.39833	-7.70000e+01	
			         1.40000	-7.80000e+01	
			         1.40167	-7.80000e+01	
			         1.40333	-7.90000e+01	
			         1.40500	-7.90000e+01	
			         1.40667	-8.00000e+01	
			         1.40833	-8.00000e+01	
			         1.41000	-7.90000e+01	
			         1.41167	-7.90000e+01	
			         1.41333	-7.80000e+01	
			         1.41500	-7.80000e+01	
			         1.41667	-7.70000e+01	
			         1.41833	-7.60000e+01	
			         1.42000	-7.50000e+01	
			         1.42167	-7.40000e+01	
			         1.42333	-7.30000e+01	
			         1.42500	-7.20000e+01	
			         1.42667	-7.10000e+01	
			         1.42833	-7.00000e+01	
			         1.43000	-6.90000e+01	
			         1.43167	-6.70000e+01	
			         1.43333	-6.60000e+01	
			         1.43500	-6.50000e+01	
			         1.43667	-6.40000e+01	
			         1.43833	-6.20000e+01	
			         1.44000	-6.10000e+01	
			         1.44167	-6.00000e+01	
			         1.44333	-5.80000e+01	
			         1.44500	-5.70000e+01	
			         1.44667	-5.60000e+01	
			         1.44833	-5.50000e+01	
			         1.45000	-5.40000e+01	
			         1.45167	-5.30000e+01	
			         1.45333	-5.10000e+01	
			         1.45500	-5.00000e+01	
			         1.45667	-4.90000e+01	
			         1.45833	-4.80000e+01	
			         1.46000	-4.60000e+01	
			         1.46167	-4.50000e+01	
			         1.46333	-4.30000e+01	
			         1.46500	-4.10000e+01	
			         1.46667	-3.90000e+01	
			         1.46833	-3.80000e+01	
			         1.47000	-3.60000e+01	
			         1.47167	-3.50000e+01	
			         1.47333	-3.40000e+01	
			         1.47500	-3.30000e+01	
			         1.47667	-3.20000e+01	
			         1.47833	-3.20000e+01	
			         1.48000	-3.10000e+01	
			         1.48167	-3.10000e+01	
			         1.48333	-3.10000e+01	
			         1.48500	-3.10000e+01	
			         1.48667	-3.10000e+01	
			         1.48833	-3.10000e+01	
			         1.49000	-3.10000e+01	
			         1.49167	-3.10000e+01	
			         1.49333	-3.00000e+01	
			         1.49500	-3.00000e+01	
			         1.49667	-3.00000e+01	
			         1.49833	-2.90000e+01	
			         1.50000	-2.90000e+01	
			         1.50167	-2.80000e+01	
			         1.50333	-2.70000e+01	
			         1.50500	-2.60000e+01	
			         1.50667	-2.50000e+01	
			         1.50833	-2.40000e+01	
			         1.51000	-2.30000e+01	
			         1.51167	-2.20000e+01	
			         1.51333	-2.20000e+01	
			         1.51500	-2.10000e+01	
			         1.51667	-2.10000e+01	
			         1.51833	-2.10000e+01	
			         1.52000	-2.10000e+01	
			         1.52167	-2.10000e+01	
			         1.52333	-2.10000e+01	
			         1.52500	-2.10000e+01	
			         1.52667	-2.10000e+01	
			         1.52833	-2.10000e+01	
			         1.53000	-2.00000e+01	
			         1.53167	-2.00000e+01	
			         1.53333	-1.90000e+01	
			         1.53500	-1.80000e+01	
			         1.53667	-1.80000e+01	
			         1.53833	-1.70000e+01	
			         1.54000	-1.60000e+01	
			         1.54167	-1.50000e+01	
			         1.54333	-1.50000e+01	
			         1.54500	-1.40000e+01	
			         1.54667	-1.30000e+01	
			         1.54833	-1.30000e+01	
			         1.55000	-1.20000e+01	
			         1.55167	-1.20000e+01	
			         1.55333	-1.10000e+01	
			         1.55500	-1.10000e+01	
			         1.55667	-1.10000e+01	
			         1.55833	-1.10000e+01	
			         1.56000	-1.10000e+01	
			         1.56167	-1.10000e+01	
			         1.56333	-1.10000e+01	
			         1.56500	-1.10000e+01	
			         1.56667	-1.10000e+01	
			         1.56833	-1.10000e+01	
			         1.57000	-1.10000e+01	
			         1.57167	-1.00000e+01	
			         1.57333	-9.00000e+00	
			         1.57500	-8.00000e+00	
			         1.57667	-7.00000e+00	
			         1.57833	-6.00000e+00	
			         1.58000	-5.00000e+00	
			         1.58167	-4.00000e+00	
			         1.58333	-3.00000e+00	
			         1.58500	-2.00000e+00	
			         1.58667	-1.00000e+00	
			         1.58833	-1.00000e+00	
			         1.59000	-1.00000e+00	
			         1.59167	-1.00000e+00	
			         1.59333	-1.00000e+00	
			         1.59500	-2.00000e+00	
			         1.59667	-3.00000e+00	
			         1.59833	-4.00000e+00	
			         1.60000	-5.00000e+00	
			         1.60167	-5.00000e+00	
			         1.60333	-6.00000e+00	
			         1.60500	-7.00000e+00	
			         1.60667	-7.00000e+00	
			         1.60833	-7.00000e+00	
			         1.61000	-8.00000e+00	
			         1.61167	-8.00000e+00	
			         1.61333	-7.00000e+00	
			         1.61500	-7.00000e+00	
			         1.61667	-7.00000e+00	
			         1.61833	-6.00000e+00	
			         1.62000	-6.00000e+00	
			         1.62167	-5.00000e+00	
			         1.62333	-4.00000e+00	
			         1.62500	-4.00000e+00	
			         1.62667	-4.00000e+00	
			         1.62833	-3.00000e+00	
			         1.63000	-3.00000e+00	
			         1.63167	-4.00000e+00	
			         1.63333	-4.00000e+00	
			         1.63500	-5.00000e+00	
			         1.63667	-5.00000e+00	
			         1.63833	-5.00000e+00	
			         1.64000	-6.00000e+00	
			         1.64167	-6.00000e+00	
			         1.64333	-6.00000e+00	
			         1.64500	-6.00000e+00	
			         1.64667	-5.00000e+00	
			         1.64833	-5.00000e+00	
			         1.65000	-4.00000e+00	
			         1.65167	-3.00000e+00	
			         1.65333	-2.00000e+00	
			         1.65500	-1.00000e+00	
			         1.65667	-1.00000e+00	
			         1.65833	0.00000e+00	
			         1.66000	0.00000e+00	
			         1.66167	0.00000e+00	
			         1.66333	0.00000e+00	
			         1.66500	-1.00000e+00	
			         1.66667	-1.00000e+00	
			         1.66833	-2.00000e+00	
			         1.67000	-3.00000e+00	
			         1.67167	-3.00000e+00	
			         1.67333	-4.00000e+00	
			         1.67500	-5.00000e+00	
			         1.67667	-6.00000e+00	
			         1.67833	-6.00000e+00	
			         1.68000	-6.00000e+00	
			         1.68167	-7.00000e+00	
			         1.68333	-7.00000e+00	
			         1.68500	-7.00000e+00	
			         1.68667	-7.00000e+00	
			         1.68833	-7.00000e+00	
			         1.69000	-7.00000e+00	
			         1.69167	-7.00000e+00	
			         1.69333	-7.00000e+00	
			         1.69500	-6.00000e+00	
			         1.69667	-6.00000e+00	
			         1.69833	-6.00000e+00	
			         1.70000	-5.00000e+00	
			         1.70167	-4.00000e+00	
			         1.70333	-4.00000e+00	
			         1.70500	-4.00000e+00	
			         1.70667	-4.00000e+00	
			         1.70833	-4.00000e+00	
			         1.71000	-4.00000e+00	
			         1.71167	-4.00000e+00	
			         1.71333	-4.00000e+00	
			         1.71500	-5.00000e+00	
			         1.71667	-5.00000e+00	
			         1.71833	-5.00000e+00	
			         1.72000	-4.00000e+00	
			         1.72167	-4.00000e+00	
			         1.72333	-4.00000e+00	
			         1.72500	-3.00000e+00	
			         1.72667	-2.00000e+00	
			         1.72833	-2.00000e+00	
			         1.73000	-1.00000e+00	
			         1.73167	0.00000e+00	
			         1.73333	0.00000e+00	
			         1.73500	1.00000e+00	
			         1.73667	1.00000e+00	
			         1.73833	1.00000e+00	
			         1.74000	0.00000e+00	
			         1.74167	0.00000e+00	
			         1.74333	0.00000e+00	
			         1.74500	-1.00000e+00	
			         1.74667	-1.00000e+00	
			         1.74833	-2.00000e+00	
			         1.75000	-3.00000e+00	
			         1.75167	-4.00000e+00	
			         1.75333	-4.00000e+00	
			         1.75500	-5.00000e+00	
			         1.75667	-6.00000e+00	
			         1.75833	-7.00000e+00	
			         1.76000	-8.00000e+00	
			         1.76167	-8.00000e+00	
			         1.76333	-8.00000e+00	
			         1.76500	-8.00000e+00	
			         1.76667	-8.00000e+00	
			         1.76833	-7.00000e+00	
			         1.77000	-7.00000e+00	
			         1.77167	-6.00000e+00	
			         1.77333	-5.00000e+00	
			         1.77500	-4.00000e+00	
			         1.77667	-3.00000e+00	
			         1.77833	-2.00000e+00	
			         1.78000	-1.00000e+00	
			         1.78167	0.00000e+00	
			         1.78333	1.00000e+00	
			         1.78500	1.00000e+00	
			         1.78667	1.00000e+00	
			         1.78833	1.00000e+00	
			         1.79000	1.00000e+00	
			         1.79167	1.00000e+00	
			         1.79333	0.00000e+00	
			         1.79500	0.00000e+00	
			         1.79667	-1.00000e+00	
			         1.79833	-1.00000e+00	
			         1.80000	-2.00000e+00	
			         1.80167	-2.00000e+00	
			         1.80333	-2.00000e+00	
			         1.80500	-2.00000e+00	
			         1.80667	-2.00000e+00	
			         1.80833	-2.00000e+00	
			         1.81000	-2.00000e+00	
			         1.81167	-1.00000e+00	
			         1.81333	-1.00000e+00	
			         1.81500	0.00000e+00	
			         1.81667	0.00000e+00	
			         1.81833	0.00000e+00	
			         1.82000	0.00000e+00	
			         1.82167	0.00000e+00	
			         1.82333	0.00000e+00	
			         1.82500	0.00000e+00	
			         1.82667	0.00000e+00	
			         1.82833	-1.00000e+00	
			         1.83000	-2.00000e+00	
			         1.83167	-2.00000e+00	
			         1.83333	-3.00000e+00	
			         1.83500	-3.00000e+00	
			         1.83667	-4.00000e+00	
			         1.83833	-4.00000e+00	
			         1.84000	-4.00000e+00	
			         1.84167	-4.00000e+00	
			         1.84333	-4.00000e+00	
			         1.84500	-4.00000e+00	
			         1.84667	-4.00000e+00	
			         1.84833	-3.00000e+00	
			         1.85000	-3.00000e+00	
			         1.85167	-3.00000e+00	
			         1.85333	-3.00000e+00	
			         1.85500	-2.00000e+00	
			         1.85667	-2.00000e+00	
			         1.85833	-2.00000e+00	
			         1.86000	-3.00000e+00	
			         1.86167	-3.00000e+00	
			         1.86333	-3.00000e+00	
			         1.86500	-3.00000e+00	
			         1.86667	-3.00000e+00	
			         1.86833	-3.00000e+00	
			         1.87000	-2.00000e+00	
			         1.87167	-2.00000e+00	
			         1.87333	-2.00000e+00	
			         1.87500	-1.00000e+00	
			         1.87667	0.00000e+00	
			         1.87833	0.00000e+00	
			         1.88000	1.00000e+00	
			         1.88167	2.00000e+00	
			         1.88333	2.00000e+00	
			         1.88500	2.00000e+00	
			         1.88667	3.00000e+00	
			         1.88833	3.00000e+00	
			         1.89000	3.00000e+00	
			         1.89167	3.00000e+00	
			         1.89333	3.00000e+00	
			         1.89500	3.00000e+00	
			         1.89667	3.00000e+00	
			         1.89833	3.00000e+00	
			         1.90000	3.00000e+00	
			         1.90167	3.00000e+00	
			         1.90333	3.00000e+00	
			         1.90500	3.00000e+00	
			         1.90667	4.00000e+00	
			         1.90833	5.00000e+00	
			         1.91000	6.00000e+00	
			         1.91167	7.00000e+00	
			         1.91333	8.00000e+00	
			         1.91500	9.00000e+00	
			         1.91667	1.00000e+01	
			         1.91833	1.10000e+01	
			         1.92000	1.20000e+01	
			         1.92167	1.20000e+01	
			         1.92333	1.20000e+01	
			         1.92500	1.20000e+01	
			         1.92667	1.10000e+01	
			         1.92833	1.10000e+01	
			         1.93000	1.00000e+01	
			         1.93167	9.00000e+00	
			         1.93333	9.00000e+00	
			         1.93500	8.00000e+00	
			         1.93667	7.00000e+00	
			         1.93833	7.00000e+00	
			         1.94000	6.00000e+00	
			         1.94167	6.00000e+00	
			         1.94333	6.00000e+00	
			         1.94500	6.00000e+00	
			         1.94667	6.00000e+00	
			         1.94833	5.00000e+00	
			         1.95000	5.00000e+00	
			         1.95167	5.00000e+00	
			         1.95333	5.00000e+00	
			         1.95500	5.00000e+00	
			         1.95667	5.00000e+00	
			         1.95833	5.00000e+00	
			         1.96000	5.00000e+00	
			         1.96167	5.00000e+00	
			         1.96333	5.00000e+00	
			         1.96500	5.00000e+00	
			         1.96667	5.00000e+00	
			         1.96833	5.00000e+00	
			         1.97000	4.00000e+00	
			         1.97167	4.00000e+00	
			         1.97333	3.00000e+00	
			         1.97500	3.00000e+00	
			         1.97667	2.00000e+00	
			         1.97833	1.00000e+00	
			         1.98000	0.00000e+00	
			         1.98167	0.00000e+00	
			         1.98333	-1.00000e+00	
			         1.98500	-1.00000e+00	
			         1.98667	-1.00000e+00	
			         1.98833	-1.00000e+00	
			         1.99000	-1.00000e+00	
			         1.99167	-1.00000e+00	
			         1.99333	-1.00000e+00	
			         1.99500	0.00000e+00	
			         1.99667	0.00000e+00	
			         1.99833	1.00000e+00	
			         2.00000	2.00000e+00	
			         2.00167	2.00000e+00	
			         2.00333	3.00000e+00	
			         2.00500	3.00000e+00	
			         2.00667	3.00000e+00	
			         2.00833	3.00000e+00	
			         2.01000	3.00000e+00	
			         2.01167	2.00000e+00	
			         2.01333	2.00000e+00	
			         2.01500	1.00000e+00	
			         2.01667	0.00000e+00	
			         2.01833	-1.00000e+00	
			         2.02000	-2.00000e+00	
			         2.02167	-4.00000e+00	
			         2.02333	-5.00000e+00	
			         2.02500	-7.00000e+00	
			         2.02667	-8.00000e+00	
			         2.02833	-9.00000e+00	
			         2.03000	-1.00000e+01	
			         2.03167	-1.00000e+01	
			         2.03333	-1.10000e+01	
			         2.03500	-1.10000e+01	
			         2.03667	-1.10000e+01	
			         2.03833	-1.10000e+01	
			         2.04000	-1.00000e+01	
			         2.04167	-1.00000e+01	
			         2.04333	-1.00000e+01	
			         2.04500	-1.00000e+01	
			         2.04667	-1.00000e+01	
			         2.04833	-1.00000e+01	
			         2.05000	-1.00000e+01	
			         2.05167	-1.00000e+01	
			         2.05333	-1.00000e+01	
			         2.05500	-1.00000e+01	
			         2.05667	-1.00000e+01	
			         2.05833	-1.10000e+01	
			         2.06000	-1.10000e+01	
			         2.06167	-1.10000e+01	
			         2.06333	-1.20000e+01	
			         2.06500	-1.20000e+01	
			         2.06667	-1.30000e+01	
			         2.06833	-1.40000e+01	
			         2.07000	-1.60000e+01	
			         2.07167	-1.70000e+01	
			         2.07333	-1.90000e+01	
			         2.07500	-2.00000e+01	
			         2.07667	-2.00000e+01	
			         2.07833	-2.10000e+01	
			         2.08000	-2.00000e+01	
			         2.08167	-1.80000e+01	
			         2.08333	-1.50000e+01	
			         2.08500	-1.00000e+01	
			         2.08667	-4.00000e+00	
			         2.08833	4.00000e+00	
			         2.09000	1.30000e+01	
			         2.09167	2.40000e+01	
			         2.09333	3.60000e+01	
			         2.09500	5.10000e+01	
			         2.09667	6.60000e+01	
			         2.09833	8.40000e+01	
			         2.10000	1.03000e+02	
			         2.10167	1.24000e+02	
			         2.10333	1.46000e+02	
			         2.10500	1.69000e+02	
			         2.10667	1.93000e+02	
			         2.10833	2.17000e+02	
			         2.11000	2.41000e+02	
			         2.11167	2.64000e+02	
			         2.11333	2.85000e+02	
			         2.11500	3.05000e+02	
			         2.11667	3.22000e+02	
			         2.11833	3.35000e+02	
			         2.12000	3.44000e+02	
			         2.12167	3.49000e+02	
			         2.12333	3.49000e+02	
			         2.12500	3.43000e+02	
			         2.12667	3.33000e+02	
			         2.12833	3.18000e+02	
			         2.13000	2.98000e+02	
			         2.13167	2.74000e+02	
			         2.13333	2.48000e+02	
			         2.13500	2.19000e+02	
			         2.13667	1.88000e+02	
			         2.13833	1.57000e+02	
			         2.14000	1.26000e+02	
			         2.14167	9.60000e+01	
			         2.14333	6.70000e+01	
			         2.14500	4.10000e+01	
			         2.14667	1.60000e+01	
			         2.14833	-5.00000e+00	
			         2.15000	-2.40000e+01	
			         2.15167	-3.90000e+01	
			         2.15333	-5.30000e+01	
			         2.15500	-6.30000e+01	
			         2.15667	-7.20000e+01	
			         2.15833	-7.90000e+01	
			         2.16000	-8.40000e+01	
			         2.16167	-8.80000e+01	
			         2.16333	-9.10000e+01	
			         2.16500	-9.30000e+01	
			         2.16667	-9.40000e+01	
			         2.16833	-9.50000e+01	
			         2.17000	-9.60000e+01	
			         2.17167	-9.60000e+01	
			         2.17333	-9.60000e+01	
			         2.17500	-9.60000e+01	
			         2.17667	-9.60000e+01	
			         2.17833	-9.60000e+01	
			         2.18000	-9.50000e+01	
			         2.18167	-9.50000e+01	
			         2.18333	-9.40000e+01	
			         2.18500	-9.30000e+01	
			         2.18667	-9.20000e+01	
			         2.18833	-9.00000e+01	
			         2.19000	-8.90000e+01	
			         2.19167	-8.70000e+01	
			         2.19333	-8.40000e+01	
			         2.19500	-8.20000e+01	
			         2.19667	-8.00000e+01	
			         2.19833	-7.80000e+01	
			         2.20000	-7.50000e+01	
			         2.20167	-7.30000e+01	
			         2.20333	-7.20000e+01	
			         2.20500	-7.00000e+01	
			         2.20667	-6.90000e+01	
			         2.20833	-6.70000e+01	
			         2.21000	-6.60000e+01	
			         2.21167	-6.50000e+01	
			         2.21333	-6.40000e+01	
			         2.21500	-6.30000e+01	
			         2.21667	-6.20000e+01	
			         2.21833	-6.10000e+01	
			         2.22000	-5.90000e+01	
			         2.22167	-5.80000e+01	
			         2.22333	-5.60000e+01	
			         2.22500	-5.50000e+01	
			         2.22667	-5.30000e+01	
			         2.22833	-5.10000e+01	
			         2.23000	-5.00000e+01	
			         2.23167	-4.80000e+01	
			         2.23333	-4.70000e+01	
			         2.23500	-4.50000e+01	
			         2.23667	-4.40000e+01	
			         2.23833	-4.30000e+01	
			         2.24000	-4.20000e+01	
			         2.24167	-4.10000e+01	
			         2.24333	-4.10000e+01	
			         2.24500	-4.00000e+01	
			         2.24667	-3.90000e+01	
			         2.24833	-3.80000e+01	
			         2.25000	-3.70000e+01	
			         2.25167	-3.60000e+01	
			         2.25333	-3.50000e+01	
			         2.25500	-3.40000e+01	
			         2.25667	-3.20000e+01	
			         2.25833	-3.10000e+01	
			         2.26000	-2.90000e+01	
			         2.26167	-2.80000e+01	
			         2.26333	-2.70000e+01	
			         2.26500	-2.50000e+01	
			         2.26667	-2.40000e+01	
			         2.26833	-2.20000e+01	
			         2.27000	-2.10000e+01	
			         2.27167	-1.90000e+01	
			         2.27333	-1.80000e+01	
			         2.27500	-1.60000e+01	
			         2.27667	-1.50000e+01	
			         2.27833	-1.40000e+01	
			         2.28000	-1.20000e+01	
			         2.28167	-1.00000e+01	
			         2.28333	-9.00000e+00	
			         2.28500	-7.00000e+00	
			         2.28667	-5.00000e+00	
			         2.28833	-4.00000e+00	
			         2.29000	-2.00000e+00	
			         2.29167	-1.00000e+00	
			         2.29333	1.00000e+00	
			         2.29500	2.00000e+00	
			         2.29667	3.00000e+00	
			         2.29833	4.00000e+00	
			         2.30000	5.00000e+00	
			         2.30167	6.00000e+00	
			         2.30333	7.00000e+00	
			         2.30500	9.00000e+00	
			         2.30667	1.00000e+01	
			         2.30833	1.10000e+01	
			         2.31000	1.30000e+01	
			         2.31167	1.50000e+01	
			         2.31333	1.70000e+01	
			         2.31500	1.90000e+01	
			         2.31667	2.10000e+01	
			         2.31833	2.40000e+01	
			         2.32000	2.60000e+01	
			         2.32167	2.80000e+01	
			         2.32333	3.00000e+01	
			         2.32500	3.30000e+01	
			         2.32667	3.50000e+01	
			         2.32833	3.70000e+01	
			         2.33000	3.90000e+01	
			         2.33167	4.00000e+01	
			         2.33333	4.20000e+01	
			         2.33500	4.40000e+01	
			         2.33667	4.60000e+01	
			         2.33833	4.80000e+01	
			         2.34000	5.00000e+01	
			         2.34167	5.20000e+01	
			         2.34333	5.40000e+01	
			         2.34500	5.60000e+01	
			         2.34667	5.80000e+01	
			         2.34833	6.00000e+01	
			         2.35000	6.30000e+01	
			         2.35167	6.50000e+01	
			         2.35333	6.70000e+01	
			         2.35500	6.90000e+01	
			         2.35667	7.10000e+01	
			         2.35833	7.30000e+01	
			         2.36000	7.40000e+01	
			         2.36167	7.60000e+01	
			         2.36333	7.70000e+01	
			         2.36500	7.80000e+01	
			         2.36667	7.90000e+01	
			         2.36833	8.00000e+01	
			         2.37000	8.00000e+01	
			         2.37167	8.10000e+01	
			         2.37333	8.10000e+01	
			         2.37500	8.10000e+01	
			         2.37667	8.00000e+01	
			         2.37833	8.00000e+01	
			         2.38000	7.90000e+01	
			         2.38167	7.80000e+01	
			         2.38333	7.70000e+01	
			         2.38500	7.60000e+01	
			         2.38667	7.40000e+01	
			         2.38833	7.20000e+01	
			         2.39000	7.00000e+01	
			         2.39167	6.70000e+01	
			         2.39333	6.40000e+01	
			         2.39500	6.10000e+01	
			         2.39667	5.70000e+01	
			         2.39833	5.40000e+01	
			         2.40000	4.90000e+01	
			         2.40167	4.50000e+01	
			         2.40333	4.00000e+01	
			         2.40500	3.50000e+01	
			         2.40667	3.00000e+01	
			         2.40833	2.50000e+01	
			         2.41000	1.90000e+01	
			         2.41167	1.40000e+01	
			         2.41333	9.00000e+00	
			         2.41500	3.00000e+00	
			         2.41667	-2.00000e+00	
			         2.41833	-7.00000e+00	
			         2.42000	-1.20000e+01	
			         2.42167	-1.80000e+01	
			         2.42333	-2.30000e+01	
			         2.42500	-2.80000e+01	
			         2.42667	-3.30000e+01	
			         2.42833	-3.70000e+01	
			         2.43000	-4.20000e+01	
			         2.43167	-4.60000e+01	
			         2.43333	-4.90000e+01	
			         2.43500	-5.30000e+01	
			         2.43667	-5.60000e+01	
			         2.43833	-5.90000e+01	
			         2.44000	-6.20000e+01	
			         2.44167	-6.40000e+01	
			         2.44333	-6.70000e+01	
			         2.44500	-6.90000e+01	
			         2.44667	-7.00000e+01	
			         2.44833	-7.20000e+01	
			         2.45000	-7.40000e+01	
			         2.45167	-7.60000e+01	
			         2.45333	-7.70000e+01	
			         2.45500	-7.80000e+01	
			         2.45667	-7.90000e+01	
			         2.45833	-7.90000e+01	
			         2.46000	-8.00000e+01	
			         2.46167	-7.90000e+01	
			         2.46333	-7.80000e+01	
			         2.46500	-7.80000e+01	
			         2.46667	-7.60000e+01	
			         2.46833	-7.50000e+01	
			         2.47000	-7.40000e+01	
			         2.47167	-7.20000e+01	
			         2.47333	-7.10000e+01	
			         2.47500	-7.00000e+01	
			         2.47667	-6.80000e+01	
			         2.47833	-6.70000e+01	
			         2.48000	-6.70000e+01	
			         2.48167	-6.60000e+01	
			         2.48333	-6.60000e+01	
			         2.48500	-6.50000e+01	
			         2.48667	-6.50000e+01	
			         2.48833	-6.50000e+01	
			         2.49000	-6.50000e+01	
			         2.49167	-6.50000e+01	
			         2.49333	-6.40000e+01	
			         2.49500	-6.40000e+01	
			         2.49667	-6.30000e+01	
			         2.49833	-6.30000e+01	
			         2.50000	-6.20000e+01	
			         2.50167	-6.10000e+01	
			         2.50333	-6.00000e+01	
			         2.50500	-5.80000e+01	
			         2.50667	-5.70000e+01	
			         2.50833	-5.60000e+01	
			         2.51000	-5.40000e+01	
			         2.51167	-5.20000e+01	
			         2.51333	-5.10000e+01	
			         2.51500	-4.90000e+01	
			         2.51667	-4.80000e+01	
			         2.51833	-4.60000e+01	
			         2.52000	-4.50000e+01	
			         2.52167	-4.40000e+01	
			         2.52333	-4.30000e+01	
			         2.52500	-4.20000e+01	
			         2.52667	-4.10000e+01	
			         2.52833	-4.10000e+01	
			         2.53000	-4.00000e+01	
			         2.53167	-3.90000e+01	
			         2.53333	-3.90000e+01	
			         2.53500	-3.80000e+01	
			         2.53667	-3.70000e+01	
			         2.53833	-3.70000e+01	
			         2.54000	-3.60000e+01	
			         2.54167	-3.50000e+01	
			         2.54333	-3.40000e+01	
			         2.54500	-3.20000e+01	
			         2.54667	-3.10000e+01	
			         2.54833	-3.00000e+01	
			         2.55000	-2.90000e+01	
			         2.55167	-2.80000e+01	
			         2.55333	-2.70000e+01	
			         2.55500	-2.60000e+01	
			         2.55667	-2.50000e+01	
			         2.55833	-2.50000e+01	
			         2.56000	-2.40000e+01	
			         2.56167	-2.40000e+01	
			         2.56333	-2.30000e+01	
			         2.56500	-2.30000e+01	
			         2.56667	-2.30000e+01	
			         2.56833	-2.30000e+01	
			         2.57000	-2.20000e+01	
			         2.57167	-2.20000e+01	
			         2.57333	-2.20000e+01	
			         2.57500	-2.10000e+01	
			         2.57667	-2.10000e+01	
			         2.57833	-2.00000e+01	
			         2.58000	-1.90000e+01	
			         2.58167	-1.90000e+01	
			         2.58333	-1.80000e+01	
			         2.58500	-1.70000e+01	
			         2.58667	-1.60000e+01	
			         2.58833	-1.60000e+01	
			         2.59000	-1.50000e+01	
			         2.59167	-1.40000e+01	
			         2.59333	-1.40000e+01	
			         2.59500	-1.40000e+01	
			         2.59667	-1.40000e+01	
			         2.59833	-1.40000e+01	
			         2.60000	-1.40000e+01	
			         2.60167	-1.40000e+01	
			         2.60333	-1.40000e+01	
			         2.60500	-1.40000e+01	
			         2.60667	-1.40000e+01	
			         2.60833	-1.40000e+01	
			         2.61000	-1.30000e+01	
			         2.61167	-1.30000e+01	
			         2.61333	-1.20000e+01	
			         2.61500	-1.10000e+01	
			         2.61667	-1.00000e+01	
			         2.61833	-9.00000e+00	
			         2.62000	-8.00000e+00	
			         2.62167	-8.00000e+00	
			         2.62333	-7.00000e+00	
			         2.62500	-6.00000e+00	
			         2.62667	-6.00000e+00	
			         2.62833	-6.00000e+00	
			         2.63000	-5.00000e+00	
			         2.63167	-5.00000e+00	
			         2.63333	-5.00000e+00	
			         2.63500	-4.00000e+00	
			         2.63667	-4.00000e+00	
			         2.63833	-4.00000e+00	
			         2.64000	-4.00000e+00	
			         2.64167	-4.00000e+00	
			         2.64333	-4.00000e+00	
			         2.64500	-4.00000e+00	
			         2.64667	-4.00000e+00	
			         2.64833	-4.00000e+00	
			         2.65000	-4.00000e+00	
			         2.65167	-5.00000e+00	
			         2.65333	-5.00000e+00	
			         2.65500	-5.00000e+00	
			         2.65667	-6.00000e+00	
			         2.65833	-7.00000e+00	
			         2.66000	-7.00000e+00	
			         2.66167	-8.00000e+00	
			         2.66333	-8.00000e+00	
			         2.66500	-8.00000e+00	
			         2.66667	-8.00000e+00	
			         2.66833	-7.00000e+00	
			         2.67000	-7.00000e+00	
			         2.67167	-7.00000e+00	
			         2.67333	-7.00000e+00	
			         2.67500	-7.00000e+00	
			         2.67667	-6.00000e+00	
			         2.67833	-6.00000e+00	
			         2.68000	-5.00000e+00	
			         2.68167	-5.00000e+00	
			         2.68333	-5.00000e+00	
			         2.68500	-4.00000e+00	
			         2.68667	-4.00000e+00	
			         2.68833	-4.00000e+00	
			         2.69000	-3.00000e+00	
			         2.69167	-3.00000e+00	
			         2.69333	-3.00000e+00	
			         2.69500	-3.00000e+00	
			         2.69667	-2.00000e+00	
			         2.69833	-2.00000e+00	
			         2.70000	-2.00000e+00	
			         2.70167	-2.00000e+00	
			         2.70333	-2.00000e+00	
			         2.70500	-2.00000e+00	
			         2.70667	-2.00000e+00	
			         2.70833	-2.00000e+00	
			         2.71000	-2.00000e+00	
			         2.71167	-2.00000e+00	
			         2.71333	-2.00000e+00	
			         2.71500	-2.00000e+00	
			         2.71667	-2.00000e+00	
			         2.71833	-3.00000e+00	
			         2.72000	-3.00000e+00	
			         2.72167	-4.00000e+00	
			         2.72333	-4.00000e+00	
			         2.72500	-5.00000e+00	
			         2.72667	-6.00000e+00	
			         2.72833	-6.00000e+00	
			         2.73000	-7.00000e+00	
			         2.73167	-8.00000e+00	
			         2.73333	-8.00000e+00	
			         2.73500	-8.00000e+00	
			         2.73667	-8.00000e+00	
			         2.73833	-8.00000e+00	
			         2.74000	-8.00000e+00	
			         2.74167	-7.00000e+00	
			         2.74333	-7.00000e+00	
			         2.74500	-7.00000e+00	
			         2.74667	-6.00000e+00	
			         2.74833	-6.00000e+00	
			         2.75000	-5.00000e+00	
			         2.75167	-4.00000e+00	
			         2.75333	-4.00000e+00	
			         2.75500	-3.00000e+00	
			         2.75667	-3.00000e+00	
			         2.75833	-3.00000e+00	
			         2.76000	-3.00000e+00	
			         2.76167	-3.00000e+00	
			         2.76333	-4.00000e+00	
			         2.76500	-4.00000e+00	
			         2.76667	-4.00000e+00	
			         2.76833	-4.00000e+00	
			         2.77000	-4.00000e+00	
			         2.77167	-4.00000e+00	
			         2.77333	-4.00000e+00	
			         2.77500	-4.00000e+00	
			         2.77667	-3.00000e+00	
			         2.77833	-3.00000e+00	
			         2.78000	-3.00000e+00	
			         2.78167	-2.00000e+00	
			         2.78333	-2.00000e+00	
			         2.78500	-2.00000e+00	
			         2.78667	-2.00000e+00	
			         2.78833	-2.00000e+00	
			         2.79000	-2.00000e+00	
			         2.79167	-2.00000e+00	
			         2.79333	-2.00000e+00	
			         2.79500	-2.00000e+00	
			         2.79667	-3.00000e+00	
			         2.79833	-3.00000e+00	
			         2.80000	-3.00000e+00	
			         2.80167	-3.00000e+00	
			         2.80333	-3.00000e+00	
			         2.80500	-3.00000e+00	
			         2.80667	-3.00000e+00	
			         2.80833	-3.00000e+00	
			         2.81000	-3.00000e+00	
			         2.81167	-2.00000e+00	
			         2.81333	-2.00000e+00	
			         2.81500	-2.00000e+00	
			         2.81667	-2.00000e+00	
			         2.81833	-2.00000e+00	
			         2.82000	-2.00000e+00	
			         2.82167	-2.00000e+00	
			         2.82333	-2.00000e+00	
			         2.82500	-2.00000e+00	
			         2.82667	-3.00000e+00	
			         2.82833	-3.00000e+00	
			         2.83000	-3.00000e+00	
			         2.83167	-4.00000e+00	
			         2.83333	-4.00000e+00	
			         2.83500	-4.00000e+00	
			         2.83667	-4.00000e+00	
			         2.83833	-4.00000e+00	
			         2.84000	-4.00000e+00	
			         2.84167	-4.00000e+00	
			         2.84333	-4.00000e+00	
			         2.84500	-3.00000e+00	
			         2.84667	-2.00000e+00	
			         2.84833	-2.00000e+00	
			         2.85000	-1.00000e+00	
			         2.85167	-1.00000e+00	
			         2.85333	0.00000e+00	
			         2.85500	1.00000e+00	
			         2.85667	1.00000e+00	
			         2.85833	2.00000e+00	
			         2.86000	2.00000e+00	
			         2.86167	2.00000e+00	
			         2.86333	2.00000e+00	
			         2.86500	2.00000e+00	
			         2.86667	2.00000e+00	
			         2.86833	2.00000e+00	
			         2.87000	1.00000e+00	
			         2.87167	1.00000e+00	
			         2.87333	0.00000e+00	
			         2.87500	0.00000e+00	
			         2.87667	-1.00000e+00	
			         2.87833	-1.00000e+00	
			         2.88000	-1.00000e+00	
			         2.88167	-1.00000e+00	
			         2.88333	-1.00000e+00	
			         2.88500	-1.00000e+00	
			         2.88667	-1.00000e+00	
			         2.88833	0.00000e+00	
			         2.89000	1.00000e+00	
			         2.89167	1.00000e+00	
			         2.89333	2.00000e+00	
			         2.89500	3.00000e+00	
			         2.89667	4.00000e+00	
			         2.89833	5.00000e+00	
			         2.90000	5.00000e+00	
			         2.90167	6.00000e+00	
			         2.90333	6.00000e+00	
			         2.90500	7.00000e+00	
			         2.90667	8.00000e+00	
			         2.90833	8.00000e+00	
			         2.91000	9.00000e+00	
			         2.91167	9.00000e+00	
			         2.91333	9.00000e+00	
			         2.91500	1.00000e+01	
			         2.91667	1.00000e+01	
			         2.91833	1.10000e+01	
			         2.92000	1.10000e+01	
			         2.92167	1.20000e+01	
			         2.92333	1.20000e+01	
			         2.92500	1.20000e+01	
			         2.92667	1.20000e+01	
			         2.92833	1.20000e+01	
			         2.93000	1.20000e+01	
			         2.93167	1.10000e+01	
			         2.93333	1.10000e+01	
			         2.93500	1.10000e+01	
			         2.93667	1.10000e+01	
			         2.93833	1.10000e+01	
			         2.94000	1.00000e+01	
			         2.94167	1.00000e+01	
			         2.94333	9.00000e+00	
			         2.94500	9.00000e+00	
			         2.94667	9.00000e+00	
			         2.94833	8.00000e+00	
			         2.95000	8.00000e+00	
			         2.95167	8.00000e+00	
			         2.95333	7.00000e+00	
			         2.95500	7.00000e+00	
			         2.95667	6.00000e+00	
			         2.95833	6.00000e+00	
			         2.96000	5.00000e+00	
			         2.96167	5.00000e+00	
			         2.96333	4.00000e+00	
			         2.96500	3.00000e+00	
			         2.96667	3.00000e+00	
			         2.96833	2.00000e+00	
			         2.97000	1.00000e+00	
			         2.97167	0.00000e+00	
			         2.97333	0.00000e+00	
			         2.97500	0.00000e+00	
			         2.97667	0.00000e+00	
			         2.97833	0.00000e+00	
			         2.98000	1.00000e+00	
			         2.98167	1.00000e+00	
			         2.98333	2.00000e+00	
			         2.98500	3.00000e+00	
			         2.98667	4.00000e+00	
			         2.98833	4.00000e+00	
			         2.99000	5.00000e+00	
			         2.99167	5.00000e+00	
			         2.99333	5.00000e+00	
			         2.99500	4.00000e+00	
			         2.99667	4.00000e+00	
			         2.99833	3.00000e+00	
			         3.00000	1.00000e+00	
			         3.00167	0.00000e+00	
			         3.00333	-1.00000e+00	
			         3.00500	-2.00000e+00	
			         3.00667	-4.00000e+00	
			         3.00833	-5.00000e+00	
			         3.01000	-6.00000e+00	
			         3.01167	-6.00000e+00	
			         3.01333	-7.00000e+00	
			         3.01500	-8.00000e+00	
			         3.01667	-8.00000e+00	
			         3.01833	-8.00000e+00	
			         3.02000	-9.00000e+00	
			         3.02167	-9.00000e+00	
			         3.02333	-9.00000e+00	
			         3.02500	-9.00000e+00	
			         3.02667	-9.00000e+00	
			         3.02833	-9.00000e+00	
			         3.03000	-9.00000e+00	
			         3.03167	-9.00000e+00	
			         3.03333	-9.00000e+00	
			         3.03500	-9.00000e+00	
			         3.03667	-9.00000e+00	
			         3.03833	-1.00000e+01	
			         3.04000	-1.00000e+01	
			         3.04167	-1.00000e+01	
			         3.04333	-1.00000e+01	
			         3.04500	-1.00000e+01	
			         3.04667	-1.00000e+01	
			         3.04833	-1.00000e+01	
			         3.05000	-1.00000e+01	
			         3.05167	-1.00000e+01	
			         3.05333	-9.00000e+00	
			         3.05500	-9.00000e+00	
			         3.05667	-9.00000e+00	
			         3.05833	-9.00000e+00	
			         3.06000	-9.00000e+00	
			         3.06167	-9.00000e+00	
			         3.06333	-1.00000e+01	
			         3.06500	-1.20000e+01	
			         3.06667	-1.30000e+01	
			         3.06833	-1.50000e+01	
			         3.07000	-1.60000e+01	
			         3.07167	-1.70000e+01	
			         3.07333	-1.70000e+01	
			         3.07500	-1.70000e+01	
			         3.07667	-1.50000e+01	
			         3.07833	-1.20000e+01	
			         3.08000	-8.00000e+00	
			         3.08167	-2.00000e+00	
			         3.08333	6.00000e+00	
			         3.08500	1.60000e+01	
			         3.08667	2.80000e+01	
			         3.08833	4.10000e+01	
			         3.09000	5.60000e+01	
			         3.09167	7.30000e+01	
			         3.09333	9.20000e+01	
			         3.09500	1.12000e+02	
			         3.09667	1.34000e+02	
			         3.09833	1.57000e+02	
			         3.10000	1.82000e+02	
			         3.10167	2.07000e+02	
			         3.10333	2.32000e+02	
			         3.10500	2.56000e+02	
			         3.10667	2.79000e+02	
			         3.10833	3.00000e+02	
			         3.11000	3.18000e+02	
			         3.11167	3.33000e+02	
			         3.11333	3.44000e+02	
			         3.11500	3.50000e+02	
			         3.11667	3.51000e+02	
			         3.11833	3.47000e+02	
			         3.12000	3.37000e+02	
			         3.12167	3.23000e+02	
			         3.12333	3.04000e+02	
			         3.12500	2.82000e+02	
			         3.12667	2.56000e+02	
			         3.12833	2.28000e+02	
			         3.13000	1.98000e+02	
			         3.13167	1.68000e+02	
			         3.13333	1.37000e+02	
			         3.13500	1.07000e+02	
			         3.13667	7.90000e+01	
			         3.13833	5.10000e+01	
			         3.14000	2.60000e+01	
			         3.14167	3.00000e+00	
			         3.14333	-1.70000e+01	
			         3.14500	-3.40000e+01	
			         3.14667	-4.90000e+01	
			         3.14833	-6.20000e+01	
			         3.15000	-7.30000e+01	
			         3.15167	-8.10000e+01	
			         3.15333	-8.70000e+01	
			         3.15500	-9.20000e+01	
			         3.15667	-9.50000e+01	
			         3.15833	-9.80000e+01	
			         3.16000	-9.90000e+01	
			         3.16167	-1.00000e+02	
			         3.16333	-1.00000e+02	
			         3.16500	-9.90000e+01	
			         3.16667	-9.90000e+01	
