Velocity (TVI), in cm/s

Time (s) :	Trace 1 : 		Ecg : 		
0.00631   	6.52304e-01		         0.00000	8.20000e+01	
0.01303   	1.02883e+00		         0.00167	1.03000e+02	
0.01975   	1.47590e+00		         0.00333	1.26000e+02	
0.02647   	1.93030e+00		         0.00500	1.50000e+02	
0.03346   	2.08319e+00		         0.00667	1.74000e+02	
0.04017   	1.95818e+00		         0.00833	1.96000e+02	
0.04689   	1.38393e+00		         0.01000	2.17000e+02	
0.05361   	3.32853e-01		         0.01167	2.33000e+02	
0.06060   	-1.34347e-01		         0.01333	2.45000e+02	
0.06732   	-1.57660e-01		         0.01500	2.52000e+02	
0.07404   	4.46037e-01		         0.01667	2.53000e+02	
0.08076   	1.53459e+00		         0.01833	2.48000e+02	
0.08775   	3.05253e+00		         0.02000	2.37000e+02	
0.09447   	4.17822e+00		         0.02167	2.21000e+02	
0.10118   	5.13642e+00		         0.02333	1.99000e+02	
0.10791   	5.73535e+00		         0.02500	1.74000e+02	
0.11489   	6.11192e+00		         0.02667	1.47000e+02	
0.12161   	6.25870e+00		         0.02833	1.19000e+02	
0.12833   	6.30498e+00		         0.03000	9.10000e+01	
0.13505   	6.24218e+00		         0.03167	6.50000e+01	
0.14204   	6.12416e+00		         0.03333	4.20000e+01	
0.14876   	5.95491e+00		         0.03500	2.10000e+01	
0.15548   	5.82706e+00		         0.03667	3.00000e+00	
0.16220   	5.76559e+00		         0.03833	-1.30000e+01	
0.16919   	5.67491e+00		         0.04000	-2.60000e+01	
0.17590   	5.55309e+00		         0.04167	-3.70000e+01	
0.18262   	5.48807e+00		         0.04333	-4.60000e+01	
0.18934   	5.39500e+00		         0.04500	-5.40000e+01	
0.19633   	5.30729e+00		         0.04667	-6.00000e+01	
0.20305   	5.25815e+00		         0.04833	-6.50000e+01	
0.20977   	5.21124e+00		         0.05000	-7.00000e+01	
0.21649   	5.11273e+00		         0.05167	-7.30000e+01	
0.22348   	5.01512e+00		         0.05333	-7.60000e+01	
0.23020   	4.88141e+00		         0.05500	-7.80000e+01	
0.23692   	4.68688e+00		         0.05667	-8.00000e+01	
0.24364   	4.53818e+00		         0.05833	-8.10000e+01	
0.25062   	4.37333e+00		         0.06000	-8.20000e+01	
0.25735   	4.19524e+00		         0.06167	-8.20000e+01	
0.26416   	4.05759e+00		         0.06333	-8.10000e+01	
0.27078   	4.00343e+00		         0.06500	-8.10000e+01	
0.27777   	3.86521e+00		         0.06667	-8.00000e+01	
0.28449   	3.76743e+00		         0.06833	-7.90000e+01	
0.29121   	3.65149e+00		         0.07000	-7.70000e+01	
0.29793   	3.54077e+00		         0.07167	-7.50000e+01	
0.30492   	3.32400e+00		         0.07333	-7.40000e+01	
0.31163   	3.14127e+00		         0.07500	-7.20000e+01	
0.31835   	2.90224e+00		         0.07667	-7.00000e+01	
0.32507   	2.70005e+00		         0.07833	-6.80000e+01	
0.33206   	2.45823e+00		         0.08000	-6.60000e+01	
0.33878   	2.27453e+00		         0.08167	-6.40000e+01	
0.34550   	2.07940e+00		         0.08333	-6.20000e+01	
0.35222   	1.87823e+00		         0.08500	-6.00000e+01	
0.35921   	1.64178e+00		         0.08667	-5.80000e+01	
0.36593   	1.35870e+00		         0.08833	-5.70000e+01	
0.37264   	1.08896e+00		         0.09000	-5.50000e+01	
0.37936   	5.10004e-01		         0.09167	-5.30000e+01	
0.38636   	-1.01077e-01		         0.09333	-5.20000e+01	
0.39307   	-6.67293e-01		         0.09500	-5.00000e+01	
0.39979   	-9.20019e-01		         0.09667	-4.90000e+01	
0.40651   	-1.09606e+00		         0.09833	-4.80000e+01	
0.41350   	-9.32965e-01		         0.10000	-4.60000e+01	
0.42022   	-5.71093e-01		         0.10167	-4.50000e+01	
0.42694   	-2.81610e-01		         0.10333	-4.40000e+01	
0.43366   	-2.26973e-01		         0.10500	-4.30000e+01	
0.44065   	-2.01096e-01		         0.10667	-4.20000e+01	
0.44736   	-2.67391e-01		         0.10833	-4.10000e+01	
0.45409   	-4.97368e-01		         0.11000	-4.00000e+01	
0.46080   	-6.62429e-01		         0.11167	-3.90000e+01	
0.46780   	-9.84184e-01		         0.11333	-3.80000e+01	
0.47452   	-1.46164e+00		         0.11500	-3.70000e+01	
0.48123   	-1.69422e+00		         0.11667	-3.60000e+01	
0.48795   	-2.12992e+00		         0.11833	-3.60000e+01	
0.49494   	-2.84745e+00		         0.12000	-3.50000e+01	
0.50166   	-3.51579e+00		         0.12167	-3.40000e+01	
0.50838   	-4.34480e+00		         0.12333	-3.40000e+01	
0.51509   	-5.30834e+00		         0.12500	-3.30000e+01	
0.52209   	-5.92364e+00		         0.12667	-3.20000e+01	
0.52880   	-6.03188e+00		         0.12833	-3.20000e+01	
0.53553   	-6.15800e+00		         0.13000	-3.10000e+01	
0.54224   	-5.91655e+00		         0.13167	-3.10000e+01	
0.54923   	-5.57035e+00		         0.13333	-3.00000e+01	
0.55595   	-5.30946e+00		         0.13500	-2.90000e+01	
0.56267   	-5.13668e+00		         0.13667	-2.80000e+01	
0.56939   	-4.84292e+00		         0.13833	-2.70000e+01	
0.57638   	-4.42081e+00		         0.14000	-2.70000e+01	
0.58310   	-3.93894e+00		         0.14167	-2.60000e+01	
0.58982   	-3.47712e+00		         0.14333	-2.50000e+01	
0.59653   	-3.06337e+00		         0.14500	-2.30000e+01	
0.60353   	-2.57732e+00		         0.14667	-2.20000e+01	
0.61024   	-2.23405e+00		         0.14833	-2.10000e+01	
0.61696   	-1.94554e+00		         0.15000	-2.00000e+01	
0.62368   	-1.62840e+00		         0.15167	-1.90000e+01	
0.63067   	-1.29268e+00		         0.15333	-1.80000e+01	
0.63739   	-9.80950e-01		         0.15500	-1.60000e+01	
0.64411   	-7.23231e-01		         0.15667	-1.50000e+01	
0.65083   	-6.03153e-01		         0.15833	-1.40000e+01	
0.65782   	-5.19366e-01		         0.16000	-1.30000e+01	
0.66453   	-4.82562e-01		         0.16167	-1.20000e+01	
0.67125   	-4.82575e-01		         0.16333	-1.10000e+01	
0.67797   	-4.72469e-01		         0.16500	-1.00000e+01	
0.68496   	-4.23247e-01		         0.16667	-9.00000e+00	
0.69168   	-3.46983e-01		         0.16833	-8.00000e+00	
0.69840   	-2.85856e-01		         0.17000	-7.00000e+00	
0.70512   	-2.35370e-01		         0.17167	-6.00000e+00	
0.71230   	-1.99706e-01		         0.17333	-5.00000e+00	
0.71882   	-2.02238e-01		         0.17500	-4.00000e+00	
0.72555   	-2.37075e-01		         0.17667	-3.00000e+00	
0.73226   	-2.90986e-01		         0.17833	-1.00000e+00	
0.73926   	-3.53332e-01		         0.18000	0.00000e+00	
0.74597   	-4.14093e-01		         0.18167	2.00000e+00	
0.75269   	-4.66644e-01		         0.18333	4.00000e+00	
0.75941   	-5.00499e-01		         0.18500	5.00000e+00	
0.76640   	-5.12541e-01		         0.18667	7.00000e+00	
0.77312   	-5.21236e-01		         0.18833	9.00000e+00	
0.77984   	-5.23166e-01		         0.19000	1.10000e+01	
0.78656   	-5.18266e-01		         0.19167	1.30000e+01	
0.79355   	-4.95569e-01		         0.19333	1.50000e+01	
0.80027   	-4.84768e-01		         0.19500	1.70000e+01	
0.80698   	-4.69655e-01		         0.19667	1.80000e+01	
0.81370   	-4.59257e-01		         0.19833	2.00000e+01	
0.82069   	-4.55987e-01		         0.20000	2.20000e+01	
0.82741   	-4.68830e-01		         0.20167	2.40000e+01	
0.83413   	-5.22620e-01		         0.20333	2.50000e+01	
0.84085   	-6.34046e-01		         0.20500	2.70000e+01	
0.84784   	-8.14423e-01		         0.20667	2.80000e+01	
0.85456   	-1.13285e+00		         0.20833	3.00000e+01	
0.86128   	-1.64816e+00		         0.21000	3.10000e+01	
0.86800   	-2.32562e+00		         0.21167	3.20000e+01	
0.87499   	-3.12969e+00		         0.21333	3.30000e+01	
0.88170   	-3.90247e+00		         0.21500	3.50000e+01	
0.88842   	-4.69927e+00		         0.21667	3.60000e+01	
0.89514   	-5.29487e+00		         0.21833	3.70000e+01	
0.90213   	-5.66543e+00		         0.22000	3.80000e+01	
0.90885   	-5.79265e+00		         0.22167	3.90000e+01	
0.91557   	-5.86595e+00		         0.22333	4.00000e+01	
0.92229   	-5.52438e+00		         0.22500	4.20000e+01	
0.92928   	-5.15644e+00		         0.22667	4.30000e+01	
0.93599   	-4.63185e+00		         0.22833	4.50000e+01	
0.94271   	-3.99993e+00		         0.23000	4.70000e+01	
0.94943   	-3.29362e+00		         0.23167	5.00000e+01	
0.95642   	-2.75336e+00		         0.23333	5.30000e+01	
0.96314   	-2.19994e+00		         0.23500	5.60000e+01	
0.96986   	-1.73718e+00		         0.23667	6.00000e+01	
0.97658   	-1.39558e+00		         0.23833	6.30000e+01	
0.98357   	-1.08017e+00		         0.24000	6.70000e+01	
0.99029   	-7.26040e-01		         0.24167	7.20000e+01	
0.99701   	-3.49122e-01		         0.24333	7.60000e+01	
1.00373   	5.68590e-03		         0.24500	8.10000e+01	
1.01111   	3.98213e-01		         0.24667	8.60000e+01	
1.01744   	1.61045e+00		         0.24833	9.10000e+01	
1.02415   	1.63967e+00		         0.25000	9.50000e+01	
1.03087   	1.64971e+00		         0.25167	1.00000e+02	
1.03786   	1.44122e+00		         0.25333	1.05000e+02	
1.04458   	9.87273e-01		         0.25500	1.09000e+02	
1.05130   	-2.83664e-01		         0.25667	1.14000e+02	
1.05802   	-2.39406e-01		         0.25833	1.18000e+02	
1.06501   	2.30757e-02		         0.26000	1.22000e+02	
1.07173   	5.20551e-01		         0.26167	1.26000e+02	
1.07845   	1.45606e+00		         0.26333	1.30000e+02	
1.08517   	2.41341e+00		         0.26500	1.34000e+02	
1.09215   	3.18648e+00		         0.26667	1.38000e+02	
1.09887   	3.80236e+00		         0.26833	1.42000e+02	
1.10559   	4.38991e+00		         0.27000	1.45000e+02	
1.11231   	4.67677e+00		         0.27167	1.49000e+02	
1.11930   	4.87976e+00		         0.27333	1.52000e+02	
1.12602   	5.04845e+00		         0.27500	1.55000e+02	
1.13274   	5.10961e+00		         0.27667	1.58000e+02	
1.13946   	5.16113e+00		         0.27833	1.61000e+02	
1.14645   	5.22564e+00		         0.28000	1.64000e+02	
1.15316   	5.30942e+00		         0.28167	1.66000e+02	
1.15988   	5.25794e+00		         0.28333	1.68000e+02	
1.16660   	5.26120e+00		         0.28500	1.69000e+02	
1.17359   	5.12970e+00		         0.28667	1.70000e+02	
1.18031   	5.11031e+00		         0.28833	1.71000e+02	
1.18703   	5.01504e+00		         0.29000	1.71000e+02	
1.19387   	5.08902e+00		         0.29167	1.70000e+02	
1.20074   	5.16718e+00		         0.29333	1.69000e+02	
1.20746   	5.01411e+00		         0.29500	1.67000e+02	
1.21417   	4.90080e+00		         0.29667	1.65000e+02	
1.22090   	4.80317e+00		         0.29833	1.61000e+02	
1.22788   	4.65805e+00		         0.30000	1.56000e+02	
1.23461   	4.34930e+00		         0.30167	1.51000e+02	
1.24132   	4.23462e+00		         0.30333	1.45000e+02	
1.24804   	4.05289e+00		         0.30500	1.37000e+02	
1.25503   	3.97093e+00		         0.30667	1.29000e+02	
1.26175   	3.75452e+00		         0.30833	1.20000e+02	
1.26847   	3.67187e+00		         0.31000	1.11000e+02	
1.27519   	3.65401e+00		         0.31167	1.01000e+02	
1.28218   	3.50469e+00		         0.31333	9.00000e+01	
1.28890   	3.30488e+00		         0.31500	7.90000e+01	
1.29561   	3.16659e+00		         0.31667	6.80000e+01	
1.30233   	2.98244e+00		         0.31833	5.70000e+01	
1.30932   	2.77837e+00		         0.32000	4.50000e+01	
1.31604   	2.60750e+00		         0.32167	3.40000e+01	
1.32276   	2.42272e+00		         0.32333	2.30000e+01	
1.32948   	2.35334e+00		         0.32500	1.20000e+01	
1.33647   	2.22852e+00		         0.32667	2.00000e+00	
1.34341   	2.17824e+00		         0.32833	-8.00000e+00	
1.34991   	2.04742e+00		         0.33000	-1.80000e+01	
1.35662   	2.02811e+00		         0.33167	-2.70000e+01	
1.36362   	1.98291e+00		         0.33333	-3.60000e+01	
1.37033   	2.07202e+00		         0.33500	-4.40000e+01	
1.37705   	1.30023e+00		         0.33667	-5.10000e+01	
1.38377   	2.05035e+00		         0.33833	-5.80000e+01	
1.39076   	1.54666e+00		         0.34000	-6.50000e+01	
1.39748   	1.13126e+00		         0.34167	-7.10000e+01	
1.40420   	6.36175e-01		         0.34333	-7.60000e+01	
1.41092   	1.07382e+00		         0.34500	-8.10000e+01	
1.41791   	4.68284e-02		         0.34667	-8.50000e+01	
1.42463   	1.05878e-01		         0.34833	-8.90000e+01	
1.43134   	-4.72209e-03		         0.35000	-9.20000e+01	
1.43807   	-2.08202e-01		         0.35167	-9.40000e+01	
1.44505   	-4.89842e-01		         0.35333	-9.60000e+01	
1.45177   	-8.09493e-01		         0.35500	-9.80000e+01	
1.45849   	-1.23312e+00		         0.35667	-1.00000e+02	
1.46521   	-1.70118e+00		         0.35833	-1.01000e+02	
1.47220   	-2.26798e+00		         0.36000	-1.01000e+02	
1.47892   	-2.70009e+00		         0.36167	-1.02000e+02	
1.48564   	-3.53240e+00		         0.36333	-1.02000e+02	
1.49236   	-4.38047e+00		         0.36500	-1.02000e+02	
1.49935   	-5.43383e+00		         0.36667	-1.02000e+02	
1.50606   	-6.16069e+00		         0.36833	-1.02000e+02	
1.51278   	-7.00742e+00		         0.37000	-1.01000e+02	
1.51950   	-7.36163e+00		         0.37167	-1.01000e+02	
1.52649   	-7.52998e+00		         0.37333	-1.00000e+02	
1.53321   	-7.34132e+00		         0.37500	-9.90000e+01	
1.53993   	-7.08377e+00		         0.37667	-9.80000e+01	
1.54665   	-6.77009e+00		         0.37833	-9.70000e+01	
1.55364   	-6.19588e+00		         0.38000	-9.60000e+01	
1.56036   	-5.70440e+00		         0.38167	-9.50000e+01	
1.56708   	-4.89827e+00		         0.38333	-9.30000e+01	
1.57379   	-4.18768e+00		         0.38500	-9.20000e+01	
1.58079   	-3.58305e+00		         0.38667	-9.10000e+01	
1.58750   	-3.14799e+00		         0.38833	-8.90000e+01	
1.59422   	-2.53451e+00		         0.39000	-8.80000e+01	
1.60094   	-2.16835e+00		         0.39167	-8.70000e+01	
1.60793   	-1.83396e+00		         0.39333	-8.50000e+01	
1.61465   	-1.33621e+00		         0.39500	-8.40000e+01	
1.62137   	-8.61882e-01		         0.39667	-8.30000e+01	
1.62809   	-4.82952e-01		         0.39833	-8.10000e+01	
1.63508   	-2.59296e-01		         0.40000	-8.00000e+01	
1.64179   	-7.34073e-02		         0.40167	-7.90000e+01	
1.64852   	-2.76933e-02		         0.40333	-7.80000e+01	
1.65523   	-7.41180e-02		         0.40500	-7.70000e+01	
1.66222   	-1.30582e-01		         0.40667	-7.60000e+01	
1.66894   	-1.54102e-01		         0.40833	-7.50000e+01	
1.67566   	-1.79103e-01		         0.41000	-7.40000e+01	
1.68238   	-1.92402e-01		         0.41167	-7.30000e+01	
1.68937   	-1.84793e-01		         0.41333	-7.20000e+01	
1.69609   	-1.81907e-01		         0.41500	-7.10000e+01	
1.70281   	-2.15410e-01		         0.41667	-7.00000e+01	
1.70952   	-2.69679e-01		         0.41833	-6.80000e+01	
1.71651   	-3.14961e-01		         0.42000	-6.70000e+01	
1.72323   	-3.66284e-01		         0.42167	-6.60000e+01	
1.72995   	-4.15012e-01		         0.42333	-6.40000e+01	
1.73667   	-4.42034e-01		         0.42500	-6.30000e+01	
1.74366   	-4.56524e-01		         0.42667	-6.10000e+01	
1.75038   	-4.71030e-01		         0.42833	-5.90000e+01	
1.75710   	-4.79468e-01		         0.43000	-5.80000e+01	
1.76382   	-4.77100e-01		         0.43167	-5.60000e+01	
1.77081   	-4.80527e-01		         0.43333	-5.50000e+01	
1.77752   	-5.17211e-01		         0.43500	-5.30000e+01	
1.78424   	-6.00512e-01		         0.43667	-5.20000e+01	
1.79096   	-7.77129e-01		         0.43833	-5.10000e+01	
1.79795   	-1.11248e+00		         0.44000	-5.00000e+01	
1.80467   	-1.64362e+00		         0.44167	-4.90000e+01	
1.81139   	-2.37189e+00		         0.44333	-4.80000e+01	
1.81811   	-3.19152e+00		         0.44500	-4.70000e+01	
1.82510   	-4.01307e+00		         0.44667	-4.60000e+01	
1.83182   	-4.75800e+00		         0.44833	-4.60000e+01	
1.83854   	-5.31652e+00		         0.45000	-4.50000e+01	
1.84526   	-5.68911e+00		         0.45167	-4.50000e+01	
1.85225   	-5.86485e+00		         0.45333	-4.40000e+01	
1.85896   	-5.82856e+00		         0.45500	-4.40000e+01	
1.86568   	-5.57289e+00		         0.45667	-4.30000e+01	
1.87239   	-5.11736e+00		         0.45833	-4.20000e+01	
1.87940   	-4.57695e+00		         0.46000	-4.20000e+01	
1.88611   	-3.86823e+00		         0.46167	-4.10000e+01	
1.89283   	-3.21337e+00		         0.46333	-4.00000e+01	
1.89955   	-2.61359e+00		         0.46500	-4.00000e+01	
1.90654   	-2.09850e+00		         0.46667	-3.90000e+01	
1.91326   	-1.52633e+00		         0.46833	-3.80000e+01	
1.91998   	-1.12870e+00		         0.47000	-3.70000e+01	
1.92669   	-7.55062e-01		         0.47167	-3.60000e+01	
1.93369   	-4.67700e-01		         0.47333	-3.60000e+01	
1.94040   	-1.93052e-01		         0.47500	-3.50000e+01	
1.94712   	8.09109e-02		         0.47667	-3.40000e+01	
1.95384   	4.58503e-01		         0.47833	-3.30000e+01	
1.96083   	6.91338e-01		         0.48000	-3.20000e+01	
1.96755   	9.63257e-01		         0.48167	-3.20000e+01	
1.97440   	9.49477e-01		         0.48333	-3.10000e+01	
1.98099   	5.49923e-01		         0.48500	-3.00000e+01	
1.98798   	-1.95041e-01		         0.48667	-2.90000e+01	
1.99470   	-6.26453e-01		         0.48833	-2.80000e+01	
2.00141   	-9.47993e-01		         0.49000	-2.70000e+01	
2.00813   	-9.66634e-01		         0.49167	-2.60000e+01	
2.01512   	-4.33111e-01		         0.49333	-2.50000e+01	
2.02184   	5.92965e-01		         0.49500	-2.40000e+01	
2.02856   	1.41735e+00		         0.49667	-2.30000e+01	
2.03528   	2.32257e+00		         0.49833	-2.20000e+01	
2.04227   	3.32055e+00		         0.50000	-2.20000e+01	
2.04899   	4.11099e+00		         0.50167	-2.10000e+01	
2.05570   	4.55040e+00		         0.50333	-2.10000e+01	
2.06243   	5.01327e+00		         0.50500	-2.10000e+01	
2.06942   	5.18504e+00		         0.50667	-2.10000e+01	
2.07613   	5.17050e+00		         0.50833	-2.10000e+01	
2.08285   	5.06077e+00		         0.51000	-2.10000e+01	
2.08957   	4.98335e+00		         0.51167	-2.20000e+01	
2.09656   	4.94784e+00		         0.51333	-2.20000e+01	
2.10328   	4.97517e+00		         0.51500	-2.20000e+01	
2.11000   	4.91214e+00		         0.51667	-2.30000e+01	
2.11672   	4.89053e+00		         0.51833	-2.30000e+01	
2.12371   	4.85551e+00		         0.52000	-2.30000e+01	
2.13043   	4.76319e+00		         0.52167	-2.30000e+01	
2.13714   	4.59160e+00		         0.52333	-2.30000e+01	
2.14386   	4.55264e+00		         0.52500	-2.30000e+01	
2.15086   	4.49866e+00		         0.52667	-2.30000e+01	
2.15757   	4.41927e+00		         0.52833	-2.30000e+01	
2.16429   	4.26897e+00		         0.53000	-2.20000e+01	
2.17101   	4.29632e+00		         0.53167	-2.20000e+01	
2.17800   	4.18821e+00		         0.53333	-2.20000e+01	
2.18472   	4.04790e+00		         0.53500	-2.10000e+01	
2.19144   	3.92501e+00		         0.53667	-2.10000e+01	
2.19816   	3.86008e+00		         0.53833	-2.10000e+01	
2.20514   	3.68198e+00		         0.54000	-2.10000e+01	
2.21187   	3.53446e+00		         0.54167	-2.00000e+01	
2.21858   	3.44141e+00		         0.54333	-2.00000e+01	
2.22530   	3.27862e+00		         0.54500	-2.00000e+01	
2.23229   	3.10041e+00		         0.54667	-1.90000e+01	
2.23901   	2.93292e+00		         0.54833	-1.90000e+01	
2.24573   	2.78869e+00		         0.55000	-1.90000e+01	
2.25245   	2.61029e+00		         0.55167	-1.80000e+01	
2.25944   	2.60395e+00		         0.55333	-1.80000e+01	
2.26616   	2.57572e+00		         0.55500	-1.70000e+01	
2.27313   	2.49738e+00		         0.55667	-1.60000e+01	
2.27960   	2.42307e+00		         0.55833	-1.60000e+01	
2.28658   	2.29163e+00		         0.56000	-1.60000e+01	
2.29330   	2.07967e+00		         0.56167	-1.50000e+01	
2.30002   	1.83516e+00		         0.56333	-1.50000e+01	
2.30674   	1.55325e+00		         0.56500	-1.50000e+01	
2.31373   	1.20655e+00		         0.56667	-1.40000e+01	
2.32045   	8.17628e-01		         0.56833	-1.40000e+01	
2.32717   	-2.50931e-01		         0.57000	-1.30000e+01	
2.33389   	-3.25752e-01		         0.57167	-1.30000e+01	
2.34087   	-5.90163e-01		         0.57333	-1.20000e+01	
2.34759   	-7.28784e-01		         0.57500	-1.20000e+01	
2.35431   	-6.89360e-01		         0.57667	-1.10000e+01	
2.36103   	1.01609e-02		         0.57833	-1.10000e+01	
2.36802   	-2.64650e-01		         0.58000	-1.00000e+01	
2.37474   	-1.98186e-01		         0.58167	-1.00000e+01	
2.38146   	-2.12258e-01		         0.58333	-1.00000e+01	
2.38818   	-2.59870e-01		         0.58500	-9.00000e+00	
2.39517   	-3.28883e-01		         0.58667	-9.00000e+00	
2.40189   	-3.34064e-01		         0.58833	-9.00000e+00	
2.40860   	-4.53567e-01		         0.59000	-9.00000e+00	
2.41533   	-5.99356e-01		         0.59167	-9.00000e+00	
2.42232   	-1.01640e+00		         0.59333	-8.00000e+00	
2.42903   	-1.57012e+00		         0.59500	-8.00000e+00	
2.43575   	-2.45062e+00		         0.59667	-8.00000e+00	
2.44247   	-3.26792e+00		         0.59833	-7.00000e+00	
2.44946   	-4.32021e+00		         0.60000	-7.00000e+00	
2.45618   	-5.11991e+00		         0.60167	-7.00000e+00	
2.46290   	-5.73642e+00		         0.60333	-6.00000e+00	
2.46962   	-5.96516e+00		         0.60500	-6.00000e+00	
2.47661   	-6.17897e+00		         0.60667	-6.00000e+00	
2.48333   	-6.03441e+00		         0.60833	-5.00000e+00	
2.49004   	-5.72841e+00		         0.61000	-6.00000e+00	
2.49676   	-5.35899e+00		         0.61167	-6.00000e+00	
2.50375   	-4.85623e+00		         0.61333	-6.00000e+00	
2.51047   	-4.38766e+00		         0.61500	-6.00000e+00	
2.51719   	-3.92532e+00		         0.61667	-7.00000e+00	
2.52391   	-3.59127e+00		         0.61833	-7.00000e+00	
2.53090   	-3.27729e+00		         0.62000	-7.00000e+00	
2.53762   	-3.19910e+00		         0.62167	-7.00000e+00	
2.54434   	-3.00695e+00		         0.62333	-7.00000e+00	
2.55106   	-2.78758e+00		         0.62500	-7.00000e+00	
2.55804   	-2.57645e+00		         0.62667	-7.00000e+00	
2.56476   	-2.20387e+00		         0.62833	-7.00000e+00	
2.57178   	-1.73481e+00		         0.63000	-6.00000e+00	
2.57820   	-1.34425e+00		         0.63167	-6.00000e+00	
2.58519   	-1.01295e+00		         0.63333	-5.00000e+00	
2.59191   	-7.11479e-01		         0.63500	-5.00000e+00	
2.59863   	-5.79684e-01		         0.63667	-5.00000e+00	
2.60535   	-5.06108e-01		         0.63833	-4.00000e+00	
2.61234   	-4.52579e-01		         0.64000	-4.00000e+00	
2.61906   	-3.99240e-01		         0.64167	-4.00000e+00	
2.62577   	-3.28822e-01		         0.64333	-4.00000e+00	
2.63250   	-2.93021e-01		         0.64500	-4.00000e+00	
2.63948   	-2.58022e-01		         0.64667	-4.00000e+00	
2.64620   	-2.41902e-01		         0.64833	-4.00000e+00	
2.65292   	-2.44765e-01		         0.65000	-4.00000e+00	
2.65964   	-2.74939e-01		         0.65167	-4.00000e+00	
2.66663   	-3.03882e-01		         0.65333	-4.00000e+00	
2.67335   	-3.35711e-01		         0.65500	-4.00000e+00	
2.68007   	-3.69613e-01		         0.65667	-5.00000e+00	
2.68679   	-3.98667e-01		         0.65833	-5.00000e+00	
2.69378   	-4.21815e-01		         0.66000	-5.00000e+00	
2.70050   	-4.39094e-01		         0.66167	-5.00000e+00	
2.70721   	-4.52205e-01		         0.66333	-5.00000e+00	
2.71393   	-4.59421e-01		         0.66500	-5.00000e+00	
2.72113   	-4.40289e-01		         0.66667	-6.00000e+00	
2.72764   	-4.16101e-01		         0.66833	-6.00000e+00	
2.73436   	-3.77034e-01		         0.67000	-6.00000e+00	
2.74108   	-3.53609e-01		         0.67167	-6.00000e+00	
2.74807   	-3.53556e-01		         0.67333	-6.00000e+00	
2.75479   	-3.95085e-01		         0.67500	-7.00000e+00	
2.76150   	-4.70448e-01		         0.67667	-7.00000e+00	
2.76822   	-6.24951e-01		         0.67833	-7.00000e+00	
2.77522   	-9.06225e-01		         0.68000	-7.00000e+00	
2.78193   	-1.36520e+00		         0.68167	-8.00000e+00	
2.78865   	-2.08207e+00		         0.68333	-8.00000e+00	
2.79537   	-3.10614e+00		         0.68500	-9.00000e+00	
2.80236   	-4.16966e+00		         0.68667	-9.00000e+00	
2.80908   	-5.15671e+00		         0.68833	-9.00000e+00	
2.81580   	-6.05014e+00		         0.69000	-1.00000e+01	
2.82252   	-6.65368e+00		         0.69167	-1.00000e+01	
2.82951   	-6.85846e+00		         0.69333	-1.10000e+01	
2.83622   	-6.84596e+00		         0.69500	-1.10000e+01	
2.84294   	-6.57364e+00		         0.69667	-1.20000e+01	
2.84966   	-6.01783e+00		         0.69833	-1.20000e+01	
2.85665   	-5.28247e+00		         0.70000	-1.20000e+01	
2.86337   	-4.53753e+00		         0.70167	-1.30000e+01	
2.87009   	-3.80707e+00		         0.70333	-1.30000e+01	
2.87681   	-3.17200e+00		         0.70500	-1.30000e+01	
2.88380   	-2.58756e+00		         0.70667	-1.20000e+01	
2.89052   	-2.11959e+00		         0.70833	-1.20000e+01	
2.89724   	-1.67000e+00		         0.71000	-1.20000e+01	
2.90395   	-1.22233e+00		         0.71167	-1.10000e+01	
2.91095   	-8.07863e-01		         0.71333	-1.10000e+01	
2.91766   	-4.28638e-01		         0.71500	-1.10000e+01	
2.92438   	-1.17047e-03		         0.71667	-1.00000e+01	
2.93110   	4.33438e-01		         0.71833	-1.00000e+01	
2.93809   	1.01926e+00		         0.72000	-1.00000e+01	
2.94481   	1.54007e+00		         0.72167	-1.00000e+01	
2.95153   	1.82374e+00		         0.72333	-1.00000e+01	
2.95825   	2.03373e+00		         0.72500	-1.00000e+01	
2.96524   	2.28298e+00		         0.72667	-1.00000e+01	
			         0.72833	-1.10000e+01	
			         0.73000	-1.10000e+01	
			         0.73167	-1.10000e+01	
			         0.73333	-1.20000e+01	
			         0.73500	-1.20000e+01	
			         0.73667	-1.20000e+01	
			         0.73833	-1.10000e+01	
			         0.74000	-1.10000e+01	
			         0.74167	-1.10000e+01	
			         0.74333	-1.00000e+01	
			         0.74500	-1.00000e+01	
			         0.74667	-1.00000e+01	
			         0.74833	-9.00000e+00	
			         0.75000	-9.00000e+00	
			         0.75167	-8.00000e+00	
			         0.75333	-8.00000e+00	
			         0.75500	-8.00000e+00	
			         0.75667	-8.00000e+00	
			         0.75833	-8.00000e+00	
			         0.76000	-8.00000e+00	
			         0.76167	-7.00000e+00	
			         0.76333	-7.00000e+00	
			         0.76500	-7.00000e+00	
			         0.76667	-7.00000e+00	
			         0.76833	-7.00000e+00	
			         0.77000	-7.00000e+00	
			         0.77167	-6.00000e+00	
			         0.77333	-6.00000e+00	
			         0.77500	-6.00000e+00	
			         0.77667	-5.00000e+00	
			         0.77833	-4.00000e+00	
			         0.78000	-3.00000e+00	
			         0.78167	-2.00000e+00	
			         0.78333	-1.00000e+00	
			         0.78500	0.00000e+00	
			         0.78667	2.00000e+00	
			         0.78833	4.00000e+00	
			         0.79000	6.00000e+00	
			         0.79167	8.00000e+00	
			         0.79333	1.00000e+01	
			         0.79500	1.30000e+01	
			         0.79667	1.50000e+01	
			         0.79833	1.70000e+01	
			         0.80000	1.90000e+01	
			         0.80167	2.10000e+01	
			         0.80333	2.30000e+01	
			         0.80500	2.40000e+01	
			         0.80667	2.50000e+01	
			         0.80833	2.60000e+01	
			         0.81000	2.60000e+01	
			         0.81167	2.60000e+01	
			         0.81333	2.70000e+01	
			         0.81500	2.70000e+01	
			         0.81667	2.70000e+01	
			         0.81833	2.70000e+01	
			         0.82000	2.80000e+01	
			         0.82167	2.80000e+01	
			         0.82333	2.90000e+01	
			         0.82500	3.00000e+01	
			         0.82667	3.10000e+01	
			         0.82833	3.20000e+01	
			         0.83000	3.30000e+01	
			         0.83167	3.30000e+01	
			         0.83333	3.40000e+01	
			         0.83500	3.40000e+01	
			         0.83667	3.30000e+01	
			         0.83833	3.20000e+01	
			         0.84000	3.00000e+01	
			         0.84167	2.90000e+01	
			         0.84333	2.60000e+01	
			         0.84500	2.40000e+01	
			         0.84667	2.20000e+01	
			         0.84833	1.90000e+01	
			         0.85000	1.60000e+01	
			         0.85167	1.30000e+01	
			         0.85333	1.10000e+01	
			         0.85500	9.00000e+00	
			         0.85667	7.00000e+00	
			         0.85833	5.00000e+00	
			         0.86000	3.00000e+00	
			         0.86167	2.00000e+00	
			         0.86333	1.00000e+00	
			         0.86500	-1.00000e+00	
			         0.86667	-2.00000e+00	
			         0.86833	-4.00000e+00	
			         0.87000	-5.00000e+00	
			         0.87167	-7.00000e+00	
			         0.87333	-8.00000e+00	
			         0.87500	-1.00000e+01	
			         0.87667	-1.20000e+01	
			         0.87833	-1.40000e+01	
			         0.88000	-1.60000e+01	
			         0.88167	-1.80000e+01	
			         0.88333	-2.00000e+01	
			         0.88500	-2.10000e+01	
			         0.88667	-2.30000e+01	
			         0.88833	-2.40000e+01	
			         0.89000	-2.50000e+01	
			         0.89167	-2.60000e+01	
			         0.89333	-2.70000e+01	
			         0.89500	-2.70000e+01	
			         0.89667	-2.80000e+01	
			         0.89833	-2.80000e+01	
			         0.90000	-2.80000e+01	
			         0.90167	-2.80000e+01	
			         0.90333	-2.80000e+01	
			         0.90500	-2.70000e+01	
			         0.90667	-2.70000e+01	
			         0.90833	-2.70000e+01	
			         0.91000	-2.70000e+01	
			         0.91167	-2.70000e+01	
			         0.91333	-2.60000e+01	
			         0.91500	-2.60000e+01	
			         0.91667	-2.60000e+01	
			         0.91833	-2.50000e+01	
			         0.92000	-2.50000e+01	
			         0.92167	-2.40000e+01	
			         0.92333	-2.40000e+01	
			         0.92500	-2.30000e+01	
			         0.92667	-2.30000e+01	
			         0.92833	-2.20000e+01	
			         0.93000	-2.20000e+01	
			         0.93167	-2.10000e+01	
			         0.93333	-2.10000e+01	
			         0.93500	-2.10000e+01	
			         0.93667	-2.00000e+01	
			         0.93833	-2.00000e+01	
			         0.94000	-2.00000e+01	
			         0.94167	-1.90000e+01	
			         0.94333	-1.90000e+01	
			         0.94500	-1.80000e+01	
			         0.94667	-1.70000e+01	
			         0.94833	-1.70000e+01	
			         0.95000	-1.60000e+01	
			         0.95167	-1.60000e+01	
			         0.95333	-1.50000e+01	
			         0.95500	-1.50000e+01	
			         0.95667	-1.50000e+01	
			         0.95833	-1.50000e+01	
			         0.96000	-1.50000e+01	
			         0.96167	-1.50000e+01	
			         0.96333	-1.50000e+01	
			         0.96500	-1.50000e+01	
			         0.96667	-1.50000e+01	
			         0.96833	-1.50000e+01	
			         0.97000	-1.50000e+01	
			         0.97167	-1.50000e+01	
			         0.97333	-1.40000e+01	
			         0.97500	-1.30000e+01	
			         0.97667	-1.10000e+01	
			         0.97833	-1.00000e+01	
			         0.98000	-7.00000e+00	
			         0.98167	-4.00000e+00	
			         0.98333	0.00000e+00	
			         0.98500	5.00000e+00	
			         0.98667	1.10000e+01	
			         0.98833	1.80000e+01	
			         0.99000	2.60000e+01	
			         0.99167	3.70000e+01	
			         0.99333	4.90000e+01	
			         0.99500	6.30000e+01	
			         0.99667	8.10000e+01	
			         0.99833	1.01000e+02	
			         1.00000	1.23000e+02	
			         1.00167	1.46000e+02	
			         1.00333	1.70000e+02	
			         1.00500	1.93000e+02	
			         1.00667	2.14000e+02	
			         1.00833	2.31000e+02	
			         1.01000	2.43000e+02	
			         1.01167	2.50000e+02	
			         1.01333	2.51000e+02	
			         1.01500	2.46000e+02	
			         1.01667	2.35000e+02	
			         1.01833	2.19000e+02	
			         1.02000	1.97000e+02	
			         1.02167	1.71000e+02	
			         1.02333	1.43000e+02	
			         1.02500	1.14000e+02	
			         1.02667	8.50000e+01	
			         1.02833	5.80000e+01	
			         1.03000	3.40000e+01	
			         1.03167	1.40000e+01	
			         1.03333	-4.00000e+00	
			         1.03500	-1.90000e+01	
			         1.03667	-3.10000e+01	
			         1.03833	-4.00000e+01	
			         1.04000	-4.70000e+01	
			         1.04167	-5.30000e+01	
			         1.04333	-5.70000e+01	
			         1.04500	-6.10000e+01	
			         1.04667	-6.30000e+01	
			         1.04833	-6.50000e+01	
			         1.05000	-6.60000e+01	
			         1.05167	-6.70000e+01	
			         1.05333	-6.70000e+01	
			         1.05500	-6.70000e+01	
			         1.05667	-6.60000e+01	
			         1.05833	-6.60000e+01	
			         1.06000	-6.50000e+01	
			         1.06167	-6.40000e+01	
			         1.06333	-6.30000e+01	
			         1.06500	-6.20000e+01	
			         1.06667	-6.10000e+01	
			         1.06833	-6.00000e+01	
			         1.07000	-5.90000e+01	
			         1.07167	-5.80000e+01	
			         1.07333	-5.80000e+01	
			         1.07500	-5.70000e+01	
			         1.07667	-5.70000e+01	
			         1.07833	-5.60000e+01	
			         1.08000	-5.60000e+01	
			         1.08167	-5.50000e+01	
			         1.08333	-5.40000e+01	
			         1.08500	-5.30000e+01	
			         1.08667	-5.20000e+01	
			         1.08833	-5.10000e+01	
			         1.09000	-5.00000e+01	
			         1.09167	-4.90000e+01	
			         1.09333	-4.70000e+01	
			         1.09500	-4.60000e+01	
			         1.09667	-4.50000e+01	
			         1.09833	-4.40000e+01	
			         1.10000	-4.20000e+01	
			         1.10167	-4.10000e+01	
			         1.10333	-4.00000e+01	
			         1.10500	-4.00000e+01	
			         1.10667	-3.90000e+01	
			         1.10833	-3.70000e+01	
			         1.11000	-3.60000e+01	
			         1.11167	-3.50000e+01	
			         1.11333	-3.40000e+01	
			         1.11500	-3.30000e+01	
			         1.11667	-3.20000e+01	
			         1.11833	-3.10000e+01	
			         1.12000	-2.90000e+01	
			         1.12167	-2.80000e+01	
			         1.12333	-2.70000e+01	
			         1.12500	-2.60000e+01	
			         1.12667	-2.50000e+01	
			         1.12833	-2.40000e+01	
			         1.13000	-2.20000e+01	
			         1.13167	-2.10000e+01	
			         1.13333	-2.00000e+01	
			         1.13500	-1.90000e+01	
			         1.13667	-1.80000e+01	
			         1.13833	-1.70000e+01	
			         1.14000	-1.60000e+01	
			         1.14167	-1.50000e+01	
			         1.14333	-1.50000e+01	
			         1.14500	-1.40000e+01	
			         1.14667	-1.30000e+01	
			         1.14833	-1.20000e+01	
			         1.15000	-1.10000e+01	
			         1.15167	-1.00000e+01	
			         1.15333	-9.00000e+00	
			         1.15500	-8.00000e+00	
			         1.15667	-7.00000e+00	
			         1.15833	-6.00000e+00	
			         1.16000	-5.00000e+00	
			         1.16167	-3.00000e+00	
			         1.16333	-2.00000e+00	
			         1.16500	0.00000e+00	
			         1.16667	1.00000e+00	
			         1.16833	3.00000e+00	
			         1.17000	4.00000e+00	
			         1.17167	6.00000e+00	
			         1.17333	7.00000e+00	
			         1.17500	8.00000e+00	
			         1.17667	8.00000e+00	
			         1.17833	9.00000e+00	
			         1.18000	9.00000e+00	
			         1.18167	9.00000e+00	
			         1.18333	9.00000e+00	
			         1.18500	1.00000e+01	
			         1.18667	1.00000e+01	
			         1.18833	1.10000e+01	
			         1.19000	1.10000e+01	
			         1.19167	1.30000e+01	
			         1.19333	1.40000e+01	
			         1.19500	1.60000e+01	
			         1.19667	1.80000e+01	
			         1.19833	2.00000e+01	
			         1.20000	2.20000e+01	
			         1.20167	2.40000e+01	
			         1.20333	2.60000e+01	
			         1.20500	2.80000e+01	
			         1.20667	3.00000e+01	
			         1.20833	3.20000e+01	
			         1.21000	3.30000e+01	
			         1.21167	3.40000e+01	
			         1.21333	3.60000e+01	
			         1.21500	3.70000e+01	
			         1.21667	3.80000e+01	
			         1.21833	4.00000e+01	
			         1.22000	4.20000e+01	
			         1.22167	4.40000e+01	
			         1.22333	4.60000e+01	
			         1.22500	4.80000e+01	
			         1.22667	5.10000e+01	
			         1.22833	5.40000e+01	
			         1.23000	5.70000e+01	
			         1.23167	6.00000e+01	
			         1.23333	6.30000e+01	
			         1.23500	6.70000e+01	
			         1.23667	7.00000e+01	
			         1.23833	7.40000e+01	
			         1.24000	7.70000e+01	
			         1.24167	8.10000e+01	
			         1.24333	8.40000e+01	
			         1.24500	8.80000e+01	
			         1.24667	9.10000e+01	
			         1.24833	9.40000e+01	
			         1.25000	9.80000e+01	
			         1.25167	1.01000e+02	
			         1.25333	1.05000e+02	
			         1.25500	1.08000e+02	
			         1.25667	1.12000e+02	
			         1.25833	1.15000e+02	
			         1.26000	1.19000e+02	
			         1.26167	1.23000e+02	
			         1.26333	1.27000e+02	
			         1.26500	1.31000e+02	
			         1.26667	1.35000e+02	
			         1.26833	1.39000e+02	
			         1.27000	1.43000e+02	
			         1.27167	1.48000e+02	
			         1.27333	1.52000e+02	
			         1.27500	1.56000e+02	
			         1.27667	1.59000e+02	
			         1.27833	1.63000e+02	
			         1.28000	1.66000e+02	
			         1.28167	1.68000e+02	
			         1.28333	1.69000e+02	
			         1.28500	1.70000e+02	
			         1.28667	1.70000e+02	
			         1.28833	1.69000e+02	
			         1.29000	1.68000e+02	
			         1.29167	1.66000e+02	
			         1.29333	1.62000e+02	
			         1.29500	1.58000e+02	
			         1.29667	1.53000e+02	
			         1.29833	1.47000e+02	
			         1.30000	1.41000e+02	
			         1.30167	1.33000e+02	
			         1.30333	1.25000e+02	
			         1.30500	1.16000e+02	
			         1.30667	1.07000e+02	
			         1.30833	9.70000e+01	
			         1.31000	8.60000e+01	
			         1.31167	7.60000e+01	
			         1.31333	6.50000e+01	
			         1.31500	5.40000e+01	
			         1.31667	4.30000e+01	
			         1.31833	3.20000e+01	
			         1.32000	2.10000e+01	
			         1.32167	1.00000e+01	
			         1.32333	0.00000e+00	
			         1.32500	-1.00000e+01	
			         1.32667	-1.90000e+01	
			         1.32833	-2.80000e+01	
			         1.33000	-3.70000e+01	
			         1.33167	-4.50000e+01	
			         1.33333	-5.20000e+01	
			         1.33500	-5.90000e+01	
			         1.33667	-6.50000e+01	
			         1.33833	-7.10000e+01	
			         1.34000	-7.60000e+01	
			         1.34167	-8.00000e+01	
			         1.34333	-8.40000e+01	
			         1.34500	-8.80000e+01	
			         1.34667	-9.10000e+01	
			         1.34833	-9.30000e+01	
			         1.35000	-9.60000e+01	
			         1.35167	-9.70000e+01	
			         1.35333	-9.90000e+01	
			         1.35500	-1.00000e+02	
			         1.35667	-1.00000e+02	
			         1.35833	-1.01000e+02	
			         1.36000	-1.01000e+02	
			         1.36167	-1.01000e+02	
			         1.36333	-1.01000e+02	
			         1.36500	-1.00000e+02	
			         1.36667	-1.00000e+02	
			         1.36833	-9.90000e+01	
			         1.37000	-9.90000e+01	
			         1.37167	-9.80000e+01	
			         1.37333	-9.70000e+01	
			         1.37500	-9.60000e+01	
			         1.37667	-9.50000e+01	
			         1.37833	-9.40000e+01	
			         1.38000	-9.30000e+01	
			         1.38167	-9.20000e+01	
			         1.38333	-9.00000e+01	
			         1.38500	-8.90000e+01	
			         1.38667	-8.80000e+01	
			         1.38833	-8.60000e+01	
			         1.39000	-8.40000e+01	
			         1.39167	-8.30000e+01	
			         1.39333	-8.10000e+01	
			         1.39500	-8.00000e+01	
			         1.39667	-7.80000e+01	
			         1.39833	-7.70000e+01	
			         1.40000	-7.60000e+01	
			         1.40167	-7.40000e+01	
			         1.40333	-7.30000e+01	
			         1.40500	-7.10000e+01	
			         1.40667	-6.90000e+01	
			         1.40833	-6.80000e+01	
			         1.41000	-6.60000e+01	
			         1.41167	-6.40000e+01	
			         1.41333	-6.20000e+01	
			         1.41500	-6.10000e+01	
			         1.41667	-5.90000e+01	
			         1.41833	-5.70000e+01	
			         1.42000	-5.60000e+01	
			         1.42167	-5.40000e+01	
			         1.42333	-5.30000e+01	
			         1.42500	-5.20000e+01	
			         1.42667	-5.10000e+01	
			         1.42833	-5.00000e+01	
			         1.43000	-5.00000e+01	
			         1.43167	-4.90000e+01	
			         1.43333	-4.90000e+01	
			         1.43500	-4.90000e+01	
			         1.43667	-4.90000e+01	
			         1.43833	-4.90000e+01	
			         1.44000	-4.90000e+01	
			         1.44167	-4.80000e+01	
			         1.44333	-4.80000e+01	
			         1.44500	-4.80000e+01	
			         1.44667	-4.70000e+01	
			         1.44833	-4.70000e+01	
			         1.45000	-4.60000e+01	
			         1.45167	-4.50000e+01	
			         1.45333	-4.40000e+01	
			         1.45500	-4.30000e+01	
			         1.45667	-4.20000e+01	
			         1.45833	-4.10000e+01	
			         1.46000	-3.90000e+01	
			         1.46167	-3.80000e+01	
			         1.46333	-3.70000e+01	
			         1.46500	-3.60000e+01	
			         1.46667	-3.50000e+01	
			         1.46833	-3.40000e+01	
			         1.47000	-3.30000e+01	
			         1.47167	-3.30000e+01	
			         1.47333	-3.20000e+01	
			         1.47500	-3.10000e+01	
			         1.47667	-3.10000e+01	
			         1.47833	-3.00000e+01	
			         1.48000	-2.90000e+01	
			         1.48167	-2.90000e+01	
			         1.48333	-2.80000e+01	
			         1.48500	-2.70000e+01	
			         1.48667	-2.60000e+01	
			         1.48833	-2.50000e+01	
			         1.49000	-2.40000e+01	
			         1.49167	-2.30000e+01	
			         1.49333	-2.20000e+01	
			         1.49500	-2.20000e+01	
			         1.49667	-2.10000e+01	
			         1.49833	-2.00000e+01	
			         1.50000	-2.00000e+01	
			         1.50167	-1.90000e+01	
			         1.50333	-1.90000e+01	
			         1.50500	-1.90000e+01	
			         1.50667	-1.90000e+01	
			         1.50833	-1.90000e+01	
			         1.51000	-1.90000e+01	
			         1.51167	-1.90000e+01	
			         1.51333	-1.90000e+01	
			         1.51500	-1.90000e+01	
			         1.51667	-1.90000e+01	
			         1.51833	-1.80000e+01	
			         1.52000	-1.80000e+01	
			         1.52167	-1.80000e+01	
			         1.52333	-1.70000e+01	
			         1.52500	-1.70000e+01	
			         1.52667	-1.60000e+01	
			         1.52833	-1.60000e+01	
			         1.53000	-1.50000e+01	
			         1.53167	-1.50000e+01	
			         1.53333	-1.40000e+01	
			         1.53500	-1.40000e+01	
			         1.53667	-1.30000e+01	
			         1.53833	-1.30000e+01	
			         1.54000	-1.20000e+01	
			         1.54167	-1.20000e+01	
			         1.54333	-1.10000e+01	
			         1.54500	-1.10000e+01	
			         1.54667	-1.00000e+01	
			         1.54833	-1.00000e+01	
			         1.55000	-1.00000e+01	
			         1.55167	-9.00000e+00	
			         1.55333	-9.00000e+00	
			         1.55500	-1.00000e+01	
			         1.55667	-1.00000e+01	
			         1.55833	-1.00000e+01	
			         1.56000	-1.10000e+01	
			         1.56167	-1.10000e+01	
			         1.56333	-1.20000e+01	
			         1.56500	-1.20000e+01	
			         1.56667	-1.30000e+01	
			         1.56833	-1.40000e+01	
			         1.57000	-1.40000e+01	
			         1.57167	-1.50000e+01	
			         1.57333	-1.50000e+01	
			         1.57500	-1.50000e+01	
			         1.57667	-1.50000e+01	
			         1.57833	-1.60000e+01	
			         1.58000	-1.60000e+01	
			         1.58167	-1.60000e+01	
			         1.58333	-1.60000e+01	
			         1.58500	-1.60000e+01	
			         1.58667	-1.60000e+01	
			         1.58833	-1.50000e+01	
			         1.59000	-1.50000e+01	
			         1.59167	-1.50000e+01	
			         1.59333	-1.50000e+01	
			         1.59500	-1.50000e+01	
			         1.59667	-1.50000e+01	
			         1.59833	-1.50000e+01	
			         1.60000	-1.40000e+01	
			         1.60167	-1.40000e+01	
			         1.60333	-1.40000e+01	
			         1.60500	-1.40000e+01	
			         1.60667	-1.40000e+01	
			         1.60833	-1.40000e+01	
			         1.61000	-1.40000e+01	
			         1.61167	-1.40000e+01	
			         1.61333	-1.40000e+01	
			         1.61500	-1.40000e+01	
			         1.61667	-1.40000e+01	
			         1.61833	-1.40000e+01	
			         1.62000	-1.40000e+01	
			         1.62167	-1.40000e+01	
			         1.62333	-1.30000e+01	
			         1.62500	-1.30000e+01	
			         1.62667	-1.30000e+01	
			         1.62833	-1.20000e+01	
			         1.63000	-1.20000e+01	
			         1.63167	-1.10000e+01	
			         1.63333	-1.10000e+01	
			         1.63500	-1.10000e+01	
			         1.63667	-1.00000e+01	
			         1.63833	-1.00000e+01	
			         1.64000	-9.00000e+00	
			         1.64167	-9.00000e+00	
			         1.64333	-9.00000e+00	
			         1.64500	-9.00000e+00	
			         1.64667	-9.00000e+00	
			         1.64833	-9.00000e+00	
			         1.65000	-9.00000e+00	
			         1.65167	-9.00000e+00	
			         1.65333	-9.00000e+00	
			         1.65500	-8.00000e+00	
			         1.65667	-8.00000e+00	
			         1.65833	-8.00000e+00	
			         1.66000	-8.00000e+00	
			         1.66167	-7.00000e+00	
			         1.66333	-7.00000e+00	
			         1.66500	-7.00000e+00	
			         1.66667	-7.00000e+00	
			         1.66833	-7.00000e+00	
			         1.67000	-6.00000e+00	
			         1.67167	-7.00000e+00	
			         1.67333	-7.00000e+00	
			         1.67500	-7.00000e+00	
			         1.67667	-7.00000e+00	
			         1.67833	-8.00000e+00	
			         1.68000	-8.00000e+00	
			         1.68167	-9.00000e+00	
			         1.68333	-9.00000e+00	
			         1.68500	-9.00000e+00	
			         1.68667	-9.00000e+00	
			         1.68833	-9.00000e+00	
			         1.69000	-9.00000e+00	
			         1.69167	-9.00000e+00	
			         1.69333	-8.00000e+00	
			         1.69500	-8.00000e+00	
			         1.69667	-7.00000e+00	
			         1.69833	-7.00000e+00	
			         1.70000	-6.00000e+00	
			         1.70167	-6.00000e+00	
			         1.70333	-5.00000e+00	
			         1.70500	-5.00000e+00	
			         1.70667	-4.00000e+00	
			         1.70833	-4.00000e+00	
			         1.71000	-4.00000e+00	
			         1.71167	-4.00000e+00	
			         1.71333	-4.00000e+00	
			         1.71500	-3.00000e+00	
			         1.71667	-3.00000e+00	
			         1.71833	-3.00000e+00	
			         1.72000	-2.00000e+00	
			         1.72167	-1.00000e+00	
			         1.72333	0.00000e+00	
			         1.72500	1.00000e+00	
			         1.72667	2.00000e+00	
			         1.72833	3.00000e+00	
			         1.73000	5.00000e+00	
			         1.73167	7.00000e+00	
			         1.73333	9.00000e+00	
			         1.73500	1.10000e+01	
			         1.73667	1.30000e+01	
			         1.73833	1.50000e+01	
			         1.74000	1.70000e+01	
			         1.74167	1.90000e+01	
			         1.74333	2.10000e+01	
			         1.74500	2.30000e+01	
			         1.74667	2.50000e+01	
			         1.74833	2.60000e+01	
			         1.75000	2.80000e+01	
			         1.75167	2.90000e+01	
			         1.75333	2.90000e+01	
			         1.75500	3.00000e+01	
			         1.75667	3.00000e+01	
			         1.75833	3.00000e+01	
			         1.76000	3.00000e+01	
			         1.76167	2.90000e+01	
			         1.76333	2.90000e+01	
			         1.76500	2.80000e+01	
			         1.76667	2.80000e+01	
			         1.76833	2.80000e+01	
			         1.77000	2.70000e+01	
			         1.77167	2.70000e+01	
			         1.77333	2.70000e+01	
			         1.77500	2.60000e+01	
			         1.77667	2.60000e+01	
			         1.77833	2.50000e+01	
			         1.78000	2.50000e+01	
			         1.78167	2.40000e+01	
			         1.78333	2.20000e+01	
			         1.78500	2.10000e+01	
			         1.78667	1.90000e+01	
			         1.78833	1.70000e+01	
			         1.79000	1.50000e+01	
			         1.79167	1.30000e+01	
			         1.79333	1.10000e+01	
			         1.79500	8.00000e+00	
			         1.79667	6.00000e+00	
			         1.79833	3.00000e+00	
			         1.80000	1.00000e+00	
			         1.80167	-2.00000e+00	
			         1.80333	-4.00000e+00	
			         1.80500	-7.00000e+00	
			         1.80667	-9.00000e+00	
			         1.80833	-1.20000e+01	
			         1.81000	-1.40000e+01	
			         1.81167	-1.70000e+01	
			         1.81333	-1.90000e+01	
			         1.81500	-2.20000e+01	
			         1.81667	-2.40000e+01	
			         1.81833	-2.60000e+01	
			         1.82000	-2.80000e+01	
			         1.82167	-3.00000e+01	
			         1.82333	-3.20000e+01	
			         1.82500	-3.40000e+01	
			         1.82667	-3.50000e+01	
			         1.82833	-3.60000e+01	
			         1.83000	-3.70000e+01	
			         1.83167	-3.80000e+01	
			         1.83333	-3.80000e+01	
			         1.83500	-3.80000e+01	
			         1.83667	-3.90000e+01	
			         1.83833	-3.90000e+01	
			         1.84000	-3.90000e+01	
			         1.84167	-3.90000e+01	
			         1.84333	-3.90000e+01	
			         1.84500	-3.90000e+01	
			         1.84667	-3.90000e+01	
			         1.84833	-3.90000e+01	
			         1.85000	-3.90000e+01	
			         1.85167	-4.00000e+01	
			         1.85333	-4.00000e+01	
			         1.85500	-4.00000e+01	
			         1.85667	-4.00000e+01	
			         1.85833	-4.00000e+01	
			         1.86000	-4.00000e+01	
			         1.86167	-3.90000e+01	
			         1.86333	-3.90000e+01	
			         1.86500	-3.90000e+01	
			         1.86667	-3.80000e+01	
			         1.86833	-3.80000e+01	
			         1.87000	-3.70000e+01	
			         1.87167	-3.60000e+01	
			         1.87333	-3.50000e+01	
			         1.87500	-3.50000e+01	
			         1.87667	-3.40000e+01	
			         1.87833	-3.30000e+01	
			         1.88000	-3.20000e+01	
			         1.88167	-3.10000e+01	
			         1.88333	-3.10000e+01	
			         1.88500	-3.00000e+01	
			         1.88667	-2.90000e+01	
			         1.88833	-2.80000e+01	
			         1.89000	-2.70000e+01	
			         1.89167	-2.60000e+01	
			         1.89333	-2.50000e+01	
			         1.89500	-2.40000e+01	
			         1.89667	-2.30000e+01	
			         1.89833	-2.20000e+01	
			         1.90000	-2.10000e+01	
			         1.90167	-2.00000e+01	
			         1.90333	-1.90000e+01	
			         1.90500	-1.80000e+01	
			         1.90667	-1.80000e+01	
			         1.90833	-1.70000e+01	
			         1.91000	-1.60000e+01	
			         1.91167	-1.60000e+01	
			         1.91333	-1.50000e+01	
			         1.91500	-1.40000e+01	
			         1.91667	-1.40000e+01	
			         1.91833	-1.30000e+01	
			         1.92000	-1.10000e+01	
			         1.92167	-9.00000e+00	
			         1.92333	-7.00000e+00	
			         1.92500	-3.00000e+00	
			         1.92667	1.00000e+00	
			         1.92833	5.00000e+00	
			         1.93000	1.10000e+01	
			         1.93167	1.80000e+01	
			         1.93333	2.60000e+01	
			         1.93500	3.60000e+01	
			         1.93667	4.70000e+01	
			         1.93833	6.10000e+01	
			         1.94000	7.70000e+01	
			         1.94167	9.50000e+01	
			         1.94333	1.15000e+02	
			         1.94500	1.37000e+02	
			         1.94667	1.61000e+02	
			         1.94833	1.84000e+02	
			         1.95000	2.05000e+02	
			         1.95167	2.24000e+02	
			         1.95333	2.38000e+02	
			         1.95500	2.48000e+02	
			         1.95667	2.53000e+02	
			         1.95833	2.51000e+02	
			         1.96000	2.44000e+02	
			         1.96167	2.31000e+02	
			         1.96333	2.13000e+02	
			         1.96500	1.90000e+02	
			         1.96667	1.63000e+02	
			         1.96833	1.35000e+02	
			         1.97000	1.07000e+02	
			         1.97167	7.90000e+01	
			         1.97333	5.40000e+01	
			         1.97500	3.20000e+01	
			         1.97667	1.20000e+01	
			         1.97833	-4.00000e+00	
			         1.98000	-1.70000e+01	
			         1.98167	-2.80000e+01	
			         1.98333	-3.60000e+01	
			         1.98500	-4.30000e+01	
			         1.98667	-4.80000e+01	
			         1.98833	-5.20000e+01	
			         1.99000	-5.50000e+01	
			         1.99167	-5.70000e+01	
			         1.99333	-5.90000e+01	
			         1.99500	-6.00000e+01	
			         1.99667	-6.00000e+01	
			         1.99833	-6.10000e+01	
			         2.00000	-6.10000e+01	
			         2.00167	-6.00000e+01	
			         2.00333	-6.00000e+01	
			         2.00500	-5.90000e+01	
			         2.00667	-5.80000e+01	
			         2.00833	-5.70000e+01	
			         2.01000	-5.60000e+01	
			         2.01167	-5.40000e+01	
			         2.01333	-5.30000e+01	
			         2.01500	-5.20000e+01	
			         2.01667	-5.10000e+01	
			         2.01833	-4.90000e+01	
			         2.02000	-4.80000e+01	
			         2.02167	-4.70000e+01	
			         2.02333	-4.50000e+01	
			         2.02500	-4.40000e+01	
			         2.02667	-4.30000e+01	
			         2.02833	-4.20000e+01	
			         2.03000	-4.10000e+01	
			         2.03167	-4.00000e+01	
			         2.03333	-3.90000e+01	
			         2.03500	-3.80000e+01	
			         2.03667	-3.70000e+01	
			         2.03833	-3.70000e+01	
			         2.04000	-3.60000e+01	
			         2.04167	-3.50000e+01	
			         2.04333	-3.40000e+01	
			         2.04500	-3.40000e+01	
			         2.04667	-3.30000e+01	
			         2.04833	-3.20000e+01	
			         2.05000	-3.20000e+01	
			         2.05167	-3.10000e+01	
			         2.05333	-3.00000e+01	
			         2.05500	-3.00000e+01	
			         2.05667	-2.90000e+01	
			         2.05833	-2.90000e+01	
			         2.06000	-2.80000e+01	
			         2.06167	-2.70000e+01	
			         2.06333	-2.60000e+01	
			         2.06500	-2.60000e+01	
			         2.06667	-2.50000e+01	
			         2.06833	-2.40000e+01	
			         2.07000	-2.40000e+01	
			         2.07167	-2.30000e+01	
			         2.07333	-2.30000e+01	
			         2.07500	-2.20000e+01	
			         2.07667	-2.20000e+01	
			         2.07833	-2.20000e+01	
			         2.08000	-2.10000e+01	
			         2.08167	-2.10000e+01	
			         2.08333	-2.10000e+01	
			         2.08500	-2.00000e+01	
			         2.08667	-2.00000e+01	
			         2.08833	-1.90000e+01	
			         2.09000	-1.80000e+01	
			         2.09167	-1.70000e+01	
			         2.09333	-1.60000e+01	
			         2.09500	-1.50000e+01	
			         2.09667	-1.30000e+01	
			         2.09833	-1.10000e+01	
			         2.10000	-1.00000e+01	
			         2.10167	-8.00000e+00	
			         2.10333	-6.00000e+00	
			         2.10500	-5.00000e+00	
			         2.10667	-3.00000e+00	
			         2.10833	-2.00000e+00	
			         2.11000	-1.00000e+00	
			         2.11167	0.00000e+00	
			         2.11333	1.00000e+00	
			         2.11500	2.00000e+00	
			         2.11667	2.00000e+00	
			         2.11833	3.00000e+00	
			         2.12000	3.00000e+00	
			         2.12167	4.00000e+00	
			         2.12333	4.00000e+00	
			         2.12500	4.00000e+00	
			         2.12667	5.00000e+00	
			         2.12833	5.00000e+00	
			         2.13000	6.00000e+00	
			         2.13167	7.00000e+00	
			         2.13333	8.00000e+00	
			         2.13500	9.00000e+00	
			         2.13667	1.00000e+01	
			         2.13833	1.10000e+01	
			         2.14000	1.20000e+01	
			         2.14167	1.30000e+01	
			         2.14333	1.40000e+01	
			         2.14500	1.60000e+01	
			         2.14667	1.80000e+01	
			         2.14833	1.90000e+01	
			         2.15000	2.10000e+01	
			         2.15167	2.30000e+01	
			         2.15333	2.50000e+01	
			         2.15500	2.70000e+01	
			         2.15667	2.90000e+01	
			         2.15833	3.10000e+01	
			         2.16000	3.40000e+01	
			         2.16167	3.60000e+01	
			         2.16333	3.80000e+01	
			         2.16500	4.10000e+01	
			         2.16667	4.40000e+01	
			         2.16833	4.60000e+01	
			         2.17000	4.90000e+01	
			         2.17167	5.20000e+01	
			         2.17333	5.50000e+01	
			         2.17500	5.90000e+01	
			         2.17667	6.20000e+01	
			         2.17833	6.50000e+01	
			         2.18000	6.90000e+01	
			         2.18167	7.20000e+01	
			         2.18333	7.60000e+01	
			         2.18500	8.00000e+01	
			         2.18667	8.40000e+01	
			         2.18833	8.80000e+01	
			         2.19000	9.10000e+01	
			         2.19167	9.50000e+01	
			         2.19333	9.90000e+01	
			         2.19500	1.03000e+02	
			         2.19667	1.08000e+02	
			         2.19833	1.12000e+02	
			         2.20000	1.16000e+02	
			         2.20167	1.20000e+02	
			         2.20333	1.24000e+02	
			         2.20500	1.28000e+02	
			         2.20667	1.32000e+02	
			         2.20833	1.35000e+02	
			         2.21000	1.39000e+02	
			         2.21167	1.42000e+02	
			         2.21333	1.46000e+02	
			         2.21500	1.49000e+02	
			         2.21667	1.52000e+02	
			         2.21833	1.55000e+02	
			         2.22000	1.57000e+02	
			         2.22167	1.59000e+02	
			         2.22333	1.61000e+02	
			         2.22500	1.62000e+02	
			         2.22667	1.63000e+02	
			         2.22833	1.63000e+02	
			         2.23000	1.63000e+02	
			         2.23167	1.62000e+02	
			         2.23333	1.60000e+02	
			         2.23500	1.58000e+02	
			         2.23667	1.55000e+02	
			         2.23833	1.51000e+02	
			         2.24000	1.46000e+02	
			         2.24167	1.40000e+02	
			         2.24333	1.34000e+02	
			         2.24500	1.26000e+02	
			         2.24667	1.18000e+02	
			         2.24833	1.09000e+02	
			         2.25000	1.00000e+02	
			         2.25167	9.00000e+01	
			         2.25333	8.00000e+01	
			         2.25500	6.90000e+01	
			         2.25667	5.90000e+01	
			         2.25833	4.80000e+01	
			         2.26000	3.70000e+01	
			         2.26167	2.60000e+01	
			         2.26333	1.60000e+01	
			         2.26500	5.00000e+00	
			         2.26667	-5.00000e+00	
			         2.26833	-1.50000e+01	
			         2.27000	-2.40000e+01	
			         2.27167	-3.30000e+01	
			         2.27333	-4.20000e+01	
			         2.27500	-5.00000e+01	
			         2.27667	-5.80000e+01	
			         2.27833	-6.50000e+01	
			         2.28000	-7.20000e+01	
			         2.28167	-7.80000e+01	
			         2.28333	-8.30000e+01	
			         2.28500	-8.80000e+01	
			         2.28667	-9.30000e+01	
			         2.28833	-9.70000e+01	
			         2.29000	-1.00000e+02	
			         2.29167	-1.03000e+02	
			         2.29333	-1.05000e+02	
			         2.29500	-1.07000e+02	
			         2.29667	-1.09000e+02	
			         2.29833	-1.10000e+02	
			         2.30000	-1.10000e+02	
			         2.30167	-1.11000e+02	
			         2.30333	-1.11000e+02	
			         2.30500	-1.11000e+02	
			         2.30667	-1.10000e+02	
			         2.30833	-1.10000e+02	
			         2.31000	-1.09000e+02	
			         2.31167	-1.08000e+02	
			         2.31333	-1.07000e+02	
			         2.31500	-1.06000e+02	
			         2.31667	-1.04000e+02	
			         2.31833	-1.03000e+02	
			         2.32000	-1.02000e+02	
			         2.32167	-1.00000e+02	
			         2.32333	-9.90000e+01	
			         2.32500	-9.70000e+01	
			         2.32667	-9.60000e+01	
			         2.32833	-9.40000e+01	
			         2.33000	-9.30000e+01	
			         2.33167	-9.10000e+01	
			         2.33333	-8.90000e+01	
			         2.33500	-8.80000e+01	
			         2.33667	-8.60000e+01	
			         2.33833	-8.50000e+01	
			         2.34000	-8.30000e+01	
			         2.34167	-8.20000e+01	
			         2.34333	-8.00000e+01	
			         2.34500	-7.90000e+01	
			         2.34667	-7.80000e+01	
			         2.34833	-7.60000e+01	
			         2.35000	-7.50000e+01	
			         2.35167	-7.30000e+01	
			         2.35333	-7.20000e+01	
			         2.35500	-7.00000e+01	
			         2.35667	-6.90000e+01	
			         2.35833	-6.80000e+01	
			         2.36000	-6.70000e+01	
			         2.36167	-6.50000e+01	
			         2.36333	-6.40000e+01	
			         2.36500	-6.30000e+01	
			         2.36667	-6.20000e+01	
			         2.36833	-6.10000e+01	
			         2.37000	-6.10000e+01	
			         2.37167	-6.00000e+01	
			         2.37333	-5.90000e+01	
			         2.37500	-5.90000e+01	
			         2.37667	-5.80000e+01	
			         2.37833	-5.70000e+01	
			         2.38000	-5.70000e+01	
			         2.38167	-5.60000e+01	
			         2.38333	-5.50000e+01	
			         2.38500	-5.40000e+01	
			         2.38667	-5.40000e+01	
			         2.38833	-5.30000e+01	
			         2.39000	-5.20000e+01	
			         2.39167	-5.10000e+01	
			         2.39333	-5.00000e+01	
			         2.39500	-4.90000e+01	
			         2.39667	-4.90000e+01	
			         2.39833	-4.80000e+01	
			         2.40000	-4.70000e+01	
			         2.40167	-4.60000e+01	
			         2.40333	-4.50000e+01	
			         2.40500	-4.50000e+01	
			         2.40667	-4.40000e+01	
			         2.40833	-4.30000e+01	
			         2.41000	-4.20000e+01	
			         2.41167	-4.10000e+01	
			         2.41333	-4.00000e+01	
			         2.41500	-3.90000e+01	
			         2.41667	-3.80000e+01	
			         2.41833	-3.70000e+01	
			         2.42000	-3.70000e+01	
			         2.42167	-3.60000e+01	
			         2.42333	-3.50000e+01	
			         2.42500	-3.50000e+01	
			         2.42667	-3.40000e+01	
			         2.42833	-3.40000e+01	
			         2.43000	-3.30000e+01	
			         2.43167	-3.20000e+01	
			         2.43333	-3.20000e+01	
			         2.43500	-3.10000e+01	
			         2.43667	-3.10000e+01	
			         2.43833	-3.00000e+01	
			         2.44000	-2.90000e+01	
			         2.44167	-2.90000e+01	
			         2.44333	-2.80000e+01	
			         2.44500	-2.80000e+01	
			         2.44667	-2.70000e+01	
			         2.44833	-2.70000e+01	
			         2.45000	-2.70000e+01	
			         2.45167	-2.60000e+01	
			         2.45333	-2.60000e+01	
			         2.45500	-2.60000e+01	
			         2.45667	-2.50000e+01	
			         2.45833	-2.50000e+01	
			         2.46000	-2.50000e+01	
			         2.46167	-2.40000e+01	
			         2.46333	-2.40000e+01	
			         2.46500	-2.40000e+01	
			         2.46667	-2.30000e+01	
			         2.46833	-2.30000e+01	
			         2.47000	-2.20000e+01	
			         2.47167	-2.10000e+01	
			         2.47333	-2.10000e+01	
			         2.47500	-2.00000e+01	
			         2.47667	-1.90000e+01	
			         2.47833	-1.90000e+01	
			         2.48000	-1.80000e+01	
			         2.48167	-1.70000e+01	
			         2.48333	-1.60000e+01	
			         2.48500	-1.60000e+01	
			         2.48667	-1.50000e+01	
			         2.48833	-1.40000e+01	
			         2.49000	-1.40000e+01	
			         2.49167	-1.30000e+01	
			         2.49333	-1.30000e+01	
			         2.49500	-1.20000e+01	
			         2.49667	-1.20000e+01	
			         2.49833	-1.10000e+01	
			         2.50000	-1.10000e+01	
			         2.50167	-1.10000e+01	
			         2.50333	-1.00000e+01	
			         2.50500	-1.00000e+01	
			         2.50667	-9.00000e+00	
			         2.50833	-9.00000e+00	
			         2.51000	-9.00000e+00	
			         2.51167	-8.00000e+00	
			         2.51333	-8.00000e+00	
			         2.51500	-8.00000e+00	
			         2.51667	-7.00000e+00	
			         2.51833	-7.00000e+00	
			         2.52000	-7.00000e+00	
			         2.52167	-6.00000e+00	
			         2.52333	-5.00000e+00	
			         2.52500	-5.00000e+00	
			         2.52667	-4.00000e+00	
			         2.52833	-4.00000e+00	
			         2.53000	-3.00000e+00	
			         2.53167	-2.00000e+00	
			         2.53333	-2.00000e+00	
			         2.53500	-1.00000e+00	
			         2.53667	-1.00000e+00	
			         2.53833	-1.00000e+00	
			         2.54000	-1.00000e+00	
			         2.54167	-1.00000e+00	
			         2.54333	-1.00000e+00	
			         2.54500	-1.00000e+00	
			         2.54667	-1.00000e+00	
			         2.54833	-1.00000e+00	
			         2.55000	-2.00000e+00	
			         2.55167	-2.00000e+00	
			         2.55333	-3.00000e+00	
			         2.55500	-3.00000e+00	
			         2.55667	-4.00000e+00	
			         2.55833	-5.00000e+00	
			         2.56000	-5.00000e+00	
			         2.56167	-6.00000e+00	
			         2.56333	-6.00000e+00	
			         2.56500	-7.00000e+00	
			         2.56667	-7.00000e+00	
			         2.56833	-8.00000e+00	
			         2.57000	-8.00000e+00	
			         2.57167	-8.00000e+00	
			         2.57333	-8.00000e+00	
			         2.57500	-8.00000e+00	
			         2.57667	-8.00000e+00	
			         2.57833	-8.00000e+00	
			         2.58000	-8.00000e+00	
			         2.58167	-8.00000e+00	
			         2.58333	-7.00000e+00	
			         2.58500	-7.00000e+00	
			         2.58667	-6.00000e+00	
			         2.58833	-6.00000e+00	
			         2.59000	-5.00000e+00	
			         2.59167	-4.00000e+00	
			         2.59333	-4.00000e+00	
			         2.59500	-3.00000e+00	
			         2.59667	-3.00000e+00	
			         2.59833	-2.00000e+00	
			         2.60000	-2.00000e+00	
			         2.60167	-1.00000e+00	
			         2.60333	-1.00000e+00	
			         2.60500	0.00000e+00	
			         2.60667	0.00000e+00	
			         2.60833	0.00000e+00	
			         2.61000	0.00000e+00	
			         2.61167	1.00000e+00	
			         2.61333	1.00000e+00	
			         2.61500	1.00000e+00	
			         2.61667	1.00000e+00	
			         2.61833	1.00000e+00	
			         2.62000	1.00000e+00	
			         2.62167	1.00000e+00	
			         2.62333	1.00000e+00	
			         2.62500	0.00000e+00	
			         2.62667	0.00000e+00	
			         2.62833	0.00000e+00	
			         2.63000	0.00000e+00	
			         2.63167	-1.00000e+00	
			         2.63333	-1.00000e+00	
			         2.63500	-1.00000e+00	
			         2.63667	-1.00000e+00	
			         2.63833	-2.00000e+00	
			         2.64000	-2.00000e+00	
			         2.64167	-2.00000e+00	
			         2.64333	-2.00000e+00	
			         2.64500	-2.00000e+00	
			         2.64667	-2.00000e+00	
			         2.64833	-2.00000e+00	
			         2.65000	-2.00000e+00	
			         2.65167	-2.00000e+00	
			         2.65333	-2.00000e+00	
			         2.65500	-2.00000e+00	
			         2.65667	-1.00000e+00	
			         2.65833	-1.00000e+00	
			         2.66000	-1.00000e+00	
			         2.66167	-1.00000e+00	
			         2.66333	0.00000e+00	
			         2.66500	0.00000e+00	
			         2.66667	1.00000e+00	
			         2.66833	1.00000e+00	
			         2.67000	1.00000e+00	
			         2.67167	2.00000e+00	
			         2.67333	2.00000e+00	
			         2.67500	3.00000e+00	
			         2.67667	3.00000e+00	
			         2.67833	3.00000e+00	
			         2.68000	3.00000e+00	
			         2.68167	3.00000e+00	
			         2.68333	3.00000e+00	
			         2.68500	3.00000e+00	
			         2.68667	3.00000e+00	
			         2.68833	3.00000e+00	
			         2.69000	3.00000e+00	
			         2.69167	2.00000e+00	
			         2.69333	2.00000e+00	
			         2.69500	2.00000e+00	
			         2.69667	2.00000e+00	
			         2.69833	2.00000e+00	
			         2.70000	2.00000e+00	
			         2.70167	2.00000e+00	
			         2.70333	3.00000e+00	
			         2.70500	4.00000e+00	
			         2.70667	5.00000e+00	
			         2.70833	6.00000e+00	
			         2.71000	7.00000e+00	
			         2.71167	9.00000e+00	
			         2.71333	1.10000e+01	
			         2.71500	1.30000e+01	
			         2.71667	1.50000e+01	
			         2.71833	1.70000e+01	
			         2.72000	2.00000e+01	
			         2.72167	2.20000e+01	
			         2.72333	2.40000e+01	
			         2.72500	2.70000e+01	
			         2.72667	2.90000e+01	
			         2.72833	3.00000e+01	
			         2.73000	3.20000e+01	
			         2.73167	3.30000e+01	
			         2.73333	3.40000e+01	
			         2.73500	3.50000e+01	
			         2.73667	3.60000e+01	
			         2.73833	3.70000e+01	
			         2.74000	3.70000e+01	
			         2.74167	3.70000e+01	
			         2.74333	3.80000e+01	
			         2.74500	3.80000e+01	
			         2.74667	3.80000e+01	
			         2.74833	3.90000e+01	
			         2.75000	3.90000e+01	
			         2.75167	3.90000e+01	
			         2.75333	4.00000e+01	
			         2.75500	4.00000e+01	
			         2.75667	3.90000e+01	
			         2.75833	3.90000e+01	
			         2.76000	3.80000e+01	
			         2.76167	3.70000e+01	
			         2.76333	3.50000e+01	
			         2.76500	3.30000e+01	
			         2.76667	3.10000e+01	
			         2.76833	2.90000e+01	
			         2.77000	2.60000e+01	
			         2.77167	2.30000e+01	
			         2.77333	2.10000e+01	
			         2.77500	1.70000e+01	
			         2.77667	1.40000e+01	
			         2.77833	1.10000e+01	
			         2.78000	8.00000e+00	
			         2.78167	6.00000e+00	
			         2.78333	3.00000e+00	
			         2.78500	0.00000e+00	
			         2.78667	-2.00000e+00	
			         2.78833	-5.00000e+00	
			         2.79000	-7.00000e+00	
			         2.79167	-1.00000e+01	
			         2.79333	-1.20000e+01	
			         2.79500	-1.50000e+01	
			         2.79667	-1.70000e+01	
			         2.79833	-2.00000e+01	
			         2.80000	-2.20000e+01	
			         2.80167	-2.40000e+01	
			         2.80333	-2.70000e+01	
			         2.80500	-2.90000e+01	
			         2.80667	-3.00000e+01	
			         2.80833	-3.20000e+01	
			         2.81000	-3.40000e+01	
			         2.81167	-3.50000e+01	
			         2.81333	-3.60000e+01	
			         2.81500	-3.60000e+01	
			         2.81667	-3.70000e+01	
			         2.81833	-3.70000e+01	
			         2.82000	-3.70000e+01	
			         2.82167	-3.70000e+01	
			         2.82333	-3.70000e+01	
			         2.82500	-3.60000e+01	
			         2.82667	-3.60000e+01	
			         2.82833	-3.50000e+01	
			         2.83000	-3.40000e+01	
			         2.83167	-3.40000e+01	
			         2.83333	-3.30000e+01	
			         2.83500	-3.20000e+01	
			         2.83667	-3.10000e+01	
			         2.83833	-3.00000e+01	
			         2.84000	-2.90000e+01	
			         2.84167	-2.90000e+01	
			         2.84333	-2.80000e+01	
			         2.84500	-2.70000e+01	
			         2.84667	-2.70000e+01	
			         2.84833	-2.60000e+01	
			         2.85000	-2.60000e+01	
			         2.85167	-2.50000e+01	
			         2.85333	-2.40000e+01	
			         2.85500	-2.40000e+01	
			         2.85667	-2.30000e+01	
			         2.85833	-2.30000e+01	
			         2.86000	-2.20000e+01	
			         2.86167	-2.20000e+01	
			         2.86333	-2.10000e+01	
			         2.86500	-2.10000e+01	
			         2.86667	-2.10000e+01	
			         2.86833	-2.00000e+01	
			         2.87000	-2.00000e+01	
			         2.87167	-1.90000e+01	
			         2.87333	-1.80000e+01	
			         2.87500	-1.80000e+01	
			         2.87667	-1.70000e+01	
			         2.87833	-1.70000e+01	
			         2.88000	-1.60000e+01	
			         2.88167	-1.50000e+01	
			         2.88333	-1.40000e+01	
			         2.88500	-1.40000e+01	
			         2.88667	-1.30000e+01	
			         2.88833	-1.20000e+01	
			         2.89000	-1.10000e+01	
			         2.89167	-1.00000e+01	
			         2.89333	-1.00000e+01	
			         2.89500	-9.00000e+00	
			         2.89667	-8.00000e+00	
			         2.89833	-7.00000e+00	
			         2.90000	-6.00000e+00	
			         2.90167	-4.00000e+00	
			         2.90333	-2.00000e+00	
			         2.90500	1.00000e+00	
			         2.90667	4.00000e+00	
			         2.90833	8.00000e+00	
			         2.91000	1.30000e+01	
			         2.91167	1.90000e+01	
			         2.91333	2.60000e+01	
			         2.91500	3.40000e+01	
			         2.91667	4.40000e+01	
			         2.91833	5.60000e+01	
			         2.92000	7.00000e+01	
			         2.92167	8.70000e+01	
			         2.92333	1.06000e+02	
			         2.92500	1.28000e+02	
			         2.92667	1.51000e+02	
			         2.92833	1.74000e+02	
			         2.93000	1.96000e+02	
			         2.93167	2.16000e+02	
			         2.93333	2.32000e+02	
			         2.93500	2.44000e+02	
			         2.93667	2.51000e+02	
			         2.93833	2.53000e+02	
			         2.94000	2.48000e+02	
			         2.94167	2.37000e+02	
			         2.94333	2.22000e+02	
			         2.94500	2.01000e+02	
			         2.94667	1.76000e+02	
			         2.94833	1.49000e+02	
			         2.95000	1.22000e+02	
			         2.95167	9.50000e+01	
			         2.95333	6.90000e+01	
			         2.95500	4.60000e+01	
			         2.95667	2.50000e+01	
			         2.95833	8.00000e+00	
			         2.96000	-7.00000e+00	
			         2.96167	-1.90000e+01	
			         2.96333	-2.90000e+01	
			         2.96500	-3.80000e+01	
			         2.96667	-4.40000e+01	
			         2.96833	-4.90000e+01	
			         2.97000	-5.30000e+01	
			         2.97167	-5.70000e+01	
			         2.97333	-5.90000e+01	
			         2.97500	-6.10000e+01	
			         2.97667	-6.20000e+01	
			         2.97833	-6.30000e+01	
			         2.98000	-6.30000e+01	
			         2.98167	-6.30000e+01	
			         2.98333	-6.20000e+01	
			         2.98500	-6.10000e+01	
			         2.98667	-6.00000e+01	
			         2.98833	-5.90000e+01	
			         2.99000	-5.80000e+01	
			         2.99167	-5.60000e+01	
			         2.99333	-5.50000e+01	
			         2.99500	-5.30000e+01	
			         2.99667	-5.20000e+01	
			         2.99833	-5.10000e+01	
			         3.00000	-5.00000e+01	
			         3.00167	-4.90000e+01	
			         3.00333	-4.80000e+01	
			         3.00500	-4.70000e+01	
			         3.00667	-4.60000e+01	
			         3.00833	-4.50000e+01	
			         3.01000	-4.40000e+01	
			         3.01167	-4.30000e+01	
			         3.01333	-4.20000e+01	
			         3.01500	-4.10000e+01	
