Velocity (TVI), in cm/s

Time (s) :	Trace 1 : 		Ecg : 		
0.01197   	1.92217e+00		         0.00000	1.21000e+02	
0.01808   	1.70055e+00		         0.00167	1.22000e+02	
0.02418   	1.47225e+00		         0.00333	1.23000e+02	
0.03056   	9.21177e-01		         0.00500	1.21000e+02	
0.03666   	2.36355e-01		         0.00667	1.18000e+02	
0.04277   	-5.73758e-01		         0.00833	1.13000e+02	
0.04888   	-1.42745e+00		         0.01000	1.06000e+02	
0.05525   	-2.10135e+00		         0.01167	9.70000e+01	
0.06136   	-2.40795e+00		         0.01333	8.70000e+01	
0.06746   	-1.91443e+00		         0.01500	7.50000e+01	
0.07357   	-9.20804e-01		         0.01667	6.20000e+01	
0.07994   	2.51755e-01		         0.01833	4.80000e+01	
0.08604   	1.39856e+00		         0.02000	3.20000e+01	
0.09215   	2.25707e+00		         0.02167	1.60000e+01	
0.09826   	2.52442e+00		         0.02333	-2.00000e+00	
0.10463   	2.55609e+00		         0.02500	-1.90000e+01	
0.11074   	2.59240e+00		         0.02667	-3.60000e+01	
0.11684   	2.65022e+00		         0.02833	-5.10000e+01	
0.12294   	2.78605e+00		         0.03000	-6.30000e+01	
0.12932   	3.00830e+00		         0.03167	-7.30000e+01	
0.13542   	3.29225e+00		         0.03333	-8.00000e+01	
0.14153   	3.45976e+00		         0.03500	-8.40000e+01	
0.14764   	3.61587e+00		         0.03667	-8.50000e+01	
0.15401   	3.78498e+00		         0.03833	-8.40000e+01	
0.16011   	3.98084e+00		         0.04000	-8.10000e+01	
0.16622   	4.14873e+00		         0.04167	-7.60000e+01	
0.17233   	4.32914e+00		         0.04333	-7.00000e+01	
0.17870   	4.44218e+00		         0.04500	-6.40000e+01	
0.18480   	4.49233e+00		         0.04667	-5.70000e+01	
0.19091   	4.57015e+00		         0.04833	-5.00000e+01	
0.19702   	4.62288e+00		         0.05000	-4.30000e+01	
0.20339   	4.70587e+00		         0.05167	-3.70000e+01	
0.20950   	4.80896e+00		         0.05333	-3.20000e+01	
0.21561   	4.90239e+00		         0.05500	-2.80000e+01	
0.22171   	4.92197e+00		         0.05667	-2.50000e+01	
0.22808   	4.96845e+00		         0.05833	-2.30000e+01	
0.23418   	4.95830e+00		         0.06000	-2.10000e+01	
0.24029   	4.89323e+00		         0.06167	-2.00000e+01	
0.24640   	4.83885e+00		         0.06333	-1.80000e+01	
0.25282   	4.72934e+00		         0.06500	-1.80000e+01	
0.25888   	4.51187e+00		         0.06667	-1.70000e+01	
0.26498   	4.27171e+00		         0.06833	-1.70000e+01	
0.27109   	4.06092e+00		         0.07000	-1.60000e+01	
0.27746   	3.80774e+00		         0.07167	-1.60000e+01	
0.28356   	3.60308e+00		         0.07333	-1.60000e+01	
0.28967   	3.47283e+00		         0.07500	-1.50000e+01	
0.29578   	3.39123e+00		         0.07667	-1.50000e+01	
0.30215   	3.26972e+00		         0.07833	-1.40000e+01	
0.30826   	3.18811e+00		         0.08000	-1.20000e+01	
0.31436   	3.03985e+00		         0.08167	-1.10000e+01	
0.32047   	2.89818e+00		         0.08333	-1.00000e+01	
0.32684   	2.69643e+00		         0.08500	-9.00000e+00	
0.33294   	2.46271e+00		         0.08667	-8.00000e+00	
0.33905   	2.20075e+00		         0.08833	-8.00000e+00	
0.34516   	1.99151e+00		         0.09000	-7.00000e+00	
0.35153   	1.69165e+00		         0.09167	-6.00000e+00	
0.35764   	1.39954e+00		         0.09333	-6.00000e+00	
0.36374   	1.11646e+00		         0.09500	-5.00000e+00	
0.36985   	8.09147e-01		         0.09667	-5.00000e+00	
0.37622   	4.48780e-01		         0.09833	-5.00000e+00	
0.38233   	1.03395e-01		         0.10000	-5.00000e+00	
0.38843   	-2.68502e-01		         0.10167	-5.00000e+00	
0.39454   	-4.07733e-01		         0.10333	-5.00000e+00	
0.40091   	-3.54590e-01		         0.10500	-6.00000e+00	
0.40702   	-1.74568e-01		         0.10667	-6.00000e+00	
0.41312   	8.86519e-02		         0.10833	-6.00000e+00	
0.41923   	4.96992e-01		         0.11000	-6.00000e+00	
0.42560   	7.50886e-01		         0.11167	-6.00000e+00	
0.43171   	1.04340e+00		         0.11333	-6.00000e+00	
0.43781   	1.34734e+00		         0.11500	-7.00000e+00	
0.44392   	1.65562e+00		         0.11667	-7.00000e+00	
0.45029   	1.88626e+00		         0.11833	-8.00000e+00	
0.45640   	2.11655e+00		         0.12000	-8.00000e+00	
0.46250   	2.23015e+00		         0.12167	-8.00000e+00	
0.46887   	2.28469e+00		         0.12333	-9.00000e+00	
0.47499   	2.15430e+00		         0.12500	-9.00000e+00	
0.48109   	1.95399e+00		         0.12667	-8.00000e+00	
0.48719   	1.59660e+00		         0.12833	-8.00000e+00	
0.49330   	1.05903e+00		         0.13000	-8.00000e+00	
0.49967   	2.00315e-01		         0.13167	-8.00000e+00	
0.50578   	-7.11481e-01		         0.13333	-8.00000e+00	
0.51188   	-1.50328e+00		         0.13500	-7.00000e+00	
0.51799   	-2.31019e+00		         0.13667	-7.00000e+00	
0.52436   	-2.98839e+00		         0.13833	-7.00000e+00	
0.53047   	-3.24876e+00		         0.14000	-7.00000e+00	
0.53657   	-3.28864e+00		         0.14167	-7.00000e+00	
0.54268   	-3.32814e+00		         0.14333	-7.00000e+00	
0.54905   	-3.07390e+00		         0.14500	-7.00000e+00	
0.55516   	-2.75914e+00		         0.14667	-8.00000e+00	
0.56126   	-2.44570e+00		         0.14833	-8.00000e+00	
0.56737   	-2.05276e+00		         0.15000	-9.00000e+00	
0.57374   	-1.70952e+00		         0.15167	-9.00000e+00	
0.57985   	-1.52903e+00		         0.15333	-9.00000e+00	
0.58595   	-1.47441e+00		         0.15500	-9.00000e+00	
0.59206   	-1.45323e+00		         0.15667	-9.00000e+00	
0.59843   	-1.56198e+00		         0.15833	-8.00000e+00	
0.60454   	-1.66014e+00		         0.16000	-8.00000e+00	
0.61064   	-1.73438e+00		         0.16167	-7.00000e+00	
0.61675   	-1.73259e+00		         0.16333	-6.00000e+00	
0.62312   	-1.75040e+00		         0.16500	-6.00000e+00	
0.62923   	-1.70880e+00		         0.16667	-5.00000e+00	
0.63533   	-1.65243e+00		         0.16833	-4.00000e+00	
0.64144   	-1.58155e+00		         0.17000	-3.00000e+00	
0.64781   	-1.48433e+00		         0.17167	-2.00000e+00	
0.65392   	-1.34194e+00		         0.17333	-1.00000e+00	
0.66002   	-1.25536e+00		         0.17500	0.00000e+00	
0.66613   	-1.30515e+00		         0.17667	1.00000e+00	
0.67251   	-1.46757e+00		         0.17833	2.00000e+00	
0.67861   	-1.93235e+00		         0.18000	3.00000e+00	
0.68476   	-3.08680e+00		         0.18167	5.00000e+00	
0.69082   	-4.92324e+00		         0.18333	6.00000e+00	
0.69719   	-6.81113e+00		         0.18500	7.00000e+00	
0.70330   	-8.72760e+00		         0.18667	9.00000e+00	
0.70940   	-1.04424e+01		         0.18833	1.00000e+01	
0.71551   	-1.13535e+01		         0.19000	1.10000e+01	
0.72189   	-1.14695e+01		         0.19167	1.20000e+01	
0.72799   	-1.13296e+01		         0.19333	1.30000e+01	
0.73445   	-1.07923e+01		         0.19500	1.40000e+01	
0.74020   	-1.00738e+01		         0.19667	1.50000e+01	
0.74657   	-9.34526e+00		         0.19833	1.60000e+01	
0.75268   	-8.42186e+00		         0.20000	1.70000e+01	
0.75878   	-7.31107e+00		         0.20167	1.80000e+01	
0.76489   	-6.18579e+00		         0.20333	1.90000e+01	
0.77126   	-4.94370e+00		         0.20500	2.00000e+01	
0.77737   	-3.79358e+00		         0.20667	2.20000e+01	
0.78347   	-2.84123e+00		         0.20833	2.30000e+01	
0.78958   	-2.04443e+00		         0.21000	2.50000e+01	
0.79595   	-1.44207e+00		         0.21167	2.60000e+01	
0.80206   	-9.48007e-01		         0.21333	2.80000e+01	
0.80816   	-5.01735e-01		         0.21500	3.00000e+01	
0.81427   	-8.48239e-03		         0.21667	3.20000e+01	
0.82065   	5.38728e-01		         0.21833	3.40000e+01	
0.82675   	1.22570e+00		         0.22000	3.70000e+01	
0.83285   	1.31334e+00		         0.22167	3.90000e+01	
0.83896   	1.31642e+00		         0.22333	4.20000e+01	
0.84533   	1.18546e+00		         0.22500	4.40000e+01	
0.85144   	8.23313e-01		         0.22667	4.60000e+01	
0.85754   	1.52299e-02		         0.22833	4.90000e+01	
0.86365   	-4.19744e-01		         0.23000	5.10000e+01	
0.87002   	-9.82355e-01		         0.23167	5.40000e+01	
0.87613   	-1.67091e+00		         0.23333	5.60000e+01	
0.88223   	-2.18354e+00		         0.23500	5.90000e+01	
0.88834   	-2.22557e+00		         0.23667	6.10000e+01	
0.89471   	-1.68728e+00		         0.23833	6.30000e+01	
0.90092   	-7.30940e-01		         0.24000	6.50000e+01	
0.90692   	5.06559e-01		         0.24167	6.70000e+01	
0.91303   	1.72796e+00		         0.24333	6.90000e+01	
0.91940   	2.63909e+00		         0.24500	7.10000e+01	
0.92551   	3.00597e+00		         0.24667	7.20000e+01	
0.93161   	3.19032e+00		         0.24833	7.30000e+01	
0.93772   	3.24086e+00		         0.25000	7.40000e+01	
0.94410   	3.23494e+00		         0.25167	7.50000e+01	
0.95020   	3.32298e+00		         0.25333	7.60000e+01	
0.95630   	3.52563e+00		         0.25500	7.70000e+01	
0.96241   	3.64587e+00		         0.25667	7.70000e+01	
0.96878   	3.80291e+00		         0.25833	7.80000e+01	
0.97489   	3.90574e+00		         0.26000	7.80000e+01	
0.98099   	4.01398e+00		         0.26167	7.80000e+01	
0.98710   	4.09643e+00		         0.26333	7.80000e+01	
0.99348   	4.19146e+00		         0.26500	7.80000e+01	
0.99958   	4.35386e+00		         0.26667	7.80000e+01	
1.00568   	4.54731e+00		         0.26833	7.70000e+01	
1.01179   	4.72656e+00		         0.27000	7.60000e+01	
1.01817   	4.89975e+00		         0.27167	7.40000e+01	
1.02427   	5.12548e+00		         0.27333	7.20000e+01	
1.03037   	5.17997e+00		         0.27500	7.00000e+01	
1.03648   	5.16778e+00		         0.27667	6.70000e+01	
1.04286   	5.20506e+00		         0.27833	6.40000e+01	
1.04896   	5.24804e+00		         0.28000	6.10000e+01	
1.05506   	5.20934e+00		         0.28167	5.80000e+01	
1.06117   	5.18152e+00		         0.28333	5.40000e+01	
1.06754   	5.15394e+00		         0.28500	5.00000e+01	
1.07365   	4.98970e+00		         0.28667	4.50000e+01	
1.07975   	4.78467e+00		         0.28833	4.10000e+01	
1.08586   	4.55241e+00		         0.29000	3.70000e+01	
1.09223   	4.32169e+00		         0.29167	3.20000e+01	
1.09834   	4.11835e+00		         0.29333	2.70000e+01	
1.10445   	3.95514e+00		         0.29500	2.30000e+01	
1.11055   	3.78058e+00		         0.29667	1.80000e+01	
1.11692   	3.64740e+00		         0.29833	1.30000e+01	
1.12303   	3.52938e+00		         0.30000	9.00000e+00	
1.12913   	3.40208e+00		         0.30167	4.00000e+00	
1.13524   	3.25856e+00		         0.30333	-1.00000e+00	
1.14162   	3.13114e+00		         0.30500	-5.00000e+00	
1.14772   	2.96261e+00		         0.30667	-9.00000e+00	
1.15383   	2.80001e+00		         0.30833	-1.30000e+01	
1.15993   	2.62386e+00		         0.31000	-1.70000e+01	
1.16630   	2.42904e+00		         0.31167	-2.10000e+01	
1.17241   	2.24020e+00		         0.31333	-2.40000e+01	
1.17852   	2.02991e+00		         0.31500	-2.70000e+01	
1.18462   	1.79838e+00		         0.31667	-3.00000e+01	
1.19100   	1.55275e+00		         0.31833	-3.30000e+01	
1.19710   	1.28332e+00		         0.32000	-3.60000e+01	
1.20320   	9.33581e-01		         0.32167	-3.80000e+01	
1.20931   	5.48940e-01		         0.32333	-4.00000e+01	
1.21592   	1.78925e-01		         0.32500	-4.30000e+01	
1.22179   	-1.33177e-01		         0.32667	-4.40000e+01	
1.22789   	-2.32923e-01		         0.32833	-4.60000e+01	
1.23400   	-1.60018e-01		         0.33000	-4.70000e+01	
1.24038   	5.71387e-02		         0.33167	-4.90000e+01	
1.24648   	3.75575e-01		         0.33333	-5.00000e+01	
1.25258   	7.15167e-01		         0.33500	-5.00000e+01	
1.25869   	9.67739e-01		         0.33667	-5.10000e+01	
1.26506   	1.15005e+00		         0.33833	-5.10000e+01	
1.27117   	1.32818e+00		         0.34000	-5.10000e+01	
1.27728   	1.56416e+00		         0.34167	-5.10000e+01	
1.28338   	1.63229e+00		         0.34333	-5.10000e+01	
1.28976   	1.59485e+00		         0.34500	-5.00000e+01	
1.29586   	1.49451e+00		         0.34667	-5.00000e+01	
1.30197   	1.30832e+00		         0.34833	-4.90000e+01	
1.30807   	7.33744e-01		         0.35000	-4.90000e+01	
1.31444   	1.07894e-01		         0.35167	-4.80000e+01	
1.32055   	-7.29867e-01		         0.35333	-4.70000e+01	
1.32666   	-1.67715e+00		         0.35500	-4.70000e+01	
1.33276   	-2.75059e+00		         0.35667	-4.60000e+01	
1.33914   	-3.63481e+00		         0.35833	-4.50000e+01	
1.34524   	-4.28913e+00		         0.36000	-4.50000e+01	
1.35134   	-4.73876e+00		         0.36167	-4.40000e+01	
1.35745   	-4.88815e+00		         0.36333	-4.30000e+01	
1.36383   	-4.73631e+00		         0.36500	-4.20000e+01	
1.36993   	-4.35411e+00		         0.36667	-4.10000e+01	
1.37604   	-3.99403e+00		         0.36833	-4.10000e+01	
1.38214   	-3.37629e+00		         0.37000	-4.00000e+01	
1.38852   	-2.91224e+00		         0.37167	-3.90000e+01	
1.39462   	-2.50963e+00		         0.37333	-3.80000e+01	
1.40072   	-2.27122e+00		         0.37500	-3.70000e+01	
1.40683   	-2.02483e+00		         0.37667	-3.60000e+01	
1.41321   	-1.91167e+00		         0.37833	-3.60000e+01	
1.41931   	-1.82991e+00		         0.38000	-3.50000e+01	
1.42542   	-1.78937e+00		         0.38167	-3.40000e+01	
1.43183   	-1.78521e+00		         0.38333	-3.30000e+01	
1.43790   	-1.80522e+00		         0.38500	-3.30000e+01	
1.44400   	-1.84989e+00		         0.38667	-3.20000e+01	
1.45010   	-1.79559e+00		         0.38833	-3.20000e+01	
1.45622   	-1.72432e+00		         0.39000	-3.10000e+01	
1.46259   	-1.58252e+00		         0.39167	-3.00000e+01	
1.46874   	-1.43443e+00		         0.39333	-3.00000e+01	
1.47480   	-1.27870e+00		         0.39500	-2.90000e+01	
1.48090   	-1.19244e+00		         0.39667	-2.90000e+01	
1.48728   	-1.11581e+00		         0.39833	-2.90000e+01	
1.49338   	-1.13981e+00		         0.40000	-2.90000e+01	
1.49948   	-1.29972e+00		         0.40167	-2.90000e+01	
1.50559   	-1.85595e+00		         0.40333	-2.90000e+01	
1.51197   	-2.75096e+00		         0.40500	-2.90000e+01	
1.51807   	-4.36976e+00		         0.40667	-2.90000e+01	
1.52418   	-6.24281e+00		         0.40833	-2.90000e+01	
1.53028   	-8.01332e+00		         0.41000	-2.90000e+01	
1.53666   	-9.46219e+00		         0.41167	-2.90000e+01	
1.54276   	-1.04646e+01		         0.41333	-2.90000e+01	
1.54887   	-1.06292e+01		         0.41500	-2.80000e+01	
1.55497   	-1.05126e+01		         0.41667	-2.80000e+01	
1.56135   	-1.02972e+01		         0.41833	-2.70000e+01	
1.56745   	-9.96908e+00		         0.42000	-2.60000e+01	
1.57356   	-9.45158e+00		         0.42167	-2.40000e+01	
1.57966   	-8.82488e+00		         0.42333	-2.30000e+01	
1.58604   	-7.80530e+00		         0.42500	-2.20000e+01	
1.59214   	-6.54128e+00		         0.42667	-2.00000e+01	
1.59825   	-5.17249e+00		         0.42833	-1.90000e+01	
1.60435   	-4.03503e+00		         0.43000	-1.80000e+01	
1.61073   	-2.97594e+00		         0.43167	-1.70000e+01	
1.61683   	-2.18271e+00		         0.43333	-1.60000e+01	
1.62294   	-1.59132e+00		         0.43500	-1.60000e+01	
1.62904   	-1.13354e+00		         0.43667	-1.50000e+01	
1.63542   	-7.10548e-01		         0.43833	-1.50000e+01	
1.64152   	-4.16642e-01		         0.44000	-1.40000e+01	
1.64765   	-7.76745e-02		         0.44167	-1.40000e+01	
1.65373   	4.32536e-02		         0.44333	-1.30000e+01	
1.66011   	3.41848e-02		         0.44500	-1.30000e+01	
1.66621   	2.38989e-02		         0.44667	-1.20000e+01	
1.67232   	8.12901e-02		         0.44833	-1.10000e+01	
1.67842   	-7.90894e-02		         0.45000	-1.00000e+01	
1.68480   	-3.25802e-01		         0.45167	-9.00000e+00	
1.69090   	-5.99279e-01		         0.45333	-8.00000e+00	
1.69701   	-9.90824e-01		         0.45500	-7.00000e+00	
1.70311   	-1.58324e+00		         0.45667	-6.00000e+00	
1.70949   	-2.03428e+00		         0.45833	-6.00000e+00	
1.71559   	-1.99987e+00		         0.46000	-5.00000e+00	
1.72170   	-1.35494e+00		         0.46167	-5.00000e+00	
1.72780   	-3.70635e-01		         0.46333	-5.00000e+00	
1.73418   	8.22341e-01		         0.46500	-5.00000e+00	
1.74028   	2.01721e+00		         0.46667	-5.00000e+00	
1.74638   	2.84893e+00		         0.46833	-5.00000e+00	
1.75249   	3.23242e+00		         0.47000	-6.00000e+00	
1.75887   	3.31573e+00		         0.47167	-6.00000e+00	
1.76497   	3.32137e+00		         0.47333	-7.00000e+00	
1.77108   	3.34206e+00		         0.47500	-7.00000e+00	
1.77718   	3.45584e+00		         0.47667	-7.00000e+00	
1.78356   	3.62957e+00		         0.47833	-8.00000e+00	
1.78966   	3.86522e+00		         0.48000	-8.00000e+00	
1.79577   	4.04015e+00		         0.48167	-8.00000e+00	
1.80187   	4.14984e+00		         0.48333	-9.00000e+00	
1.80825   	4.28050e+00		         0.48500	-9.00000e+00	
1.81435   	4.32324e+00		         0.48667	-9.00000e+00	
1.82046   	4.35369e+00		         0.48833	-8.00000e+00	
1.82656   	4.48496e+00		         0.49000	-8.00000e+00	
1.83294   	4.62976e+00		         0.49167	-8.00000e+00	
1.83904   	4.82153e+00		         0.49333	-7.00000e+00	
1.84515   	5.05071e+00		         0.49500	-6.00000e+00	
1.85126   	5.32615e+00		         0.49667	-6.00000e+00	
1.85763   	5.50627e+00		         0.49833	-5.00000e+00	
1.86373   	5.68175e+00		         0.50000	-4.00000e+00	
1.86984   	5.74971e+00		         0.50167	-4.00000e+00	
1.87594   	5.75406e+00		         0.50333	-3.00000e+00	
1.88232   	5.68946e+00		         0.50500	-3.00000e+00	
1.88842   	5.59391e+00		         0.50667	-3.00000e+00	
1.89453   	5.39586e+00		         0.50833	-3.00000e+00	
1.90064   	5.17898e+00		         0.51000	-3.00000e+00	
1.90701   	4.95984e+00		         0.51167	-3.00000e+00	
1.91311   	4.76871e+00		         0.51333	-4.00000e+00	
1.91922   	4.56884e+00		         0.51500	-4.00000e+00	
1.92532   	4.46879e+00		         0.51667	-4.00000e+00	
1.93170   	4.35260e+00		         0.51833	-4.00000e+00	
1.93780   	4.20496e+00		         0.52000	-4.00000e+00	
1.94391   	4.00247e+00		         0.52167	-4.00000e+00	
1.95001   	3.80022e+00		         0.52333	-4.00000e+00	
1.95639   	3.57488e+00		         0.52500	-4.00000e+00	
1.96249   	3.36223e+00		         0.52667	-3.00000e+00	
1.96860   	3.14360e+00		         0.52833	-2.00000e+00	
1.97470   	3.01012e+00		         0.53000	-2.00000e+00	
1.98108   	2.90436e+00		         0.53167	-1.00000e+00	
1.98718   	2.74383e+00		         0.53333	-1.00000e+00	
1.99329   	2.56559e+00		         0.53500	0.00000e+00	
1.99939   	2.38008e+00		         0.53667	0.00000e+00	
2.00577   	2.13098e+00		         0.53833	0.00000e+00	
2.01187   	1.87121e+00		         0.54000	1.00000e+00	
2.01798   	1.64522e+00		         0.54167	1.00000e+00	
2.02408   	1.40828e+00		         0.54333	1.00000e+00	
2.03046   	1.16859e+00		         0.54500	1.00000e+00	
2.03656   	8.64104e-01		         0.54667	1.00000e+00	
2.04267   	5.15117e-01		         0.54833	1.00000e+00	
2.04877   	2.18070e-01		         0.55000	0.00000e+00	
2.05515   	9.64328e-02		         0.55167	0.00000e+00	
2.06125   	9.51447e-02		         0.55333	0.00000e+00	
2.06736   	1.97511e-01		         0.55500	0.00000e+00	
2.07346   	4.05284e-01		         0.55667	0.00000e+00	
2.07984   	6.71789e-01		         0.55833	-1.00000e+00	
2.08594   	8.97653e-01		         0.56000	-1.00000e+00	
2.09205   	1.06259e+00		         0.56167	-2.00000e+00	
2.09815   	1.25665e+00		         0.56333	-3.00000e+00	
2.10453   	1.41656e+00		         0.56500	-3.00000e+00	
2.11063   	1.53061e+00		         0.56667	-4.00000e+00	
2.11674   	1.49888e+00		         0.56833	-5.00000e+00	
2.12284   	1.40297e+00		         0.57000	-6.00000e+00	
2.12922   	1.27682e+00		         0.57167	-7.00000e+00	
2.13532   	9.50221e-01		         0.57333	-8.00000e+00	
2.14143   	3.84813e-01		         0.57500	-9.00000e+00	
2.14753   	-3.74720e-01		         0.57667	-9.00000e+00	
2.15391   	-1.28465e+00		         0.57833	-1.00000e+01	
2.16001   	-2.40267e+00		         0.58000	-1.10000e+01	
2.16611   	-3.32469e+00		         0.58167	-1.10000e+01	
2.17222   	-4.17572e+00		         0.58333	-1.10000e+01	
2.17872   	-4.56112e+00		         0.58500	-1.10000e+01	
2.18470   	-4.77796e+00		         0.58667	-1.10000e+01	
2.19081   	-4.64553e+00		         0.58833	-1.10000e+01	
2.19691   	-4.45354e+00		         0.59000	-1.10000e+01	
2.20329   	-3.95166e+00		         0.59167	-1.00000e+01	
2.20939   	-3.52921e+00		         0.59333	-1.00000e+01	
2.21550   	-3.06602e+00		         0.59500	-9.00000e+00	
2.22160   	-2.63979e+00		         0.59667	-9.00000e+00	
2.22798   	-2.26704e+00		         0.59833	-8.00000e+00	
2.23408   	-2.00360e+00		         0.60000	-8.00000e+00	
2.24019   	-1.86671e+00		         0.60167	-7.00000e+00	
2.24629   	-1.76838e+00		         0.60333	-6.00000e+00	
2.25267   	-1.71357e+00		         0.60500	-5.00000e+00	
2.25877   	-1.77458e+00		         0.60667	-4.00000e+00	
2.26488   	-1.80467e+00		         0.60833	-3.00000e+00	
2.27098   	-1.78500e+00		         0.61000	-2.00000e+00	
2.27736   	-1.68876e+00		         0.61167	0.00000e+00	
2.28346   	-1.62561e+00		         0.61333	1.00000e+00	
2.28957   	-1.42264e+00		         0.61500	2.00000e+00	
2.29567   	-1.23744e+00		         0.61667	3.00000e+00	
2.30205   	-1.07870e+00		         0.61833	4.00000e+00	
2.30816   	-9.85716e-01		         0.62000	5.00000e+00	
2.31426   	-9.27924e-01		         0.62167	6.00000e+00	
2.32036   	-1.14886e+00		         0.62333	7.00000e+00	
2.32674   	-1.89524e+00		         0.62500	8.00000e+00	
2.33285   	-3.14215e+00		         0.62667	9.00000e+00	
2.33895   	-4.99437e+00		         0.62833	1.00000e+01	
2.34505   	-7.07941e+00		         0.63000	1.00000e+01	
2.35143   	-8.94847e+00		         0.63167	1.10000e+01	
2.35754   	-1.03253e+01		         0.63333	1.10000e+01	
2.36364   	-1.10948e+01		         0.63500	1.20000e+01	
2.36974   	-1.11845e+01		         0.63667	1.20000e+01	
2.37612   	-1.08628e+01		         0.63833	1.30000e+01	
2.38222   	-1.04070e+01		         0.64000	1.30000e+01	
2.38833   	-9.81047e+00		         0.64167	1.30000e+01	
2.39465   	-9.12271e+00		         0.64333	1.30000e+01	
2.40081   	-8.21186e+00		         0.64500	1.30000e+01	
2.40691   	-7.18809e+00		         0.64667	1.20000e+01	
2.41302   	-5.96874e+00		         0.64833	1.20000e+01	
2.41912   	-4.74748e+00		         0.65000	1.10000e+01	
2.42550   	-3.59943e+00		         0.65167	1.10000e+01	
2.43160   	-2.65564e+00		         0.65333	1.10000e+01	
2.43771   	-1.88265e+00		         0.65500	1.00000e+01	
2.44381   	-1.28790e+00		         0.65667	1.00000e+01	
2.45019   	-8.54634e-01		         0.65833	1.00000e+01	
2.45629   	-4.20966e-01		         0.66000	1.00000e+01	
2.46240   	-4.10887e-03		         0.66167	1.00000e+01	
2.46850   	5.52198e-01		         0.66333	1.00000e+01	
2.47488   	6.58800e-01		         0.66500	1.00000e+01	
2.48098   	8.32669e-01		         0.66667	1.00000e+01	
2.48709   	8.50564e-01		         0.66833	1.00000e+01	
2.49319   	8.39975e-01		         0.67000	9.00000e+00	
2.49957   	5.12800e-01		         0.67167	7.00000e+00	
2.50567   	3.16215e-01		         0.67333	5.00000e+00	
2.51178   	-2.03928e-01		         0.67500	3.00000e+00	
2.51788   	-4.00527e-01		         0.67667	0.00000e+00	
2.52427   	-7.67046e-01		         0.67833	-3.00000e+00	
			         0.68000	-7.00000e+00	
			         0.68167	-1.00000e+01	
			         0.68333	-1.30000e+01	
			         0.68500	-1.60000e+01	
			         0.68667	-1.90000e+01	
			         0.68833	-2.10000e+01	
			         0.69000	-2.30000e+01	
			         0.69167	-2.40000e+01	
			         0.69333	-2.50000e+01	
			         0.69500	-2.50000e+01	
			         0.69667	-2.50000e+01	
			         0.69833	-2.50000e+01	
			         0.70000	-2.40000e+01	
			         0.70167	-2.40000e+01	
			         0.70333	-2.40000e+01	
			         0.70500	-2.40000e+01	
			         0.70667	-2.40000e+01	
			         0.70833	-2.40000e+01	
			         0.71000	-2.50000e+01	
			         0.71167	-2.60000e+01	
			         0.71333	-2.70000e+01	
			         0.71500	-2.80000e+01	
			         0.71667	-3.00000e+01	
			         0.71833	-3.20000e+01	
			         0.72000	-3.30000e+01	
			         0.72167	-3.40000e+01	
			         0.72333	-3.60000e+01	
			         0.72500	-3.70000e+01	
			         0.72667	-3.70000e+01	
			         0.72833	-3.80000e+01	
			         0.73000	-3.80000e+01	
			         0.73167	-3.80000e+01	
			         0.73333	-3.80000e+01	
			         0.73500	-3.70000e+01	
			         0.73667	-3.70000e+01	
			         0.73833	-3.70000e+01	
			         0.74000	-3.60000e+01	
			         0.74167	-3.60000e+01	
			         0.74333	-3.50000e+01	
			         0.74500	-3.40000e+01	
			         0.74667	-3.40000e+01	
			         0.74833	-3.30000e+01	
			         0.75000	-3.20000e+01	
			         0.75167	-3.10000e+01	
			         0.75333	-3.00000e+01	
			         0.75500	-2.90000e+01	
			         0.75667	-2.80000e+01	
			         0.75833	-2.70000e+01	
			         0.76000	-2.50000e+01	
			         0.76167	-2.40000e+01	
			         0.76333	-2.30000e+01	
			         0.76500	-2.20000e+01	
			         0.76667	-2.10000e+01	
			         0.76833	-2.00000e+01	
			         0.77000	-1.90000e+01	
			         0.77167	-1.80000e+01	
			         0.77333	-1.80000e+01	
			         0.77500	-1.70000e+01	
			         0.77667	-1.70000e+01	
			         0.77833	-1.60000e+01	
			         0.78000	-1.60000e+01	
			         0.78167	-1.60000e+01	
			         0.78333	-1.50000e+01	
			         0.78500	-1.50000e+01	
			         0.78667	-1.50000e+01	
			         0.78833	-1.50000e+01	
			         0.79000	-1.50000e+01	
			         0.79167	-1.50000e+01	
			         0.79333	-1.40000e+01	
			         0.79500	-1.30000e+01	
			         0.79667	-1.20000e+01	
			         0.79833	-1.00000e+01	
			         0.80000	-8.00000e+00	
			         0.80167	-5.00000e+00	
			         0.80333	0.00000e+00	
			         0.80500	5.00000e+00	
			         0.80667	1.10000e+01	
			         0.80833	1.80000e+01	
			         0.81000	2.70000e+01	
			         0.81167	3.70000e+01	
			         0.81333	4.70000e+01	
			         0.81500	5.80000e+01	
			         0.81667	6.90000e+01	
			         0.81833	7.90000e+01	
			         0.82000	8.80000e+01	
			         0.82167	9.70000e+01	
			         0.82333	1.04000e+02	
			         0.82500	1.09000e+02	
			         0.82667	1.13000e+02	
			         0.82833	1.16000e+02	
			         0.83000	1.18000e+02	
			         0.83167	1.18000e+02	
			         0.83333	1.17000e+02	
			         0.83500	1.14000e+02	
			         0.83667	1.09000e+02	
			         0.83833	1.02000e+02	
			         0.84000	9.40000e+01	
			         0.84167	8.40000e+01	
			         0.84333	7.20000e+01	
			         0.84500	5.90000e+01	
			         0.84667	4.50000e+01	
			         0.84833	2.90000e+01	
			         0.85000	1.20000e+01	
			         0.85167	-5.00000e+00	
			         0.85333	-2.30000e+01	
			         0.85500	-3.90000e+01	
			         0.85667	-5.40000e+01	
			         0.85833	-6.60000e+01	
			         0.86000	-7.50000e+01	
			         0.86167	-8.10000e+01	
			         0.86333	-8.50000e+01	
			         0.86500	-8.60000e+01	
			         0.86667	-8.50000e+01	
			         0.86833	-8.10000e+01	
			         0.87000	-7.70000e+01	
			         0.87167	-7.10000e+01	
			         0.87333	-6.40000e+01	
			         0.87500	-5.70000e+01	
			         0.87667	-5.10000e+01	
			         0.87833	-4.50000e+01	
			         0.88000	-3.90000e+01	
			         0.88167	-3.40000e+01	
			         0.88333	-3.00000e+01	
			         0.88500	-2.60000e+01	
			         0.88667	-2.30000e+01	
			         0.88833	-2.00000e+01	
			         0.89000	-1.80000e+01	
			         0.89167	-1.60000e+01	
			         0.89333	-1.50000e+01	
			         0.89500	-1.30000e+01	
			         0.89667	-1.20000e+01	
			         0.89833	-1.20000e+01	
			         0.90000	-1.10000e+01	
			         0.90167	-1.00000e+01	
			         0.90333	-1.00000e+01	
			         0.90500	-1.00000e+01	
			         0.90667	-1.00000e+01	
			         0.90833	-1.00000e+01	
			         0.91000	-1.00000e+01	
			         0.91167	-1.00000e+01	
			         0.91333	-1.00000e+01	
			         0.91500	-1.10000e+01	
			         0.91667	-1.10000e+01	
			         0.91833	-1.10000e+01	
			         0.92000	-1.10000e+01	
			         0.92167	-1.20000e+01	
			         0.92333	-1.20000e+01	
			         0.92500	-1.30000e+01	
			         0.92667	-1.30000e+01	
			         0.92833	-1.40000e+01	
			         0.93000	-1.40000e+01	
			         0.93167	-1.50000e+01	
			         0.93333	-1.50000e+01	
			         0.93500	-1.50000e+01	
			         0.93667	-1.60000e+01	
			         0.93833	-1.60000e+01	
			         0.94000	-1.60000e+01	
			         0.94167	-1.60000e+01	
			         0.94333	-1.60000e+01	
			         0.94500	-1.70000e+01	
			         0.94667	-1.70000e+01	
			         0.94833	-1.70000e+01	
			         0.95000	-1.70000e+01	
			         0.95167	-1.70000e+01	
			         0.95333	-1.70000e+01	
			         0.95500	-1.70000e+01	
			         0.95667	-1.70000e+01	
			         0.95833	-1.80000e+01	
			         0.96000	-1.80000e+01	
			         0.96167	-1.80000e+01	
			         0.96333	-1.80000e+01	
			         0.96500	-1.80000e+01	
			         0.96667	-1.80000e+01	
			         0.96833	-1.80000e+01	
			         0.97000	-1.70000e+01	
			         0.97167	-1.70000e+01	
			         0.97333	-1.60000e+01	
			         0.97500	-1.60000e+01	
			         0.97667	-1.50000e+01	
			         0.97833	-1.40000e+01	
			         0.98000	-1.40000e+01	
			         0.98167	-1.30000e+01	
			         0.98333	-1.20000e+01	
			         0.98500	-1.10000e+01	
			         0.98667	-1.00000e+01	
			         0.98833	-1.00000e+01	
			         0.99000	-9.00000e+00	
			         0.99167	-8.00000e+00	
			         0.99333	-8.00000e+00	
			         0.99500	-7.00000e+00	
			         0.99667	-7.00000e+00	
			         0.99833	-7.00000e+00	
			         1.00000	-6.00000e+00	
			         1.00167	-6.00000e+00	
			         1.00333	-6.00000e+00	
			         1.00500	-6.00000e+00	
			         1.00667	-6.00000e+00	
			         1.00833	-6.00000e+00	
			         1.01000	-6.00000e+00	
			         1.01167	-6.00000e+00	
			         1.01333	-6.00000e+00	
			         1.01500	-6.00000e+00	
			         1.01667	-5.00000e+00	
			         1.01833	-5.00000e+00	
			         1.02000	-4.00000e+00	
			         1.02167	-3.00000e+00	
			         1.02333	-1.00000e+00	
			         1.02500	0.00000e+00	
			         1.02667	2.00000e+00	
			         1.02833	4.00000e+00	
			         1.03000	5.00000e+00	
			         1.03167	7.00000e+00	
			         1.03333	9.00000e+00	
			         1.03500	1.10000e+01	
			         1.03667	1.30000e+01	
			         1.03833	1.50000e+01	
			         1.04000	1.80000e+01	
			         1.04167	2.00000e+01	
			         1.04333	2.30000e+01	
			         1.04500	2.50000e+01	
			         1.04667	2.70000e+01	
			         1.04833	3.00000e+01	
			         1.05000	3.30000e+01	
			         1.05167	3.60000e+01	
			         1.05333	3.80000e+01	
			         1.05500	4.10000e+01	
			         1.05667	4.40000e+01	
			         1.05833	4.60000e+01	
			         1.06000	4.90000e+01	
			         1.06167	5.10000e+01	
			         1.06333	5.40000e+01	
			         1.06500	5.60000e+01	
			         1.06667	5.80000e+01	
			         1.06833	6.10000e+01	
			         1.07000	6.30000e+01	
			         1.07167	6.40000e+01	
			         1.07333	6.60000e+01	
			         1.07500	6.80000e+01	
			         1.07667	6.90000e+01	
			         1.07833	7.10000e+01	
			         1.08000	7.20000e+01	
			         1.08167	7.20000e+01	
			         1.08333	7.30000e+01	
			         1.08500	7.30000e+01	
			         1.08667	7.30000e+01	
			         1.08833	7.30000e+01	
			         1.09000	7.20000e+01	
			         1.09167	7.20000e+01	
			         1.09333	7.10000e+01	
			         1.09500	7.00000e+01	
			         1.09667	6.90000e+01	
			         1.09833	6.70000e+01	
			         1.10000	6.50000e+01	
			         1.10167	6.30000e+01	
			         1.10333	6.10000e+01	
			         1.10500	5.90000e+01	
			         1.10667	5.60000e+01	
			         1.10833	5.30000e+01	
			         1.11000	5.00000e+01	
			         1.11167	4.70000e+01	
			         1.11333	4.30000e+01	
			         1.11500	3.90000e+01	
			         1.11667	3.50000e+01	
			         1.11833	3.10000e+01	
			         1.12000	2.60000e+01	
			         1.12167	2.10000e+01	
			         1.12333	1.50000e+01	
			         1.12500	1.00000e+01	
			         1.12667	4.00000e+00	
			         1.12833	-1.00000e+00	
			         1.13000	-7.00000e+00	
			         1.13167	-1.20000e+01	
			         1.13333	-1.70000e+01	
			         1.13500	-2.10000e+01	
			         1.13667	-2.60000e+01	
			         1.13833	-3.00000e+01	
			         1.14000	-3.30000e+01	
			         1.14167	-3.60000e+01	
			         1.14333	-3.90000e+01	
			         1.14500	-4.10000e+01	
			         1.14667	-4.30000e+01	
			         1.14833	-4.50000e+01	
			         1.15000	-4.70000e+01	
			         1.15167	-4.90000e+01	
			         1.15333	-5.10000e+01	
			         1.15500	-5.30000e+01	
			         1.15667	-5.40000e+01	
			         1.15833	-5.60000e+01	
			         1.16000	-5.70000e+01	
			         1.16167	-5.80000e+01	
			         1.16333	-5.90000e+01	
			         1.16500	-6.00000e+01	
			         1.16667	-6.10000e+01	
			         1.16833	-6.10000e+01	
			         1.17000	-6.20000e+01	
			         1.17167	-6.20000e+01	
			         1.17333	-6.20000e+01	
			         1.17500	-6.10000e+01	
			         1.17667	-6.10000e+01	
			         1.17833	-6.00000e+01	
			         1.18000	-6.00000e+01	
			         1.18167	-5.90000e+01	
			         1.18333	-5.80000e+01	
			         1.18500	-5.70000e+01	
			         1.18667	-5.60000e+01	
			         1.18833	-5.50000e+01	
			         1.19000	-5.40000e+01	
			         1.19167	-5.20000e+01	
			         1.19333	-5.10000e+01	
			         1.19500	-5.00000e+01	
			         1.19667	-4.90000e+01	
			         1.19833	-4.80000e+01	
			         1.20000	-4.70000e+01	
			         1.20167	-4.60000e+01	
			         1.20333	-4.50000e+01	
			         1.20500	-4.50000e+01	
			         1.20667	-4.40000e+01	
			         1.20833	-4.40000e+01	
			         1.21000	-4.30000e+01	
			         1.21167	-4.30000e+01	
			         1.21333	-4.20000e+01	
			         1.21500	-4.20000e+01	
			         1.21667	-4.20000e+01	
			         1.21833	-4.10000e+01	
			         1.22000	-4.10000e+01	
			         1.22167	-4.00000e+01	
			         1.22333	-4.00000e+01	
			         1.22500	-3.90000e+01	
			         1.22667	-3.80000e+01	
			         1.22833	-3.80000e+01	
			         1.23000	-3.70000e+01	
			         1.23167	-3.70000e+01	
			         1.23333	-3.60000e+01	
			         1.23500	-3.60000e+01	
			         1.23667	-3.50000e+01	
			         1.23833	-3.50000e+01	
			         1.24000	-3.50000e+01	
			         1.24167	-3.50000e+01	
			         1.24333	-3.40000e+01	
			         1.24500	-3.40000e+01	
			         1.24667	-3.40000e+01	
			         1.24833	-3.40000e+01	
			         1.25000	-3.30000e+01	
			         1.25167	-3.30000e+01	
			         1.25333	-3.20000e+01	
			         1.25500	-3.20000e+01	
			         1.25667	-3.10000e+01	
			         1.25833	-3.00000e+01	
			         1.26000	-3.00000e+01	
			         1.26167	-2.90000e+01	
			         1.26333	-2.80000e+01	
			         1.26500	-2.80000e+01	
			         1.26667	-2.70000e+01	
			         1.26833	-2.70000e+01	
			         1.27000	-2.60000e+01	
			         1.27167	-2.60000e+01	
			         1.27333	-2.60000e+01	
			         1.27500	-2.50000e+01	
			         1.27667	-2.50000e+01	
			         1.27833	-2.40000e+01	
			         1.28000	-2.40000e+01	
			         1.28167	-2.40000e+01	
			         1.28333	-2.30000e+01	
			         1.28500	-2.30000e+01	
			         1.28667	-2.20000e+01	
			         1.28833	-2.20000e+01	
			         1.29000	-2.20000e+01	
			         1.29167	-2.10000e+01	
			         1.29333	-2.10000e+01	
			         1.29500	-2.10000e+01	
			         1.29667	-2.00000e+01	
			         1.29833	-2.00000e+01	
			         1.30000	-2.00000e+01	
			         1.30167	-1.90000e+01	
			         1.30333	-1.80000e+01	
			         1.30500	-1.80000e+01	
			         1.30667	-1.70000e+01	
			         1.30833	-1.60000e+01	
			         1.31000	-1.50000e+01	
			         1.31167	-1.40000e+01	
			         1.31333	-1.30000e+01	
			         1.31500	-1.30000e+01	
			         1.31667	-1.20000e+01	
			         1.31833	-1.10000e+01	
			         1.32000	-1.00000e+01	
			         1.32167	-1.00000e+01	
			         1.32333	-9.00000e+00	
			         1.32500	-8.00000e+00	
			         1.32667	-8.00000e+00	
			         1.32833	-7.00000e+00	
			         1.33000	-7.00000e+00	
			         1.33167	-6.00000e+00	
			         1.33333	-6.00000e+00	
			         1.33500	-6.00000e+00	
			         1.33667	-6.00000e+00	
			         1.33833	-6.00000e+00	
			         1.34000	-7.00000e+00	
			         1.34167	-7.00000e+00	
			         1.34333	-7.00000e+00	
			         1.34500	-8.00000e+00	
			         1.34667	-8.00000e+00	
			         1.34833	-8.00000e+00	
			         1.35000	-8.00000e+00	
			         1.35167	-8.00000e+00	
			         1.35333	-8.00000e+00	
			         1.35500	-7.00000e+00	
			         1.35667	-7.00000e+00	
			         1.35833	-6.00000e+00	
			         1.36000	-5.00000e+00	
			         1.36167	-4.00000e+00	
			         1.36333	-3.00000e+00	
			         1.36500	-2.00000e+00	
			         1.36667	-1.00000e+00	
			         1.36833	0.00000e+00	
			         1.37000	0.00000e+00	
			         1.37167	0.00000e+00	
			         1.37333	0.00000e+00	
			         1.37500	0.00000e+00	
			         1.37667	0.00000e+00	
			         1.37833	-1.00000e+00	
			         1.38000	-2.00000e+00	
			         1.38167	-2.00000e+00	
			         1.38333	-3.00000e+00	
			         1.38500	-4.00000e+00	
			         1.38667	-4.00000e+00	
			         1.38833	-5.00000e+00	
			         1.39000	-6.00000e+00	
			         1.39167	-7.00000e+00	
			         1.39333	-7.00000e+00	
			         1.39500	-8.00000e+00	
			         1.39667	-8.00000e+00	
			         1.39833	-8.00000e+00	
			         1.40000	-9.00000e+00	
			         1.40167	-9.00000e+00	
			         1.40333	-9.00000e+00	
			         1.40500	-9.00000e+00	
			         1.40667	-9.00000e+00	
			         1.40833	-9.00000e+00	
			         1.41000	-9.00000e+00	
			         1.41167	-8.00000e+00	
			         1.41333	-7.00000e+00	
			         1.41500	-7.00000e+00	
			         1.41667	-6.00000e+00	
			         1.41833	-5.00000e+00	
			         1.42000	-4.00000e+00	
			         1.42167	-3.00000e+00	
			         1.42333	-3.00000e+00	
			         1.42500	-2.00000e+00	
			         1.42667	-1.00000e+00	
			         1.42833	-1.00000e+00	
			         1.43000	-1.00000e+00	
			         1.43167	-1.00000e+00	
			         1.43333	-1.00000e+00	
			         1.43500	-1.00000e+00	
			         1.43667	-1.00000e+00	
			         1.43833	0.00000e+00	
			         1.44000	0.00000e+00	
			         1.44167	1.00000e+00	
			         1.44333	2.00000e+00	
			         1.44500	3.00000e+00	
			         1.44667	4.00000e+00	
			         1.44833	6.00000e+00	
			         1.45000	8.00000e+00	
			         1.45167	1.00000e+01	
			         1.45333	1.20000e+01	
			         1.45500	1.40000e+01	
			         1.45667	1.70000e+01	
			         1.45833	1.90000e+01	
			         1.46000	2.10000e+01	
			         1.46167	2.20000e+01	
			         1.46333	2.30000e+01	
			         1.46500	2.40000e+01	
			         1.46667	2.50000e+01	
			         1.46833	2.50000e+01	
			         1.47000	2.50000e+01	
			         1.47167	2.40000e+01	
			         1.47333	2.30000e+01	
			         1.47500	2.20000e+01	
			         1.47667	2.10000e+01	
			         1.47833	2.00000e+01	
			         1.48000	1.90000e+01	
			         1.48167	1.80000e+01	
			         1.48333	1.80000e+01	
			         1.48500	1.80000e+01	
			         1.48667	1.80000e+01	
			         1.48833	1.80000e+01	
			         1.49000	1.80000e+01	
			         1.49167	1.80000e+01	
			         1.49333	1.80000e+01	
			         1.49500	1.80000e+01	
			         1.49667	1.70000e+01	
			         1.49833	1.50000e+01	
			         1.50000	1.30000e+01	
			         1.50167	1.00000e+01	
			         1.50333	7.00000e+00	
			         1.50500	4.00000e+00	
			         1.50667	1.00000e+00	
			         1.50833	-2.00000e+00	
			         1.51000	-6.00000e+00	
			         1.51167	-8.00000e+00	
			         1.51333	-1.10000e+01	
			         1.51500	-1.30000e+01	
			         1.51667	-1.50000e+01	
			         1.51833	-1.60000e+01	
			         1.52000	-1.60000e+01	
			         1.52167	-1.70000e+01	
			         1.52333	-1.70000e+01	
			         1.52500	-1.60000e+01	
			         1.52667	-1.60000e+01	
			         1.52833	-1.60000e+01	
			         1.53000	-1.60000e+01	
			         1.53167	-1.60000e+01	
			         1.53333	-1.70000e+01	
			         1.53500	-1.80000e+01	
			         1.53667	-1.90000e+01	
			         1.53833	-2.10000e+01	
			         1.54000	-2.30000e+01	
			         1.54167	-2.50000e+01	
			         1.54333	-2.70000e+01	
			         1.54500	-2.90000e+01	
			         1.54667	-3.10000e+01	
			         1.54833	-3.30000e+01	
			         1.55000	-3.40000e+01	
			         1.55167	-3.50000e+01	
			         1.55333	-3.60000e+01	
			         1.55500	-3.60000e+01	
			         1.55667	-3.60000e+01	
			         1.55833	-3.60000e+01	
			         1.56000	-3.60000e+01	
			         1.56167	-3.50000e+01	
			         1.56333	-3.40000e+01	
			         1.56500	-3.30000e+01	
			         1.56667	-3.20000e+01	
			         1.56833	-3.10000e+01	
			         1.57000	-3.00000e+01	
			         1.57167	-2.90000e+01	
			         1.57333	-2.80000e+01	
			         1.57500	-2.70000e+01	
			         1.57667	-2.60000e+01	
			         1.57833	-2.50000e+01	
			         1.58000	-2.30000e+01	
			         1.58167	-2.20000e+01	
			         1.58333	-2.10000e+01	
			         1.58500	-2.00000e+01	
			         1.58667	-1.80000e+01	
			         1.58833	-1.80000e+01	
			         1.59000	-1.70000e+01	
			         1.59167	-1.70000e+01	
			         1.59333	-1.60000e+01	
			         1.59500	-1.70000e+01	
			         1.59667	-1.70000e+01	
			         1.59833	-1.70000e+01	
			         1.60000	-1.80000e+01	
			         1.60167	-1.80000e+01	
			         1.60333	-1.80000e+01	
			         1.60500	-1.80000e+01	
			         1.60667	-1.80000e+01	
			         1.60833	-1.80000e+01	
			         1.61000	-1.80000e+01	
			         1.61167	-1.70000e+01	
			         1.61333	-1.70000e+01	
			         1.61500	-1.60000e+01	
			         1.61667	-1.50000e+01	
			         1.61833	-1.40000e+01	
			         1.62000	-1.30000e+01	
			         1.62167	-1.20000e+01	
			         1.62333	-1.10000e+01	
			         1.62500	-1.00000e+01	
			         1.62667	-8.00000e+00	
			         1.62833	-5.00000e+00	
			         1.63000	-1.00000e+00	
			         1.63167	3.00000e+00	
			         1.63333	9.00000e+00	
			         1.63500	1.60000e+01	
			         1.63667	2.40000e+01	
			         1.63833	3.40000e+01	
			         1.64000	4.40000e+01	
			         1.64167	5.50000e+01	
			         1.64333	6.70000e+01	
			         1.64500	7.80000e+01	
			         1.64667	8.80000e+01	
			         1.64833	9.70000e+01	
			         1.65000	1.04000e+02	
			         1.65167	1.10000e+02	
			         1.65333	1.15000e+02	
			         1.65500	1.18000e+02	
			         1.65667	1.20000e+02	
			         1.65833	1.21000e+02	
			         1.66000	1.20000e+02	
			         1.66167	1.17000e+02	
			         1.66333	1.13000e+02	
			         1.66500	1.06000e+02	
			         1.66667	9.80000e+01	
			         1.66833	8.80000e+01	
			         1.67000	7.70000e+01	
			         1.67167	6.40000e+01	
			         1.67333	5.00000e+01	
			         1.67500	3.40000e+01	
			         1.67667	1.70000e+01	
			         1.67833	-1.00000e+00	
			         1.68000	-2.00000e+01	
			         1.68167	-3.70000e+01	
			         1.68333	-5.30000e+01	
			         1.68500	-6.70000e+01	
			         1.68667	-7.80000e+01	
			         1.68833	-8.50000e+01	
			         1.69000	-9.00000e+01	
			         1.69167	-9.20000e+01	
			         1.69333	-9.10000e+01	
			         1.69500	-8.80000e+01	
			         1.69667	-8.30000e+01	
			         1.69833	-7.70000e+01	
			         1.70000	-6.90000e+01	
			         1.70167	-6.00000e+01	
			         1.70333	-5.20000e+01	
			         1.70500	-4.30000e+01	
			         1.70667	-3.50000e+01	
			         1.70833	-2.80000e+01	
			         1.71000	-2.20000e+01	
			         1.71167	-1.70000e+01	
			         1.71333	-1.30000e+01	
			         1.71500	-1.00000e+01	
			         1.71667	-8.00000e+00	
			         1.71833	-6.00000e+00	
			         1.72000	-6.00000e+00	
			         1.72167	-6.00000e+00	
			         1.72333	-7.00000e+00	
			         1.72500	-8.00000e+00	
			         1.72667	-9.00000e+00	
			         1.72833	-1.00000e+01	
			         1.73000	-1.10000e+01	
			         1.73167	-1.20000e+01	
			         1.73333	-1.30000e+01	
			         1.73500	-1.30000e+01	
			         1.73667	-1.30000e+01	
			         1.73833	-1.20000e+01	
			         1.74000	-1.20000e+01	
			         1.74167	-1.10000e+01	
			         1.74333	-1.00000e+01	
			         1.74500	-9.00000e+00	
			         1.74667	-9.00000e+00	
			         1.74833	-9.00000e+00	
			         1.75000	-8.00000e+00	
			         1.75167	-8.00000e+00	
			         1.75333	-8.00000e+00	
			         1.75500	-9.00000e+00	
			         1.75667	-9.00000e+00	
			         1.75833	-9.00000e+00	
			         1.76000	-1.00000e+01	
			         1.76167	-1.00000e+01	
			         1.76333	-1.00000e+01	
			         1.76500	-1.00000e+01	
			         1.76667	-1.00000e+01	
			         1.76833	-9.00000e+00	
			         1.77000	-9.00000e+00	
			         1.77167	-9.00000e+00	
			         1.77333	-8.00000e+00	
			         1.77500	-8.00000e+00	
			         1.77667	-7.00000e+00	
			         1.77833	-7.00000e+00	
			         1.78000	-7.00000e+00	
			         1.78167	-7.00000e+00	
			         1.78333	-6.00000e+00	
			         1.78500	-6.00000e+00	
			         1.78667	-6.00000e+00	
			         1.78833	-5.00000e+00	
			         1.79000	-5.00000e+00	
			         1.79167	-5.00000e+00	
			         1.79333	-5.00000e+00	
			         1.79500	-5.00000e+00	
			         1.79667	-5.00000e+00	
			         1.79833	-5.00000e+00	
			         1.80000	-5.00000e+00	
			         1.80167	-5.00000e+00	
			         1.80333	-5.00000e+00	
			         1.80500	-6.00000e+00	
			         1.80667	-6.00000e+00	
			         1.80833	-6.00000e+00	
			         1.81000	-6.00000e+00	
			         1.81167	-6.00000e+00	
			         1.81333	-6.00000e+00	
			         1.81500	-6.00000e+00	
			         1.81667	-5.00000e+00	
			         1.81833	-5.00000e+00	
			         1.82000	-5.00000e+00	
			         1.82167	-4.00000e+00	
			         1.82333	-3.00000e+00	
			         1.82500	-2.00000e+00	
			         1.82667	-1.00000e+00	
			         1.82833	0.00000e+00	
			         1.83000	0.00000e+00	
			         1.83167	1.00000e+00	
			         1.83333	2.00000e+00	
			         1.83500	3.00000e+00	
			         1.83667	4.00000e+00	
			         1.83833	5.00000e+00	
			         1.84000	6.00000e+00	
			         1.84167	7.00000e+00	
			         1.84333	8.00000e+00	
			         1.84500	9.00000e+00	
			         1.84667	1.00000e+01	
			         1.84833	1.10000e+01	
			         1.85000	1.30000e+01	
			         1.85167	1.50000e+01	
			         1.85333	1.70000e+01	
			         1.85500	1.90000e+01	
			         1.85667	2.10000e+01	
			         1.85833	2.30000e+01	
			         1.86000	2.50000e+01	
			         1.86167	2.70000e+01	
			         1.86333	2.80000e+01	
			         1.86500	3.00000e+01	
			         1.86667	3.20000e+01	
			         1.86833	3.40000e+01	
			         1.87000	3.50000e+01	
			         1.87167	3.70000e+01	
			         1.87333	3.80000e+01	
			         1.87500	4.00000e+01	
			         1.87667	4.20000e+01	
			         1.87833	4.40000e+01	
			         1.88000	4.60000e+01	
			         1.88167	4.80000e+01	
			         1.88333	5.00000e+01	
			         1.88500	5.30000e+01	
			         1.88667	5.50000e+01	
			         1.88833	5.80000e+01	
			         1.89000	6.00000e+01	
			         1.89167	6.30000e+01	
			         1.89333	6.50000e+01	
			         1.89500	6.70000e+01	
			         1.89667	6.90000e+01	
			         1.89833	7.10000e+01	
			         1.90000	7.20000e+01	
			         1.90167	7.40000e+01	
			         1.90333	7.50000e+01	
			         1.90500	7.60000e+01	
			         1.90667	7.70000e+01	
			         1.90833	7.90000e+01	
			         1.91000	8.00000e+01	
			         1.91167	8.10000e+01	
			         1.91333	8.10000e+01	
			         1.91500	8.20000e+01	
			         1.91667	8.30000e+01	
			         1.91833	8.40000e+01	
			         1.92000	8.40000e+01	
			         1.92167	8.40000e+01	
			         1.92333	8.40000e+01	
			         1.92500	8.40000e+01	
			         1.92667	8.30000e+01	
			         1.92833	8.10000e+01	
			         1.93000	7.90000e+01	
			         1.93167	7.60000e+01	
			         1.93333	7.30000e+01	
			         1.93500	7.00000e+01	
			         1.93667	6.60000e+01	
			         1.93833	6.10000e+01	
			         1.94000	5.70000e+01	
			         1.94167	5.20000e+01	
			         1.94333	4.70000e+01	
			         1.94500	4.20000e+01	
			         1.94667	3.60000e+01	
			         1.94833	3.10000e+01	
			         1.95000	2.60000e+01	
			         1.95167	2.10000e+01	
			         1.95333	1.60000e+01	
			         1.95500	1.10000e+01	
			         1.95667	6.00000e+00	
			         1.95833	0.00000e+00	
			         1.96000	-5.00000e+00	
			         1.96167	-1.00000e+01	
			         1.96333	-1.50000e+01	
			         1.96500	-2.00000e+01	
			         1.96667	-2.50000e+01	
			         1.96833	-2.90000e+01	
			         1.97000	-3.40000e+01	
			         1.97167	-3.80000e+01	
			         1.97333	-4.10000e+01	
			         1.97500	-4.50000e+01	
			         1.97667	-4.70000e+01	
			         1.97833	-5.00000e+01	
			         1.98000	-5.20000e+01	
			         1.98167	-5.40000e+01	
			         1.98333	-5.50000e+01	
			         1.98500	-5.60000e+01	
			         1.98667	-5.70000e+01	
			         1.98833	-5.70000e+01	
			         1.99000	-5.80000e+01	
			         1.99167	-5.80000e+01	
			         1.99333	-5.80000e+01	
			         1.99500	-5.80000e+01	
			         1.99667	-5.70000e+01	
			         1.99833	-5.60000e+01	
			         2.00000	-5.60000e+01	
			         2.00167	-5.40000e+01	
			         2.00333	-5.30000e+01	
			         2.00500	-5.20000e+01	
			         2.00667	-5.00000e+01	
			         2.00833	-4.80000e+01	
			         2.01000	-4.70000e+01	
			         2.01167	-4.50000e+01	
			         2.01333	-4.40000e+01	
			         2.01500	-4.20000e+01	
			         2.01667	-4.10000e+01	
			         2.01833	-4.00000e+01	
			         2.02000	-3.90000e+01	
			         2.02167	-3.80000e+01	
			         2.02333	-3.70000e+01	
			         2.02500	-3.60000e+01	
			         2.02667	-3.60000e+01	
			         2.02833	-3.50000e+01	
			         2.03000	-3.40000e+01	
			         2.03167	-3.40000e+01	
			         2.03333	-3.30000e+01	
			         2.03500	-3.20000e+01	
			         2.03667	-3.20000e+01	
			         2.03833	-3.10000e+01	
			         2.04000	-3.10000e+01	
			         2.04167	-3.00000e+01	
			         2.04333	-3.00000e+01	
			         2.04500	-3.00000e+01	
			         2.04667	-3.00000e+01	
			         2.04833	-2.90000e+01	
			         2.05000	-2.90000e+01	
			         2.05167	-2.90000e+01	
			         2.05333	-2.90000e+01	
			         2.05500	-2.90000e+01	
			         2.05667	-2.90000e+01	
			         2.05833	-2.90000e+01	
			         2.06000	-2.90000e+01	
			         2.06167	-2.80000e+01	
			         2.06333	-2.80000e+01	
			         2.06500	-2.70000e+01	
			         2.06667	-2.70000e+01	
			         2.06833	-2.60000e+01	
			         2.07000	-2.50000e+01	
			         2.07167	-2.40000e+01	
			         2.07333	-2.30000e+01	
			         2.07500	-2.20000e+01	
			         2.07667	-2.10000e+01	
			         2.07833	-2.00000e+01	
			         2.08000	-2.00000e+01	
			         2.08167	-1.90000e+01	
			         2.08333	-1.90000e+01	
			         2.08500	-1.80000e+01	
			         2.08667	-1.80000e+01	
			         2.08833	-1.70000e+01	
			         2.09000	-1.70000e+01	
			         2.09167	-1.70000e+01	
			         2.09333	-1.60000e+01	
			         2.09500	-1.60000e+01	
			         2.09667	-1.50000e+01	
			         2.09833	-1.50000e+01	
			         2.10000	-1.50000e+01	
			         2.10167	-1.50000e+01	
			         2.10333	-1.50000e+01	
			         2.10500	-1.50000e+01	
			         2.10667	-1.40000e+01	
			         2.10833	-1.40000e+01	
			         2.11000	-1.40000e+01	
			         2.11167	-1.40000e+01	
			         2.11333	-1.40000e+01	
			         2.11500	-1.40000e+01	
			         2.11667	-1.40000e+01	
			         2.11833	-1.40000e+01	
			         2.12000	-1.40000e+01	
			         2.12167	-1.40000e+01	
			         2.12333	-1.40000e+01	
			         2.12500	-1.40000e+01	
			         2.12667	-1.30000e+01	
			         2.12833	-1.30000e+01	
			         2.13000	-1.30000e+01	
			         2.13167	-1.20000e+01	
			         2.13333	-1.10000e+01	
			         2.13500	-1.00000e+01	
			         2.13667	-9.00000e+00	
			         2.13833	-8.00000e+00	
			         2.14000	-8.00000e+00	
			         2.14167	-7.00000e+00	
			         2.14333	-6.00000e+00	
			         2.14500	-6.00000e+00	
			         2.14667	-5.00000e+00	
			         2.14833	-5.00000e+00	
			         2.15000	-5.00000e+00	
			         2.15167	-4.00000e+00	
			         2.15333	-4.00000e+00	
			         2.15500	-4.00000e+00	
			         2.15667	-3.00000e+00	
			         2.15833	-2.00000e+00	
			         2.16000	-2.00000e+00	
			         2.16167	-1.00000e+00	
			         2.16333	0.00000e+00	
			         2.16500	1.00000e+00	
			         2.16667	1.00000e+00	
			         2.16833	2.00000e+00	
			         2.17000	2.00000e+00	
			         2.17167	2.00000e+00	
			         2.17333	3.00000e+00	
			         2.17500	3.00000e+00	
			         2.17667	3.00000e+00	
			         2.17833	3.00000e+00	
			         2.18000	3.00000e+00	
			         2.18167	3.00000e+00	
			         2.18333	3.00000e+00	
			         2.18500	3.00000e+00	
			         2.18667	3.00000e+00	
			         2.18833	3.00000e+00	
			         2.19000	3.00000e+00	
			         2.19167	3.00000e+00	
			         2.19333	3.00000e+00	
			         2.19500	3.00000e+00	
			         2.19667	3.00000e+00	
			         2.19833	3.00000e+00	
			         2.20000	3.00000e+00	
			         2.20167	3.00000e+00	
			         2.20333	2.00000e+00	
			         2.20500	2.00000e+00	
			         2.20667	2.00000e+00	
			         2.20833	2.00000e+00	
			         2.21000	2.00000e+00	
			         2.21167	2.00000e+00	
			         2.21333	2.00000e+00	
			         2.21500	1.00000e+00	
			         2.21667	1.00000e+00	
			         2.21833	1.00000e+00	
			         2.22000	1.00000e+00	
			         2.22167	0.00000e+00	
			         2.22333	0.00000e+00	
			         2.22500	-1.00000e+00	
			         2.22667	-1.00000e+00	
			         2.22833	-2.00000e+00	
			         2.23000	-2.00000e+00	
			         2.23167	-3.00000e+00	
			         2.23333	-3.00000e+00	
			         2.23500	-3.00000e+00	
			         2.23667	-4.00000e+00	
			         2.23833	-4.00000e+00	
			         2.24000	-4.00000e+00	
			         2.24167	-4.00000e+00	
			         2.24333	-4.00000e+00	
			         2.24500	-4.00000e+00	
			         2.24667	-3.00000e+00	
			         2.24833	-3.00000e+00	
			         2.25000	-2.00000e+00	
			         2.25167	-1.00000e+00	
			         2.25333	0.00000e+00	
			         2.25500	2.00000e+00	
			         2.25667	3.00000e+00	
			         2.25833	4.00000e+00	
			         2.26000	6.00000e+00	
			         2.26167	7.00000e+00	
			         2.26333	9.00000e+00	
			         2.26500	1.10000e+01	
			         2.26667	1.20000e+01	
			         2.26833	1.40000e+01	
			         2.27000	1.50000e+01	
			         2.27167	1.70000e+01	
			         2.27333	1.80000e+01	
			         2.27500	1.90000e+01	
			         2.27667	2.10000e+01	
			         2.27833	2.20000e+01	
			         2.28000	2.40000e+01	
			         2.28167	2.50000e+01	
			         2.28333	2.60000e+01	
			         2.28500	2.60000e+01	
			         2.28667	2.70000e+01	
			         2.28833	2.70000e+01	
			         2.29000	2.60000e+01	
			         2.29167	2.50000e+01	
			         2.29333	2.50000e+01	
			         2.29500	2.40000e+01	
			         2.29667	2.30000e+01	
			         2.29833	2.20000e+01	
			         2.30000	2.20000e+01	
			         2.30167	2.10000e+01	
			         2.30333	2.10000e+01	
			         2.30500	2.10000e+01	
			         2.30667	2.00000e+01	
			         2.30833	2.00000e+01	
			         2.31000	2.00000e+01	
			         2.31167	1.90000e+01	
			         2.31333	1.80000e+01	
			         2.31500	1.60000e+01	
			         2.31667	1.40000e+01	
			         2.31833	1.10000e+01	
			         2.32000	7.00000e+00	
			         2.32167	3.00000e+00	
			         2.32333	-1.00000e+00	
			         2.32500	-5.00000e+00	
			         2.32667	-9.00000e+00	
			         2.32833	-1.20000e+01	
			         2.33000	-1.50000e+01	
			         2.33167	-1.70000e+01	
			         2.33333	-1.90000e+01	
			         2.33500	-2.00000e+01	
			         2.33667	-2.00000e+01	
			         2.33833	-2.00000e+01	
			         2.34000	-1.90000e+01	
			         2.34167	-1.80000e+01	
			         2.34333	-1.70000e+01	
			         2.34500	-1.70000e+01	
			         2.34667	-1.60000e+01	
			         2.34833	-1.50000e+01	
			         2.35000	-1.50000e+01	
			         2.35167	-1.60000e+01	
			         2.35333	-1.70000e+01	
			         2.35500	-1.80000e+01	
			         2.35667	-1.90000e+01	
			         2.35833	-2.00000e+01	
			         2.36000	-2.20000e+01	
			         2.36167	-2.30000e+01	
			         2.36333	-2.50000e+01	
			         2.36500	-2.60000e+01	
			         2.36667	-2.80000e+01	
			         2.36833	-2.90000e+01	
			         2.37000	-3.00000e+01	
			         2.37167	-3.10000e+01	
			         2.37333	-3.10000e+01	
			         2.37500	-3.10000e+01	
			         2.37667	-3.20000e+01	
			         2.37833	-3.20000e+01	
			         2.38000	-3.20000e+01	
			         2.38167	-3.20000e+01	
			         2.38333	-3.10000e+01	
			         2.38500	-3.10000e+01	
			         2.38667	-3.00000e+01	
			         2.38833	-2.90000e+01	
			         2.39000	-2.80000e+01	
			         2.39167	-2.70000e+01	
			         2.39333	-2.60000e+01	
			         2.39500	-2.50000e+01	
			         2.39667	-2.40000e+01	
			         2.39833	-2.30000e+01	
			         2.40000	-2.20000e+01	
			         2.40167	-2.20000e+01	
			         2.40333	-2.10000e+01	
			         2.40500	-2.10000e+01	
			         2.40667	-2.10000e+01	
			         2.40833	-2.00000e+01	
			         2.41000	-2.00000e+01	
			         2.41167	-1.90000e+01	
			         2.41333	-1.80000e+01	
			         2.41500	-1.70000e+01	
			         2.41667	-1.60000e+01	
			         2.41833	-1.50000e+01	
			         2.42000	-1.40000e+01	
			         2.42167	-1.20000e+01	
			         2.42333	-1.10000e+01	
			         2.42500	-1.00000e+01	
			         2.42667	-9.00000e+00	
			         2.42833	-8.00000e+00	
			         2.43000	-7.00000e+00	
			         2.43167	-7.00000e+00	
			         2.43333	-6.00000e+00	
			         2.43500	-6.00000e+00	
			         2.43667	-6.00000e+00	
			         2.43833	-5.00000e+00	
			         2.44000	-5.00000e+00	
			         2.44167	-4.00000e+00	
			         2.44333	-3.00000e+00	
			         2.44500	-2.00000e+00	
			         2.44667	1.00000e+00	
			         2.44833	3.00000e+00	
			         2.45000	7.00000e+00	
			         2.45167	1.20000e+01	
			         2.45333	1.80000e+01	
			         2.45500	2.50000e+01	
			         2.45667	3.30000e+01	
			         2.45833	4.30000e+01	
			         2.46000	5.30000e+01	
			         2.46167	6.40000e+01	
			         2.46333	7.40000e+01	
			         2.46500	8.40000e+01	
			         2.46667	9.30000e+01	
			         2.46833	1.01000e+02	
			         2.47000	1.08000e+02	
			         2.47167	1.13000e+02	
			         2.47333	1.17000e+02	
			         2.47500	1.20000e+02	
			         2.47667	1.22000e+02	
			         2.47833	1.22000e+02	
			         2.48000	1.20000e+02	
			         2.48167	1.17000e+02	
			         2.48333	1.12000e+02	
			         2.48500	1.04000e+02	
			         2.48667	9.50000e+01	
			         2.48833	8.50000e+01	
			         2.49000	7.30000e+01	
			         2.49167	5.90000e+01	
			         2.49333	4.40000e+01	
			         2.49500	2.80000e+01	
			         2.49667	1.00000e+01	
			         2.49833	-7.00000e+00	
			         2.50000	-2.50000e+01	
			         2.50167	-4.10000e+01	
			         2.50333	-5.40000e+01	
			         2.50500	-6.50000e+01	
			         2.50667	-7.20000e+01	
			         2.50833	-7.70000e+01	
			         2.51000	-7.90000e+01	
			         2.51167	-7.90000e+01	
			         2.51333	-7.60000e+01	
			         2.51500	-7.10000e+01	
			         2.51667	-6.50000e+01	
			         2.51833	-5.80000e+01	
			         2.52000	-5.00000e+01	
			         2.52167	-4.20000e+01	
			         2.52333	-3.50000e+01	
			         2.52500	-2.90000e+01	
			         2.52667	-2.30000e+01	
			         2.52833	-1.90000e+01	
			         2.53000	-1.50000e+01	
			         2.53167	-1.30000e+01	
			         2.53333	-1.10000e+01	
			         2.53500	-9.00000e+00	
			         2.53667	-8.00000e+00	
			         2.53833	-8.00000e+00	
			         2.54000	-8.00000e+00	
			         2.54167	-8.00000e+00	
			         2.54333	-8.00000e+00	
			         2.54500	-8.00000e+00	
			         2.54667	-8.00000e+00	
			         2.54833	-7.00000e+00	
			         2.55000	-7.00000e+00	
			         2.55167	-7.00000e+00	
			         2.55333	-7.00000e+00	
			         2.55500	-7.00000e+00	
			         2.55667	-7.00000e+00	
			         2.55833	-6.00000e+00	
			         2.56000	-6.00000e+00	
			         2.56167	-6.00000e+00	
			         2.56333	-5.00000e+00	
			         2.56500	-5.00000e+00	
			         2.56667	-5.00000e+00	
			         2.56833	-5.00000e+00	
			         2.57000	-4.00000e+00	
