Velocity (TVI), in cm/s

Time (s) :	Trace 1 : 		Ecg : 		
0.00453   	-5.50881e+00		         0.00000	2.00000e+00	
0.00983   	-5.15426e+00		         0.00167	1.10000e+01	
0.01515   	-4.68716e+00		         0.00333	2.40000e+01	
0.02047   	-3.87620e+00		         0.00500	4.20000e+01	
0.02582   	-3.09634e+00		         0.00667	6.40000e+01	
0.03111   	-2.43611e+00		         0.00833	9.20000e+01	
0.03643   	-1.38969e+00		         0.01000	1.24000e+02	
0.04175   	6.11255e-01		         0.01167	1.61000e+02	
0.04707   	1.90050e+00		         0.01333	2.01000e+02	
0.05238   	2.53593e+00		         0.01500	2.44000e+02	
0.05770   	2.72584e+00		         0.01667	2.89000e+02	
0.06302   	2.31040e+00		         0.01833	3.32000e+02	
0.06836   	8.57191e-01		         0.02000	3.71000e+02	
0.07365   	4.77689e-02		         0.02167	4.02000e+02	
0.07898   	-9.00840e-02		         0.02333	4.23000e+02	
0.08429   	3.91456e-01		         0.02500	4.32000e+02	
0.08963   	1.11950e+00		         0.02667	4.26000e+02	
0.09493   	1.84506e+00		         0.02833	4.06000e+02	
0.10024   	2.56880e+00		         0.03000	3.73000e+02	
0.10556   	3.26017e+00		         0.03167	3.27000e+02	
0.11090   	3.69653e+00		         0.03333	2.70000e+02	
0.11620   	3.95333e+00		         0.03500	2.05000e+02	
0.12152   	4.13980e+00		         0.03667	1.35000e+02	
0.12684   	4.18594e+00		         0.03833	6.20000e+01	
0.13217   	4.13666e+00		         0.04000	-1.00000e+01	
0.13747   	4.18579e+00		         0.04167	-7.70000e+01	
0.14279   	4.36199e+00		         0.04333	-1.36000e+02	
0.14811   	4.30990e+00		         0.04500	-1.85000e+02	
0.15344   	4.32735e+00		         0.04667	-2.22000e+02	
0.15874   	4.42308e+00		         0.04833	-2.47000e+02	
0.16406   	4.34948e+00		         0.05000	-2.60000e+02	
0.16938   	4.15844e+00		         0.05167	-2.63000e+02	
0.17473   	4.18938e+00		         0.05333	-2.57000e+02	
0.18002   	4.26634e+00		         0.05500	-2.43000e+02	
0.18534   	4.22688e+00		         0.05667	-2.24000e+02	
0.19065   	4.25633e+00		         0.05833	-2.02000e+02	
0.19598   	4.33279e+00		         0.06000	-1.78000e+02	
0.20129   	4.34939e+00		         0.06167	-1.54000e+02	
0.20661   	4.28934e+00		         0.06333	-1.31000e+02	
0.21193   	4.31359e+00		         0.06500	-1.10000e+02	
0.21726   	4.22702e+00		         0.06667	-9.10000e+01	
0.22256   	4.15538e+00		         0.06833	-7.40000e+01	
0.22788   	4.15490e+00		         0.07000	-6.00000e+01	
0.23320   	4.10604e+00		         0.07167	-4.80000e+01	
0.23853   	4.02227e+00		         0.07333	-3.90000e+01	
0.24383   	4.00145e+00		         0.07500	-3.20000e+01	
0.24915   	3.92580e+00		         0.07667	-2.80000e+01	
0.25447   	3.75548e+00		         0.07833	-2.40000e+01	
0.25982   	3.65583e+00		         0.08000	-2.20000e+01	
0.26511   	3.54030e+00		         0.08167	-2.10000e+01	
0.27043   	3.42381e+00		         0.08333	-2.10000e+01	
0.27574   	3.33533e+00		         0.08500	-2.00000e+01	
0.28108   	3.24593e+00		         0.08667	-2.10000e+01	
0.28638   	3.11391e+00		         0.08833	-2.10000e+01	
0.29170   	3.02235e+00		         0.09000	-2.10000e+01	
0.29702   	2.89808e+00		         0.09167	-2.10000e+01	
0.30235   	2.74393e+00		         0.09333	-2.00000e+01	
0.30765   	2.60565e+00		         0.09500	-2.00000e+01	
0.31297   	2.52615e+00		         0.09667	-1.90000e+01	
0.31829   	2.39782e+00		         0.09833	-1.80000e+01	
0.32363   	2.33741e+00		         0.10000	-1.70000e+01	
0.32893   	2.24961e+00		         0.10167	-1.60000e+01	
0.33424   	2.09651e+00		         0.10333	-1.50000e+01	
0.33956   	1.96462e+00		         0.10500	-1.40000e+01	
0.34490   	1.82536e+00		         0.10667	-1.20000e+01	
0.35020   	1.66878e+00		         0.10833	-1.10000e+01	
0.35552   	1.54232e+00		         0.11000	-9.00000e+00	
0.36084   	1.35724e+00		         0.11167	-8.00000e+00	
0.36618   	1.18733e+00		         0.11333	-7.00000e+00	
0.37147   	1.00684e+00		         0.11500	-6.00000e+00	
0.37679   	7.90552e-01		         0.11667	-5.00000e+00	
0.38211   	5.48850e-01		         0.11833	-4.00000e+00	
0.38750   	2.84151e-01		         0.12000	-3.00000e+00	
0.39274   	2.73522e-02		         0.12167	-2.00000e+00	
0.39806   	1.00328e-01		         0.12333	-1.00000e+00	
0.40338   	1.28182e-01		         0.12500	0.00000e+00	
0.40871   	2.28031e-01		         0.12667	0.00000e+00	
0.41402   	4.19987e-01		         0.12833	1.00000e+00	
0.41933   	5.11642e-01		         0.13000	1.00000e+00	
0.42465   	3.78702e-01		         0.13167	1.00000e+00	
0.42999   	3.05688e-01		         0.13333	2.00000e+00	
0.43529   	2.23926e-01		         0.13500	2.00000e+00	
0.44061   	2.14844e-01		         0.13667	2.00000e+00	
0.44593   	2.41307e-01		         0.13833	2.00000e+00	
0.45127   	3.15785e-01		         0.14000	2.00000e+00	
0.45656   	5.24619e-01		         0.14167	3.00000e+00	
0.46188   	6.27448e-01		         0.14333	3.00000e+00	
0.46720   	7.09695e-01		         0.14500	3.00000e+00	
0.47253   	7.34306e-01		         0.14667	4.00000e+00	
0.47784   	7.36007e-01		         0.14833	5.00000e+00	
0.48315   	6.24230e-01		         0.15000	5.00000e+00	
0.48847   	6.04378e-02		         0.15167	6.00000e+00	
0.49381   	-6.17052e-01		         0.15333	7.00000e+00	
0.49911   	-1.49873e+00		         0.15500	8.00000e+00	
0.50442   	-2.61927e+00		         0.15667	9.00000e+00	
0.50975   	-3.52930e+00		         0.15833	1.00000e+01	
0.51509   	-4.12650e+00		         0.16000	1.10000e+01	
0.52042   	-4.55696e+00		         0.16167	1.20000e+01	
0.52570   	-4.69438e+00		         0.16333	1.30000e+01	
0.53102   	-4.65739e+00		         0.16500	1.30000e+01	
0.53634   	-4.79613e+00		         0.16667	1.40000e+01	
0.54165   	-4.53649e+00		         0.16833	1.50000e+01	
0.54697   	-4.41669e+00		         0.17000	1.50000e+01	
0.55229   	-4.31330e+00		         0.17167	1.60000e+01	
0.55763   	-4.03491e+00		         0.17333	1.60000e+01	
0.56293   	-3.82323e+00		         0.17500	1.60000e+01	
0.56824   	-3.69377e+00		         0.17667	1.70000e+01	
0.57356   	-3.41398e+00		         0.17833	1.70000e+01	
0.57890   	-3.08803e+00		         0.18000	1.70000e+01	
0.58420   	-2.88199e+00		         0.18167	1.70000e+01	
0.58952   	-2.49372e+00		         0.18333	1.80000e+01	
0.59484   	-2.22645e+00		         0.18500	1.90000e+01	
0.60016   	-1.95027e+00		         0.18667	1.90000e+01	
0.60547   	-1.73660e+00		         0.18833	2.00000e+01	
0.61079   	-1.49482e+00		         0.19000	2.20000e+01	
0.61611   	-1.37530e+00		         0.19167	2.30000e+01	
0.62144   	-1.17765e+00		         0.19333	2.40000e+01	
0.62674   	-1.05552e+00		         0.19500	2.60000e+01	
0.63206   	-8.75382e-01		         0.19667	2.70000e+01	
0.63738   	-7.40957e-01		         0.19833	2.90000e+01	
0.64273   	-6.14197e-01		         0.20000	3.00000e+01	
0.64802   	-4.81981e-01		         0.20167	3.10000e+01	
0.65333   	-3.10733e-01		         0.20333	3.30000e+01	
0.65865   	-2.05678e-01		         0.20500	3.40000e+01	
0.66400   	-1.16810e-01		         0.20667	3.50000e+01	
0.66929   	-4.38793e-02		         0.20833	3.60000e+01	
0.67461   	1.32926e-02		         0.21000	3.70000e+01	
0.67993   	-2.90303e-03		         0.21167	3.70000e+01	
0.68526   	8.30439e-03		         0.21333	3.80000e+01	
0.69056   	2.44652e-02		         0.21500	3.80000e+01	
0.69588   	6.58485e-02		         0.21667	3.90000e+01	
0.70120   	4.97814e-02		         0.21833	3.90000e+01	
0.70654   	4.67353e-02		         0.22000	3.90000e+01	
0.71184   	2.88048e-02		         0.22167	3.90000e+01	
0.71715   	-8.11345e-04		         0.22333	3.90000e+01	
0.72247   	-5.63969e-02		         0.22500	4.00000e+01	
0.72780   	-1.08094e-01		         0.22667	4.00000e+01	
0.73311   	-1.57639e-01		         0.22833	4.00000e+01	
0.73842   	-1.69458e-01		         0.23000	4.00000e+01	
0.74374   	-1.81924e-01		         0.23167	4.10000e+01	
0.74907   	-1.94422e-01		         0.23333	4.10000e+01	
0.75438   	-1.64230e-01		         0.23500	4.20000e+01	
0.75970   	-1.54808e-01		         0.23667	4.30000e+01	
0.76502   	-1.58162e-01		         0.23833	4.40000e+01	
0.77035   	-1.66523e-01		         0.24000	4.50000e+01	
0.77565   	-1.76605e-01		         0.24167	4.70000e+01	
0.78097   	-1.86902e-01		         0.24333	4.80000e+01	
0.78629   	-1.87960e-01		         0.24500	5.00000e+01	
0.79164   	-1.87727e-01		         0.24667	5.20000e+01	
0.79693   	-1.83344e-01		         0.24833	5.40000e+01	
0.80224   	-1.80820e-01		         0.25000	5.60000e+01	
0.80756   	-1.89970e-01		         0.25167	5.80000e+01	
0.81290   	-1.86070e-01		         0.25333	6.00000e+01	
0.81819   	-1.86259e-01		         0.25500	6.20000e+01	
0.82352   	-1.78681e-01		         0.25667	6.50000e+01	
0.82883   	-1.61691e-01		         0.25833	6.70000e+01	
0.83416   	-1.48212e-01		         0.26000	6.90000e+01	
0.83947   	-1.42853e-01		         0.26167	7.10000e+01	
0.84479   	-1.34288e-01		         0.26333	7.30000e+01	
0.85011   	-1.38543e-01		         0.26500	7.50000e+01	
0.85545   	-1.50085e-01		         0.26667	7.70000e+01	
0.86074   	-1.54983e-01		         0.26833	7.90000e+01	
0.86606   	-1.48678e-01		         0.27000	8.10000e+01	
0.87138   	-1.56301e-01		         0.27167	8.30000e+01	
0.87672   	-1.50720e-01		         0.27333	8.50000e+01	
0.88202   	-1.43135e-01		         0.27500	8.60000e+01	
0.88733   	-1.41568e-01		         0.27667	8.80000e+01	
0.89265   	-1.48978e-01		         0.27833	8.90000e+01	
0.89800   	-1.46098e-01		         0.28000	9.10000e+01	
0.90329   	-1.41357e-01		         0.28167	9.20000e+01	
0.90861   	-1.21067e-01		         0.28333	9.40000e+01	
0.91392   	-9.04900e-02		         0.28500	9.50000e+01	
0.91927   	-5.13972e-02		         0.28667	9.70000e+01	
0.92456   	-2.31148e-02		         0.28833	9.90000e+01	
0.92988   	-1.79233e-03		         0.29000	1.00000e+02	
0.93550   	4.44964e-03		         0.29167	1.02000e+02	
0.94054   	9.22188e-04		         0.29333	1.04000e+02	
0.94583   	-1.62985e-02		         0.29500	1.05000e+02	
0.95115   	-3.07256e-02		         0.29667	1.07000e+02	
0.95647   	-1.06958e-01		         0.29833	1.08000e+02	
0.96180   	-2.36986e-01		         0.30000	1.10000e+02	
0.96711   	-4.50388e-01		         0.30167	1.11000e+02	
0.97243   	-6.96228e-01		         0.30333	1.13000e+02	
0.97774   	-9.85531e-01		         0.30500	1.14000e+02	
0.98307   	-1.39097e+00		         0.30667	1.15000e+02	
0.98838   	-1.87195e+00		         0.30833	1.16000e+02	
0.99370   	-2.37207e+00		         0.31000	1.16000e+02	
0.99902   	-2.93972e+00		         0.31167	1.16000e+02	
1.00435   	-3.64473e+00		         0.31333	1.16000e+02	
1.00966   	-4.32563e+00		         0.31500	1.16000e+02	
1.01497   	-5.02815e+00		         0.31667	1.15000e+02	
1.02029   	-5.75488e+00		         0.31833	1.14000e+02	
1.02563   	-6.38324e+00		         0.32000	1.12000e+02	
1.03093   	-6.86431e+00		         0.32167	1.10000e+02	
1.03624   	-7.17273e+00		         0.32333	1.07000e+02	
1.04156   	-7.29295e+00		         0.32500	1.04000e+02	
1.04690   	-7.17188e+00		         0.32667	1.00000e+02	
1.05220   	-6.76272e+00		         0.32833	9.50000e+01	
1.05752   	-6.19294e+00		         0.33000	9.00000e+01	
1.06283   	-5.52770e+00		         0.33167	8.50000e+01	
1.06820   	-4.72056e+00		         0.33333	7.90000e+01	
1.07347   	-3.85134e+00		         0.33500	7.30000e+01	
1.07879   	-2.91094e+00		         0.33667	6.70000e+01	
1.08410   	-1.74653e+00		         0.33833	6.00000e+01	
1.08943   	-1.64013e-01		         0.34000	5.20000e+01	
1.09474   	1.48751e+00		         0.34167	4.50000e+01	
1.10006   	2.91203e+00		         0.34333	3.80000e+01	
1.10538   	3.67564e+00		         0.34500	3.10000e+01	
1.11072   	3.25142e+00		         0.34667	2.30000e+01	
1.11602   	2.16376e+00		         0.34833	1.60000e+01	
1.12133   	9.29901e-01		         0.35000	9.00000e+00	
1.12665   	-1.46795e-01		         0.35167	1.00000e+00	
1.13198   	-6.04623e-01		         0.35333	-6.00000e+00	
1.13729   	1.74523e-01		         0.35500	-1.30000e+01	
1.14260   	1.26970e+00		         0.35667	-2.00000e+01	
1.14792   	2.43733e+00		         0.35833	-2.70000e+01	
1.15326   	3.63034e+00		         0.36000	-3.40000e+01	
1.15856   	4.58810e+00		         0.36167	-4.00000e+01	
1.16388   	5.14633e+00		         0.36333	-4.60000e+01	
1.16920   	5.46454e+00		         0.36500	-5.10000e+01	
1.17454   	5.63783e+00		         0.36667	-5.60000e+01	
1.17983   	5.68694e+00		         0.36833	-6.10000e+01	
1.18515   	5.67370e+00		         0.37000	-6.50000e+01	
1.19047   	5.66758e+00		         0.37167	-6.80000e+01	
1.19580   	5.77303e+00		         0.37333	-7.10000e+01	
1.20123   	5.73545e+00		         0.37500	-7.40000e+01	
1.20643   	5.66159e+00		         0.37667	-7.60000e+01	
1.21174   	5.51190e+00		         0.37833	-7.70000e+01	
1.21709   	5.31025e+00		         0.38000	-7.90000e+01	
1.22238   	5.02176e+00		         0.38167	-8.00000e+01	
1.22770   	4.87573e+00		         0.38333	-8.00000e+01	
1.23301   	4.65907e+00		         0.38500	-8.10000e+01	
1.23836   	4.55550e+00		         0.38667	-8.10000e+01	
1.24365   	4.43259e+00		         0.38833	-8.10000e+01	
1.24897   	4.37642e+00		         0.39000	-8.10000e+01	
1.25429   	4.30819e+00		         0.39167	-8.10000e+01	
1.25963   	4.36949e+00		         0.39333	-8.00000e+01	
1.26492   	4.38872e+00		         0.39500	-8.00000e+01	
1.27024   	4.47083e+00		         0.39667	-7.90000e+01	
1.27556   	4.48976e+00		         0.39833	-7.90000e+01	
1.28089   	4.45511e+00		         0.40000	-7.80000e+01	
1.28620   	4.36204e+00		         0.40167	-7.80000e+01	
1.29152   	4.25321e+00		         0.40333	-7.70000e+01	
1.29683   	4.10745e+00		         0.40500	-7.60000e+01	
1.30217   	3.95567e+00		         0.40667	-7.50000e+01	
1.30747   	3.80368e+00		         0.40833	-7.40000e+01	
1.31279   	3.65696e+00		         0.41000	-7.30000e+01	
1.31810   	3.52225e+00		         0.41167	-7.10000e+01	
1.32345   	3.39167e+00		         0.41333	-7.00000e+01	
1.32874   	3.28500e+00		         0.41500	-6.90000e+01	
1.33406   	3.19646e+00		         0.41667	-6.80000e+01	
1.33938   	3.10455e+00		         0.41833	-6.70000e+01	
1.34472   	2.98267e+00		         0.42000	-6.50000e+01	
1.35001   	2.86025e+00		         0.42167	-6.40000e+01	
1.35533   	2.75364e+00		         0.42333	-6.30000e+01	
1.36065   	2.61027e+00		         0.42500	-6.20000e+01	
1.36600   	2.48451e+00		         0.42667	-6.10000e+01	
1.37129   	2.34710e+00		         0.42833	-6.00000e+01	
1.37660   	2.25900e+00		         0.43000	-5.90000e+01	
1.38192   	2.15646e+00		         0.43167	-5.80000e+01	
1.38726   	2.01010e+00		         0.43333	-5.70000e+01	
1.39256   	1.85147e+00		         0.43500	-5.60000e+01	
1.39788   	1.75565e+00		         0.43667	-5.50000e+01	
1.40320   	1.57437e+00		         0.43833	-5.40000e+01	
1.40854   	1.35976e+00		         0.44000	-5.20000e+01	
1.41383   	1.19382e+00		         0.44167	-5.10000e+01	
1.41915   	9.53421e-01		         0.44333	-5.00000e+01	
1.42447   	6.71032e-01		         0.44500	-4.80000e+01	
1.42981   	3.96950e-01		         0.44667	-4.70000e+01	
1.43510   	3.42271e-02		         0.44833	-4.60000e+01	
1.44042   	-3.64983e-01		         0.45000	-4.40000e+01	
1.44574   	-8.04232e-01		         0.45167	-4.30000e+01	
1.45108   	-1.16554e+00		         0.45333	-4.10000e+01	
1.45638   	-1.32468e+00		         0.45500	-4.00000e+01	
1.46170   	-1.29335e+00		         0.45667	-3.80000e+01	
1.46701   	-1.05631e+00		         0.45833	-3.70000e+01	
1.47235   	-7.14149e-01		         0.46000	-3.50000e+01	
1.47765   	-3.87978e-01		         0.46167	-3.30000e+01	
1.48333   	-1.76555e-01		         0.46333	-3.10000e+01	
1.48829   	6.64056e-03		         0.46500	-2.90000e+01	
1.49362   	1.38391e-01		         0.46667	-2.80000e+01	
1.49892   	3.51693e-01		         0.46833	-2.60000e+01	
1.50424   	5.40109e-01		         0.47000	-2.40000e+01	
1.50956   	7.47524e-01		         0.47167	-2.30000e+01	
1.51489   	8.68564e-01		         0.47333	-2.10000e+01	
1.52020   	8.69963e-01		         0.47500	-2.00000e+01	
1.52551   	7.88194e-01		         0.47667	-1.90000e+01	
1.53083   	5.29249e-01		         0.47833	-1.80000e+01	
1.53617   	8.40254e-02		         0.48000	-1.70000e+01	
1.54147   	-4.18682e-01		         0.48167	-1.60000e+01	
1.54679   	-9.63107e-01		         0.48333	-1.50000e+01	
1.55210   	-1.61901e+00		         0.48500	-1.50000e+01	
1.55744   	-2.16149e+00		         0.48667	-1.40000e+01	
1.56274   	-2.59676e+00		         0.48833	-1.30000e+01	
1.56806   	-3.00599e+00		         0.49000	-1.20000e+01	
1.57338   	-3.30030e+00		         0.49167	-1.10000e+01	
1.57871   	-3.42589e+00		         0.49333	-1.00000e+01	
1.58401   	-3.54196e+00		         0.49500	-9.00000e+00	
1.58933   	-3.64843e+00		         0.49667	-7.00000e+00	
1.59465   	-3.68232e+00		         0.49833	-6.00000e+00	
1.60000   	-3.74872e+00		         0.50000	-6.00000e+00	
1.60528   	-3.82665e+00		         0.50167	-5.00000e+00	
1.61061   	-3.83633e+00		         0.50333	-4.00000e+00	
1.61616   	-3.80198e+00		         0.50500	-4.00000e+00	
1.62125   	-3.71318e+00		         0.50667	-3.00000e+00	
1.62656   	-3.58373e+00		         0.50833	-3.00000e+00	
1.63188   	-3.41408e+00		         0.51000	-3.00000e+00	
1.63719   	-3.22610e+00		         0.51167	-3.00000e+00	
1.64254   	-3.00256e+00		         0.51333	-3.00000e+00	
1.64783   	-2.78822e+00		         0.51500	-3.00000e+00	
1.65315   	-2.50200e+00		         0.51667	-3.00000e+00	
1.65847   	-2.28445e+00		         0.51833	-3.00000e+00	
1.66381   	-2.07356e+00		         0.52000	-3.00000e+00	
1.66910   	-1.84750e+00		         0.52167	-3.00000e+00	
1.67442   	-1.62726e+00		         0.52333	-4.00000e+00	
1.67974   	-1.47954e+00		         0.52500	-4.00000e+00	
1.68507   	-1.31198e+00		         0.52667	-4.00000e+00	
1.69038   	-1.14815e+00		         0.52833	-4.00000e+00	
1.69570   	-1.07153e+00		         0.53000	-4.00000e+00	
1.70101   	-9.54141e-01		         0.53167	-4.00000e+00	
1.70635   	-8.46437e-01		         0.53333	-4.00000e+00	
1.71165   	-6.93602e-01		         0.53500	-4.00000e+00	
1.71697   	-5.56798e-01		         0.53667	-4.00000e+00	
1.72229   	-3.99133e-01		         0.53833	-4.00000e+00	
1.72762   	-2.91352e-01		         0.54000	-4.00000e+00	
1.73292   	-1.84506e-01		         0.54167	-3.00000e+00	
1.73824   	-1.11693e-01		         0.54333	-2.00000e+00	
1.74356   	-6.54673e-02		         0.54500	-2.00000e+00	
1.74896   	-9.44487e-03		         0.54667	-1.00000e+00	
1.75419   	3.37715e-02		         0.54833	-1.00000e+00	
1.75951   	6.35969e-02		         0.55000	-1.00000e+00	
1.76483   	7.67351e-02		         0.55167	-1.00000e+00	
1.77017   	8.11498e-02		         0.55333	-1.00000e+00	
1.77547   	7.14183e-02		         0.55500	-1.00000e+00	
1.78078   	3.23978e-02		         0.55667	-1.00000e+00	
1.78610   	-1.67779e-02		         0.55833	-2.00000e+00	
1.79144   	-7.67639e-02		         0.56000	-2.00000e+00	
1.79674   	-1.18758e-01		         0.56167	-3.00000e+00	
1.80206   	-1.75605e-01		         0.56333	-3.00000e+00	
1.80738   	-2.19349e-01		         0.56500	-4.00000e+00	
1.81272   	-2.68643e-01		         0.56667	-4.00000e+00	
1.81801   	-3.05429e-01		         0.56833	-5.00000e+00	
1.82333   	-3.42544e-01		         0.57000	-5.00000e+00	
1.82865   	-3.67361e-01		         0.57167	-6.00000e+00	
1.83399   	-3.90583e-01		         0.57333	-6.00000e+00	
1.83929   	-4.06405e-01		         0.57500	-7.00000e+00	
1.84460   	-4.24734e-01		         0.57667	-8.00000e+00	
1.84992   	-4.38765e-01		         0.57833	-8.00000e+00	
1.85527   	-4.45786e-01		         0.58000	-9.00000e+00	
1.86056   	-4.41716e-01		         0.58167	-1.00000e+01	
1.86588   	-4.23139e-01		         0.58333	-1.10000e+01	
1.87120   	-4.05338e-01		         0.58500	-1.10000e+01	
1.87653   	-3.88208e-01		         0.58667	-1.20000e+01	
1.88183   	-3.80178e-01		         0.58833	-1.30000e+01	
1.88715   	-3.77342e-01		         0.59000	-1.40000e+01	
1.89247   	-3.67951e-01		         0.59167	-1.40000e+01	
1.89779   	-3.44322e-01		         0.59333	-1.50000e+01	
1.90310   	-3.37466e-01		         0.59500	-1.50000e+01	
1.90842   	-3.42015e-01		         0.59667	-1.60000e+01	
1.91374   	-3.42590e-01		         0.59833	-1.60000e+01	
1.91908   	-3.64754e-01		         0.60000	-1.60000e+01	
1.92438   	-3.87573e-01		         0.60167	-1.70000e+01	
1.92969   	-3.84997e-01		         0.60333	-1.70000e+01	
1.93501   	-3.64098e-01		         0.60500	-1.70000e+01	
1.94036   	-3.35724e-01		         0.60667	-1.70000e+01	
1.94565   	-2.95147e-01		         0.60833	-1.70000e+01	
1.95097   	-2.61277e-01		         0.61000	-1.60000e+01	
1.95629   	-2.36030e-01		         0.61167	-1.60000e+01	
1.96162   	-2.11443e-01		         0.61333	-1.60000e+01	
1.96692   	-1.92239e-01		         0.61500	-1.50000e+01	
1.97224   	-1.78310e-01		         0.61667	-1.50000e+01	
1.97756   	-1.64146e-01		         0.61833	-1.40000e+01	
1.98289   	-1.53522e-01		         0.62000	-1.40000e+01	
1.98820   	-1.41866e-01		         0.62167	-1.40000e+01	
1.99351   	-1.50480e-01		         0.62333	-1.30000e+01	
1.99883   	-2.02106e-01		         0.62500	-1.30000e+01	
2.00417   	-3.63602e-01		         0.62667	-1.30000e+01	
2.00947   	-6.21470e-01		         0.62833	-1.40000e+01	
2.01478   	-9.48152e-01		         0.63000	-1.40000e+01	
2.02011   	-1.37042e+00		         0.63167	-1.50000e+01	
2.02544   	-1.87750e+00		         0.63333	-1.50000e+01	
2.03074   	-2.38477e+00		         0.63500	-1.60000e+01	
2.03606   	-2.92048e+00		         0.63667	-1.60000e+01	
2.04138   	-3.53937e+00		         0.63833	-1.70000e+01	
2.04671   	-4.23120e+00		         0.64000	-1.80000e+01	
2.05201   	-4.94878e+00		         0.64167	-1.80000e+01	
2.05733   	-5.67632e+00		         0.64333	-1.90000e+01	
2.06265   	-6.37880e+00		         0.64500	-1.90000e+01	
2.06799   	-6.98854e+00		         0.64667	-1.90000e+01	
2.07329   	-7.51782e+00		         0.64833	-1.90000e+01	
2.07860   	-7.85266e+00		         0.65000	-1.90000e+01	
2.08392   	-7.97312e+00		         0.65167	-1.90000e+01	
2.08925   	-7.85900e+00		         0.65333	-1.90000e+01	
2.09456   	-7.49754e+00		         0.65500	-1.80000e+01	
2.09987   	-6.88417e+00		         0.65667	-1.80000e+01	
2.10520   	-6.12108e+00		         0.65833	-1.70000e+01	
2.11055   	-5.33366e+00		         0.66000	-1.70000e+01	
2.11583   	-4.58582e+00		         0.66167	-1.60000e+01	
2.12115   	-3.89644e+00		         0.66333	-1.60000e+01	
2.12647   	-3.03629e+00		         0.66500	-1.50000e+01	
2.13179   	-1.78737e+00		         0.66667	-1.50000e+01	
2.13710   	-7.84948e-02		         0.66833	-1.50000e+01	
2.14242   	1.78102e+00		         0.67000	-1.40000e+01	
2.14774   	3.35071e+00		         0.67167	-1.40000e+01	
2.15308   	4.03245e+00		         0.67333	-1.40000e+01	
2.15838   	3.37200e+00		         0.67500	-1.40000e+01	
2.16403   	2.15693e+00		         0.67667	-1.40000e+01	
2.16901   	7.74731e-01		         0.67833	-1.30000e+01	
2.17435   	-3.56328e-01		         0.68000	-1.30000e+01	
2.17965   	-6.42724e-01		         0.68167	-1.30000e+01	
2.18496   	2.18677e-01		         0.68333	-1.20000e+01	
2.19028   	1.25100e+00		         0.68500	-1.20000e+01	
2.19563   	2.48081e+00		         0.68667	-1.20000e+01	
2.20092   	3.68618e+00		         0.68833	-1.10000e+01	
2.20624   	4.63098e+00		         0.69000	-1.10000e+01	
2.21156   	5.23617e+00		         0.69167	-1.00000e+01	
2.21689   	5.65788e+00		         0.69333	-1.00000e+01	
2.22219   	5.79386e+00		         0.69500	-9.00000e+00	
2.22751   	5.85445e+00		         0.69667	-9.00000e+00	
2.23283   	5.90719e+00		         0.69833	-9.00000e+00	
2.23817   	5.89720e+00		         0.70000	-9.00000e+00	
2.24347   	5.85665e+00		         0.70167	-9.00000e+00	
2.24878   	5.79368e+00		         0.70333	-9.00000e+00	
2.25410   	5.69334e+00		         0.70500	-9.00000e+00	
2.25945   	5.52629e+00		         0.70667	-9.00000e+00	
2.26474   	5.36567e+00		         0.70833	-1.00000e+01	
2.27006   	5.21483e+00		         0.71000	-1.00000e+01	
2.27538   	5.03811e+00		         0.71167	-1.00000e+01	
2.28071   	4.88615e+00		         0.71333	-1.10000e+01	
2.28601   	4.81857e+00		         0.71500	-1.10000e+01	
2.29133   	4.78899e+00		         0.71667	-1.20000e+01	
2.29689   	4.75326e+00		         0.71833	-1.20000e+01	
2.30198   	4.79997e+00		         0.72000	-1.20000e+01	
2.30728   	4.84162e+00		         0.72167	-1.20000e+01	
2.31260   	4.82188e+00		         0.72333	-1.20000e+01	
2.31792   	4.75176e+00		         0.72500	-1.20000e+01	
2.32326   	4.69962e+00		         0.72667	-1.20000e+01	
2.32856   	4.59087e+00		         0.72833	-1.20000e+01	
2.33387   	4.44986e+00		         0.73000	-1.20000e+01	
2.33919   	4.34852e+00		         0.73167	-1.20000e+01	
2.34453   	4.21441e+00		         0.73333	-1.20000e+01	
2.34983   	4.04297e+00		         0.73500	-1.10000e+01	
2.35515   	3.86874e+00		         0.73667	-1.10000e+01	
2.36047   	3.73996e+00		         0.73833	-1.00000e+01	
2.36581   	3.57480e+00		         0.74000	-1.00000e+01	
2.37110   	3.45562e+00		         0.74167	-9.00000e+00	
2.37642   	3.31226e+00		         0.74333	-9.00000e+00	
2.38174   	3.16386e+00		         0.74500	-9.00000e+00	
2.38707   	3.03211e+00		         0.74667	-8.00000e+00	
2.39237   	2.91541e+00		         0.74833	-8.00000e+00	
2.39769   	2.75646e+00		         0.75000	-7.00000e+00	
2.40301   	2.65359e+00		         0.75167	-7.00000e+00	
2.40835   	2.56907e+00		         0.75333	-7.00000e+00	
2.41365   	2.46669e+00		         0.75500	-7.00000e+00	
2.41897   	2.32636e+00		         0.75667	-6.00000e+00	
2.42428   	2.24764e+00		         0.75833	-6.00000e+00	
2.42962   	2.14126e+00		         0.76000	-6.00000e+00	
2.43492   	2.00014e+00		         0.76167	-7.00000e+00	
2.44024   	1.81802e+00		         0.76333	-7.00000e+00	
2.44555   	1.65689e+00		         0.76500	-7.00000e+00	
2.45090   	1.44999e+00		         0.76667	-7.00000e+00	
2.45619   	1.22764e+00		         0.76833	-7.00000e+00	
2.46151   	1.01970e+00		         0.77000	-7.00000e+00	
2.46683   	8.18782e-01		         0.77167	-7.00000e+00	
2.47217   	6.03350e-01		         0.77333	-7.00000e+00	
2.47747   	4.02335e-01		         0.77500	-7.00000e+00	
2.48278   	9.49728e-02		         0.77667	-7.00000e+00	
2.48810   	-1.80291e-01		         0.77833	-7.00000e+00	
2.49344   	-3.89389e-01		         0.78000	-6.00000e+00	
2.49874   	-3.68962e-01		         0.78167	-6.00000e+00	
2.50406   	-3.64376e-01		         0.78333	-6.00000e+00	
2.50937   	-1.59338e-01		         0.78500	-6.00000e+00	
2.51471   	-6.01201e-03		         0.78667	-6.00000e+00	
2.52001   	1.72023e-01		         0.78833	-5.00000e+00	
2.52533   	1.92261e-01		         0.79000	-5.00000e+00	
2.53065   	3.07775e-01		         0.79167	-5.00000e+00	
2.53598   	3.47842e-01		         0.79333	-5.00000e+00	
2.54128   	5.03467e-01		         0.79500	-4.00000e+00	
2.54660   	5.98050e-01		         0.79667	-4.00000e+00	
2.55192   	6.35944e-01		         0.79833	-4.00000e+00	
2.55727   	5.78551e-01		         0.80000	-3.00000e+00	
2.56256   	5.25976e-01		         0.80167	-3.00000e+00	
2.56788   	3.67147e-01		         0.80333	-3.00000e+00	
2.57319   	1.38019e-01		         0.80500	-3.00000e+00	
2.57852   	-3.06910e-01		         0.80667	-2.00000e+00	
2.58383   	-8.40926e-01		         0.80833	-2.00000e+00	
2.58915   	-1.52779e+00		         0.81000	-2.00000e+00	
2.59446   	-2.28744e+00		         0.81167	-2.00000e+00	
2.59979   	-2.98053e+00		         0.81333	-2.00000e+00	
2.60510   	-3.52194e+00		         0.81500	-3.00000e+00	
2.61042   	-3.83425e+00		         0.81667	-3.00000e+00	
2.61574   	-4.05352e+00		         0.81833	-3.00000e+00	
2.62107   	-4.21703e+00		         0.82000	-4.00000e+00	
2.62637   	-4.36427e+00		         0.82167	-4.00000e+00	
2.63169   	-4.37474e+00		         0.82333	-4.00000e+00	
2.63701   	-4.52842e+00		         0.82500	-4.00000e+00	
2.64236   	-4.55406e+00		         0.82667	-5.00000e+00	
2.64765   	-4.46994e+00		         0.82833	-5.00000e+00	
2.65297   	-4.37819e+00		         0.83000	-5.00000e+00	
2.65828   	-4.28357e+00		         0.83167	-5.00000e+00	
2.66361   	-4.06869e+00		         0.83333	-5.00000e+00	
2.66892   	-3.87200e+00		         0.83500	-5.00000e+00	
2.67424   	-3.65460e+00		         0.83667	-5.00000e+00	
2.67956   	-3.41136e+00		         0.83833	-5.00000e+00	
2.68490   	-3.16567e+00		         0.84000	-5.00000e+00	
2.69019   	-2.90816e+00		         0.84167	-5.00000e+00	
2.69551   	-2.71544e+00		         0.84333	-4.00000e+00	
2.70083   	-2.48346e+00		         0.84500	-4.00000e+00	
2.70616   	-2.26041e+00		         0.84667	-3.00000e+00	
2.71147   	-1.99435e+00		         0.84833	-3.00000e+00	
2.71678   	-1.78157e+00		         0.85000	-2.00000e+00	
2.72210   	-1.54248e+00		         0.85167	-2.00000e+00	
2.72743   	-1.32437e+00		         0.85333	-2.00000e+00	
2.73274   	-1.11451e+00		         0.85500	-1.00000e+00	
2.73806   	-9.65417e-01		         0.85667	-1.00000e+00	
2.74338   	-8.46498e-01		         0.85833	-1.00000e+00	
2.74872   	-6.99068e-01		         0.86000	-1.00000e+00	
2.75401   	-6.34046e-01		         0.86167	-1.00000e+00	
2.75933   	-5.63975e-01		         0.86333	-1.00000e+00	
2.76465   	-4.84055e-01		         0.86500	-2.00000e+00	
2.76999   	-3.87941e-01		         0.86667	-2.00000e+00	
2.77528   	-2.93040e-01		         0.86833	-2.00000e+00	
2.78060   	-1.79481e-01		         0.87000	-3.00000e+00	
2.78592   	-1.79023e-01		         0.87167	-3.00000e+00	
2.79126   	-1.45673e-01		         0.87333	-4.00000e+00	
2.79655   	-1.63499e-01		         0.87500	-4.00000e+00	
2.80188   	-1.93282e-01		         0.87667	-4.00000e+00	
2.80719   	-2.57789e-01		         0.87833	-4.00000e+00	
2.81252   	-2.08437e-01		         0.88000	-4.00000e+00	
2.81783   	-2.29866e-01		         0.88167	-5.00000e+00	
2.82315   	-2.37752e-01		         0.88333	-5.00000e+00	
2.82847   	-2.54660e-01		         0.88500	-5.00000e+00	
2.83381   	-2.53427e-01		         0.88667	-5.00000e+00	
2.83910   	-2.72472e-01		         0.88833	-5.00000e+00	
2.84465   	-2.93746e-01		         0.89000	-6.00000e+00	
2.84974   	-2.67779e-01		         0.89167	-6.00000e+00	
2.85507   	-2.59120e-01		         0.89333	-6.00000e+00	
2.86037   	-2.59274e-01		         0.89500	-6.00000e+00	
2.86569   	-2.64626e-01		         0.89667	-6.00000e+00	
2.87101   	-2.59972e-01		         0.89833	-7.00000e+00	
2.87634   	-2.87233e-01		         0.90000	-7.00000e+00	
2.88164   	-2.87972e-01		         0.90167	-7.00000e+00	
2.88696   	-2.83882e-01		         0.90333	-6.00000e+00	
2.89228   	-2.67067e-01		         0.90500	-6.00000e+00	
2.89762   	-2.54289e-01		         0.90667	-6.00000e+00	
2.90292   	-2.38499e-01		         0.90833	-5.00000e+00	
2.90824   	-2.34400e-01		         0.91000	-4.00000e+00	
2.91355   	-2.19488e-01		         0.91167	-4.00000e+00	
2.91889   	-2.20224e-01		         0.91333	-3.00000e+00	
2.92419   	-2.15467e-01		         0.91500	-2.00000e+00	
2.92951   	-2.25733e-01		         0.91667	0.00000e+00	
2.93483   	-2.33548e-01		         0.91833	1.00000e+00	
2.94017   	-2.30663e-01		         0.92000	3.00000e+00	
2.94547   	-2.19975e-01		         0.92167	5.00000e+00	
2.95078   	-2.42516e-01		         0.92333	7.00000e+00	
2.95610   	-2.31141e-01		         0.92500	9.00000e+00	
2.96144   	-2.24417e-01		         0.92667	1.20000e+01	
2.96674   	-2.15000e-01		         0.92833	1.40000e+01	
2.97205   	-1.88630e-01		         0.93000	1.70000e+01	
2.97756   	-1.45644e-01		         0.93167	2.00000e+01	
2.98272   	-1.31996e-01		         0.93333	2.20000e+01	
2.98801   	-1.12423e-01		         0.93500	2.50000e+01	
2.99333   	-1.18532e-01		         0.93667	2.70000e+01	
2.99864   	-1.34869e-01		         0.93833	2.90000e+01	
3.00399   	-1.38036e-01		         0.94000	3.20000e+01	
3.00928   	-1.34132e-01		         0.94167	3.40000e+01	
3.01460   	-1.30787e-01		         0.94333	3.60000e+01	
3.01992   	-1.10074e-01		         0.94500	3.70000e+01	
3.02525   	-9.72965e-02		         0.94667	3.80000e+01	
3.03055   	-1.13394e-01		         0.94833	3.90000e+01	
3.03587   	-1.52541e-01		         0.95000	4.00000e+01	
3.04119   	-2.29264e-01		         0.95167	3.90000e+01	
3.04653   	-3.57939e-01		         0.95333	3.80000e+01	
3.05183   	-5.33829e-01		         0.95500	3.60000e+01	
3.05715   	-8.61767e-01		         0.95667	3.30000e+01	
3.06246   	-1.23560e+00		         0.95833	3.00000e+01	
3.06781   	-1.66236e+00		         0.96000	2.60000e+01	
3.07310   	-2.20066e+00		         0.96167	2.10000e+01	
3.07842   	-2.85301e+00		         0.96333	1.50000e+01	
3.08374   	-3.44634e+00		         0.96500	9.00000e+00	
3.08908   	-3.97044e+00		         0.96667	3.00000e+00	
3.09437   	-4.64726e+00		         0.96833	-3.00000e+00	
3.09969   	-5.30838e+00		         0.97000	-9.00000e+00	
3.10501   	-5.87051e+00		         0.97167	-1.50000e+01	
3.11037   	-6.28025e+00		         0.97333	-2.10000e+01	
3.11564   	-6.77054e+00		         0.97500	-2.50000e+01	
3.12097   	-7.00035e+00		         0.97667	-2.90000e+01	
3.12628   	-6.99851e+00		         0.97833	-3.20000e+01	
3.13163   	-6.67667e+00		         0.98000	-3.50000e+01	
3.13692   	-6.13965e+00		         0.98167	-3.60000e+01	
3.14224   	-5.44213e+00		         0.98333	-3.70000e+01	
3.14755   	-4.58206e+00		         0.98500	-3.70000e+01	
3.15290   	-3.68131e+00		         0.98667	-3.70000e+01	
3.15819   	-2.83876e+00		         0.98833	-3.60000e+01	
3.16351   	-1.99613e+00		         0.99000	-3.40000e+01	
3.16883   	-9.30111e-01		         0.99167	-3.30000e+01	
3.17417   	-4.44509e-01		         0.99333	-3.10000e+01	
3.17946   	1.33216e-01		         0.99500	-3.00000e+01	
			         0.99667	-2.80000e+01	
			         0.99833	-2.70000e+01	
			         1.00000	-2.60000e+01	
			         1.00167	-2.50000e+01	
			         1.00333	-2.50000e+01	
			         1.00500	-2.40000e+01	
			         1.00667	-2.40000e+01	
			         1.00833	-2.40000e+01	
			         1.01000	-2.50000e+01	
			         1.01167	-2.50000e+01	
			         1.01333	-2.60000e+01	
			         1.01500	-2.60000e+01	
			         1.01667	-2.70000e+01	
			         1.01833	-2.70000e+01	
			         1.02000	-2.70000e+01	
			         1.02167	-2.70000e+01	
			         1.02333	-2.70000e+01	
			         1.02500	-2.70000e+01	
			         1.02667	-2.70000e+01	
			         1.02833	-2.60000e+01	
			         1.03000	-2.60000e+01	
			         1.03167	-2.50000e+01	
			         1.03333	-2.40000e+01	
			         1.03500	-2.30000e+01	
			         1.03667	-2.20000e+01	
			         1.03833	-2.20000e+01	
			         1.04000	-2.10000e+01	
			         1.04167	-2.10000e+01	
			         1.04333	-2.20000e+01	
			         1.04500	-2.20000e+01	
			         1.04667	-2.20000e+01	
			         1.04833	-2.10000e+01	
			         1.05000	-1.90000e+01	
			         1.05167	-1.60000e+01	
			         1.05333	-9.00000e+00	
			         1.05500	0.00000e+00	
			         1.05667	1.40000e+01	
			         1.05833	3.30000e+01	
			         1.06000	5.60000e+01	
			         1.06167	8.30000e+01	
			         1.06333	1.16000e+02	
			         1.06500	1.52000e+02	
			         1.06667	1.91000e+02	
			         1.06833	2.32000e+02	
			         1.07000	2.74000e+02	
			         1.07167	3.13000e+02	
			         1.07333	3.46000e+02	
			         1.07500	3.71000e+02	
			         1.07667	3.86000e+02	
			         1.07833	3.87000e+02	
			         1.08000	3.74000e+02	
			         1.08167	3.48000e+02	
			         1.08333	3.09000e+02	
			         1.08500	2.59000e+02	
			         1.08667	2.01000e+02	
			         1.08833	1.36000e+02	
			         1.09000	6.70000e+01	
			         1.09167	-2.00000e+00	
			         1.09333	-6.80000e+01	
			         1.09500	-1.28000e+02	
			         1.09667	-1.79000e+02	
			         1.09833	-2.19000e+02	
			         1.10000	-2.47000e+02	
			         1.10167	-2.63000e+02	
			         1.10333	-2.68000e+02	
			         1.10500	-2.64000e+02	
			         1.10667	-2.53000e+02	
			         1.10833	-2.35000e+02	
			         1.11000	-2.14000e+02	
			         1.11167	-1.91000e+02	
			         1.11333	-1.68000e+02	
			         1.11500	-1.45000e+02	
			         1.11667	-1.23000e+02	
			         1.11833	-1.04000e+02	
			         1.12000	-8.70000e+01	
			         1.12167	-7.30000e+01	
			         1.12333	-6.10000e+01	
			         1.12500	-5.20000e+01	
			         1.12667	-4.50000e+01	
			         1.12833	-4.00000e+01	
			         1.13000	-3.60000e+01	
			         1.13167	-3.30000e+01	
			         1.13333	-3.10000e+01	
			         1.13500	-3.00000e+01	
			         1.13667	-2.90000e+01	
			         1.13833	-2.80000e+01	
			         1.14000	-2.80000e+01	
			         1.14167	-2.70000e+01	
			         1.14333	-2.70000e+01	
			         1.14500	-2.60000e+01	
			         1.14667	-2.50000e+01	
			         1.14833	-2.50000e+01	
			         1.15000	-2.40000e+01	
			         1.15167	-2.30000e+01	
			         1.15333	-2.20000e+01	
			         1.15500	-2.10000e+01	
			         1.15667	-2.00000e+01	
			         1.15833	-1.80000e+01	
			         1.16000	-1.70000e+01	
			         1.16167	-1.60000e+01	
			         1.16333	-1.50000e+01	
			         1.16500	-1.50000e+01	
			         1.16667	-1.40000e+01	
			         1.16833	-1.30000e+01	
			         1.17000	-1.20000e+01	
			         1.17167	-1.10000e+01	
			         1.17333	-1.10000e+01	
			         1.17500	-1.00000e+01	
			         1.17667	-1.00000e+01	
			         1.17833	-9.00000e+00	
			         1.18000	-9.00000e+00	
			         1.18167	-8.00000e+00	
			         1.18333	-8.00000e+00	
			         1.18500	-7.00000e+00	
			         1.18667	-7.00000e+00	
			         1.18833	-7.00000e+00	
			         1.19000	-6.00000e+00	
			         1.19167	-6.00000e+00	
			         1.19333	-5.00000e+00	
			         1.19500	-5.00000e+00	
			         1.19667	-4.00000e+00	
			         1.19833	-3.00000e+00	
			         1.20000	-3.00000e+00	
			         1.20167	-2.00000e+00	
			         1.20333	-1.00000e+00	
			         1.20500	0.00000e+00	
			         1.20667	0.00000e+00	
			         1.20833	1.00000e+00	
			         1.21000	2.00000e+00	
			         1.21167	2.00000e+00	
			         1.21333	3.00000e+00	
			         1.21500	4.00000e+00	
			         1.21667	5.00000e+00	
			         1.21833	5.00000e+00	
			         1.22000	6.00000e+00	
			         1.22167	7.00000e+00	
			         1.22333	8.00000e+00	
			         1.22500	9.00000e+00	
			         1.22667	9.00000e+00	
			         1.22833	1.00000e+01	
			         1.23000	1.10000e+01	
			         1.23167	1.20000e+01	
			         1.23333	1.30000e+01	
			         1.23500	1.40000e+01	
			         1.23667	1.50000e+01	
			         1.23833	1.50000e+01	
			         1.24000	1.60000e+01	
			         1.24167	1.70000e+01	
			         1.24333	1.80000e+01	
			         1.24500	1.90000e+01	
			         1.24667	2.00000e+01	
			         1.24833	2.10000e+01	
			         1.25000	2.10000e+01	
			         1.25167	2.20000e+01	
			         1.25333	2.30000e+01	
			         1.25500	2.30000e+01	
			         1.25667	2.30000e+01	
			         1.25833	2.40000e+01	
			         1.26000	2.40000e+01	
			         1.26167	2.40000e+01	
			         1.26333	2.40000e+01	
			         1.26500	2.50000e+01	
			         1.26667	2.50000e+01	
			         1.26833	2.60000e+01	
			         1.27000	2.60000e+01	
			         1.27167	2.70000e+01	
			         1.27333	2.70000e+01	
			         1.27500	2.80000e+01	
			         1.27667	2.80000e+01	
			         1.27833	2.90000e+01	
			         1.28000	3.00000e+01	
			         1.28167	3.00000e+01	
			         1.28333	3.10000e+01	
			         1.28500	3.20000e+01	
			         1.28667	3.20000e+01	
			         1.28833	3.30000e+01	
			         1.29000	3.40000e+01	
			         1.29167	3.50000e+01	
			         1.29333	3.60000e+01	
			         1.29500	3.70000e+01	
			         1.29667	3.80000e+01	
			         1.29833	4.00000e+01	
			         1.30000	4.10000e+01	
			         1.30167	4.30000e+01	
			         1.30333	4.40000e+01	
			         1.30500	4.60000e+01	
			         1.30667	4.80000e+01	
			         1.30833	4.90000e+01	
			         1.31000	5.10000e+01	
			         1.31167	5.30000e+01	
			         1.31333	5.50000e+01	
			         1.31500	5.70000e+01	
			         1.31667	5.80000e+01	
			         1.31833	6.00000e+01	
			         1.32000	6.20000e+01	
			         1.32167	6.40000e+01	
			         1.32333	6.60000e+01	
			         1.32500	6.70000e+01	
			         1.32667	6.90000e+01	
			         1.32833	7.10000e+01	
			         1.33000	7.20000e+01	
			         1.33167	7.40000e+01	
			         1.33333	7.50000e+01	
			         1.33500	7.70000e+01	
			         1.33667	7.80000e+01	
			         1.33833	8.00000e+01	
			         1.34000	8.10000e+01	
			         1.34167	8.30000e+01	
			         1.34333	8.50000e+01	
			         1.34500	8.70000e+01	
			         1.34667	8.80000e+01	
			         1.34833	9.00000e+01	
			         1.35000	9.20000e+01	
			         1.35167	9.30000e+01	
			         1.35333	9.50000e+01	
			         1.35500	9.60000e+01	
			         1.35667	9.70000e+01	
			         1.35833	9.80000e+01	
			         1.36000	9.90000e+01	
			         1.36167	9.90000e+01	
			         1.36333	1.00000e+02	
			         1.36500	9.90000e+01	
			         1.36667	9.90000e+01	
			         1.36833	9.80000e+01	
			         1.37000	9.70000e+01	
			         1.37167	9.50000e+01	
			         1.37333	9.30000e+01	
			         1.37500	9.10000e+01	
			         1.37667	8.80000e+01	
			         1.37833	8.50000e+01	
			         1.38000	8.20000e+01	
			         1.38167	7.80000e+01	
			         1.38333	7.30000e+01	
			         1.38500	6.90000e+01	
			         1.38667	6.40000e+01	
			         1.38833	5.80000e+01	
			         1.39000	5.20000e+01	
			         1.39167	4.60000e+01	
			         1.39333	3.90000e+01	
			         1.39500	3.20000e+01	
			         1.39667	2.50000e+01	
			         1.39833	1.80000e+01	
			         1.40000	1.00000e+01	
			         1.40167	3.00000e+00	
			         1.40333	-4.00000e+00	
			         1.40500	-1.10000e+01	
			         1.40667	-1.80000e+01	
			         1.40833	-2.50000e+01	
			         1.41000	-3.10000e+01	
			         1.41167	-3.70000e+01	
			         1.41333	-4.30000e+01	
			         1.41500	-4.80000e+01	
			         1.41667	-5.30000e+01	
			         1.41833	-5.70000e+01	
			         1.42000	-6.10000e+01	
			         1.42167	-6.50000e+01	
			         1.42333	-6.90000e+01	
			         1.42500	-7.20000e+01	
			         1.42667	-7.50000e+01	
			         1.42833	-7.80000e+01	
			         1.43000	-8.10000e+01	
			         1.43167	-8.30000e+01	
			         1.43333	-8.50000e+01	
			         1.43500	-8.70000e+01	
			         1.43667	-8.80000e+01	
			         1.43833	-9.00000e+01	
			         1.44000	-9.10000e+01	
			         1.44167	-9.20000e+01	
			         1.44333	-9.20000e+01	
			         1.44500	-9.20000e+01	
			         1.44667	-9.20000e+01	
			         1.44833	-9.20000e+01	
			         1.45000	-9.10000e+01	
			         1.45167	-9.10000e+01	
			         1.45333	-9.00000e+01	
			         1.45500	-8.90000e+01	
			         1.45667	-8.80000e+01	
			         1.45833	-8.70000e+01	
			         1.46000	-8.60000e+01	
			         1.46167	-8.50000e+01	
			         1.46333	-8.30000e+01	
			         1.46500	-8.20000e+01	
			         1.46667	-8.10000e+01	
			         1.46833	-8.00000e+01	
			         1.47000	-7.80000e+01	
			         1.47167	-7.70000e+01	
			         1.47333	-7.60000e+01	
			         1.47500	-7.50000e+01	
			         1.47667	-7.30000e+01	
			         1.47833	-7.20000e+01	
			         1.48000	-7.10000e+01	
			         1.48167	-6.90000e+01	
			         1.48333	-6.80000e+01	
			         1.48500	-6.60000e+01	
			         1.48667	-6.50000e+01	
			         1.48833	-6.30000e+01	
			         1.49000	-6.20000e+01	
			         1.49167	-6.00000e+01	
			         1.49333	-5.80000e+01	
			         1.49500	-5.70000e+01	
			         1.49667	-5.50000e+01	
			         1.49833	-5.40000e+01	
			         1.50000	-5.30000e+01	
			         1.50167	-5.20000e+01	
			         1.50333	-5.00000e+01	
			         1.50500	-4.90000e+01	
			         1.50667	-4.80000e+01	
			         1.50833	-4.70000e+01	
			         1.51000	-4.60000e+01	
			         1.51167	-4.40000e+01	
			         1.51333	-4.30000e+01	
			         1.51500	-4.20000e+01	
			         1.51667	-4.00000e+01	
			         1.51833	-3.80000e+01	
			         1.52000	-3.70000e+01	
			         1.52167	-3.50000e+01	
			         1.52333	-3.40000e+01	
			         1.52500	-3.20000e+01	
			         1.52667	-3.10000e+01	
			         1.52833	-3.00000e+01	
			         1.53000	-2.90000e+01	
			         1.53167	-2.80000e+01	
			         1.53333	-2.70000e+01	
			         1.53500	-2.60000e+01	
			         1.53667	-2.50000e+01	
			         1.53833	-2.40000e+01	
			         1.54000	-2.30000e+01	
			         1.54167	-2.20000e+01	
			         1.54333	-2.10000e+01	
			         1.54500	-2.10000e+01	
			         1.54667	-2.00000e+01	
			         1.54833	-1.90000e+01	
			         1.55000	-1.80000e+01	
			         1.55167	-1.70000e+01	
			         1.55333	-1.60000e+01	
			         1.55500	-1.50000e+01	
			         1.55667	-1.50000e+01	
			         1.55833	-1.40000e+01	
			         1.56000	-1.40000e+01	
			         1.56167	-1.30000e+01	
			         1.56333	-1.30000e+01	
			         1.56500	-1.20000e+01	
			         1.56667	-1.20000e+01	
			         1.56833	-1.20000e+01	
			         1.57000	-1.10000e+01	
			         1.57167	-1.10000e+01	
			         1.57333	-1.00000e+01	
			         1.57500	-1.00000e+01	
			         1.57667	-9.00000e+00	
			         1.57833	-9.00000e+00	
			         1.58000	-8.00000e+00	
			         1.58167	-8.00000e+00	
			         1.58333	-7.00000e+00	
			         1.58500	-7.00000e+00	
			         1.58667	-7.00000e+00	
			         1.58833	-7.00000e+00	
			         1.59000	-6.00000e+00	
			         1.59167	-6.00000e+00	
			         1.59333	-6.00000e+00	
			         1.59500	-6.00000e+00	
			         1.59667	-5.00000e+00	
			         1.59833	-5.00000e+00	
			         1.60000	-5.00000e+00	
			         1.60167	-4.00000e+00	
			         1.60333	-4.00000e+00	
			         1.60500	-4.00000e+00	
			         1.60667	-3.00000e+00	
			         1.60833	-3.00000e+00	
			         1.61000	-4.00000e+00	
			         1.61167	-4.00000e+00	
			         1.61333	-4.00000e+00	
			         1.61500	-5.00000e+00	
			         1.61667	-6.00000e+00	
			         1.61833	-7.00000e+00	
			         1.62000	-8.00000e+00	
			         1.62167	-9.00000e+00	
			         1.62333	-1.00000e+01	
			         1.62500	-1.10000e+01	
			         1.62667	-1.10000e+01	
			         1.62833	-1.20000e+01	
			         1.63000	-1.20000e+01	
			         1.63167	-1.20000e+01	
			         1.63333	-1.20000e+01	
			         1.63500	-1.20000e+01	
			         1.63667	-1.20000e+01	
			         1.63833	-1.10000e+01	
			         1.64000	-1.10000e+01	
			         1.64167	-1.10000e+01	
			         1.64333	-1.10000e+01	
			         1.64500	-1.00000e+01	
			         1.64667	-1.00000e+01	
			         1.64833	-1.00000e+01	
			         1.65000	-1.00000e+01	
			         1.65167	-1.00000e+01	
			         1.65333	-1.00000e+01	
			         1.65500	-1.00000e+01	
			         1.65667	-1.00000e+01	
			         1.65833	-9.00000e+00	
			         1.66000	-9.00000e+00	
			         1.66167	-9.00000e+00	
			         1.66333	-9.00000e+00	
			         1.66500	-9.00000e+00	
			         1.66667	-8.00000e+00	
			         1.66833	-8.00000e+00	
			         1.67000	-8.00000e+00	
			         1.67167	-8.00000e+00	
			         1.67333	-8.00000e+00	
			         1.67500	-9.00000e+00	
			         1.67667	-9.00000e+00	
			         1.67833	-9.00000e+00	
			         1.68000	-9.00000e+00	
			         1.68167	-9.00000e+00	
			         1.68333	-1.00000e+01	
			         1.68500	-1.00000e+01	
			         1.68667	-1.00000e+01	
			         1.68833	-1.10000e+01	
			         1.69000	-1.10000e+01	
			         1.69167	-1.10000e+01	
			         1.69333	-1.10000e+01	
			         1.69500	-1.00000e+01	
			         1.69667	-1.00000e+01	
			         1.69833	-1.00000e+01	
			         1.70000	-9.00000e+00	
			         1.70167	-8.00000e+00	
			         1.70333	-8.00000e+00	
			         1.70500	-7.00000e+00	
			         1.70667	-7.00000e+00	
			         1.70833	-7.00000e+00	
			         1.71000	-7.00000e+00	
			         1.71167	-7.00000e+00	
			         1.71333	-7.00000e+00	
			         1.71500	-7.00000e+00	
			         1.71667	-7.00000e+00	
			         1.71833	-8.00000e+00	
			         1.72000	-8.00000e+00	
			         1.72167	-9.00000e+00	
			         1.72333	-9.00000e+00	
			         1.72500	-9.00000e+00	
			         1.72667	-9.00000e+00	
			         1.72833	-9.00000e+00	
			         1.73000	-9.00000e+00	
			         1.73167	-9.00000e+00	
			         1.73333	-9.00000e+00	
			         1.73500	-8.00000e+00	
			         1.73667	-8.00000e+00	
			         1.73833	-7.00000e+00	
			         1.74000	-7.00000e+00	
			         1.74167	-6.00000e+00	
			         1.74333	-5.00000e+00	
			         1.74500	-5.00000e+00	
			         1.74667	-5.00000e+00	
			         1.74833	-4.00000e+00	
			         1.75000	-4.00000e+00	
			         1.75167	-4.00000e+00	
			         1.75333	-3.00000e+00	
			         1.75500	-3.00000e+00	
			         1.75667	-3.00000e+00	
			         1.75833	-2.00000e+00	
			         1.76000	-2.00000e+00	
			         1.76167	-2.00000e+00	
			         1.76333	-2.00000e+00	
			         1.76500	-2.00000e+00	
			         1.76667	-2.00000e+00	
			         1.76833	-2.00000e+00	
			         1.77000	-2.00000e+00	
			         1.77167	-3.00000e+00	
			         1.77333	-3.00000e+00	
			         1.77500	-3.00000e+00	
			         1.77667	-3.00000e+00	
			         1.77833	-3.00000e+00	
			         1.78000	-3.00000e+00	
			         1.78167	-3.00000e+00	
			         1.78333	-3.00000e+00	
			         1.78500	-4.00000e+00	
			         1.78667	-4.00000e+00	
			         1.78833	-4.00000e+00	
			         1.79000	-4.00000e+00	
			         1.79167	-4.00000e+00	
			         1.79333	-4.00000e+00	
			         1.79500	-3.00000e+00	
			         1.79667	-3.00000e+00	
			         1.79833	-3.00000e+00	
			         1.80000	-3.00000e+00	
			         1.80167	-3.00000e+00	
			         1.80333	-3.00000e+00	
			         1.80500	-3.00000e+00	
			         1.80667	-3.00000e+00	
			         1.80833	-4.00000e+00	
			         1.81000	-4.00000e+00	
			         1.81167	-4.00000e+00	
			         1.81333	-4.00000e+00	
			         1.81500	-5.00000e+00	
			         1.81667	-5.00000e+00	
			         1.81833	-6.00000e+00	
			         1.82000	-6.00000e+00	
			         1.82167	-7.00000e+00	
			         1.82333	-7.00000e+00	
			         1.82500	-7.00000e+00	
			         1.82667	-7.00000e+00	
			         1.82833	-8.00000e+00	
			         1.83000	-8.00000e+00	
			         1.83167	-8.00000e+00	
			         1.83333	-8.00000e+00	
			         1.83500	-9.00000e+00	
			         1.83667	-9.00000e+00	
			         1.83833	-9.00000e+00	
			         1.84000	-9.00000e+00	
			         1.84167	-9.00000e+00	
			         1.84333	-9.00000e+00	
			         1.84500	-9.00000e+00	
			         1.84667	-9.00000e+00	
			         1.84833	-9.00000e+00	
			         1.85000	-9.00000e+00	
			         1.85167	-9.00000e+00	
			         1.85333	-9.00000e+00	
			         1.85500	-8.00000e+00	
			         1.85667	-8.00000e+00	
			         1.85833	-8.00000e+00	
			         1.86000	-7.00000e+00	
			         1.86167	-7.00000e+00	
			         1.86333	-6.00000e+00	
			         1.86500	-6.00000e+00	
			         1.86667	-5.00000e+00	
			         1.86833	-5.00000e+00	
			         1.87000	-4.00000e+00	
			         1.87167	-4.00000e+00	
			         1.87333	-4.00000e+00	
			         1.87500	-4.00000e+00	
			         1.87667	-4.00000e+00	
			         1.87833	-4.00000e+00	
			         1.88000	-4.00000e+00	
			         1.88167	-4.00000e+00	
			         1.88333	-4.00000e+00	
			         1.88500	-4.00000e+00	
			         1.88667	-4.00000e+00	
			         1.88833	-4.00000e+00	
			         1.89000	-3.00000e+00	
			         1.89167	-3.00000e+00	
			         1.89333	-3.00000e+00	
			         1.89500	-2.00000e+00	
			         1.89667	-2.00000e+00	
			         1.89833	-1.00000e+00	
			         1.90000	-1.00000e+00	
			         1.90167	0.00000e+00	
			         1.90333	0.00000e+00	
			         1.90500	0.00000e+00	
			         1.90667	1.00000e+00	
			         1.90833	1.00000e+00	
			         1.91000	1.00000e+00	
			         1.91167	2.00000e+00	
			         1.91333	2.00000e+00	
			         1.91500	2.00000e+00	
			         1.91667	2.00000e+00	
			         1.91833	2.00000e+00	
			         1.92000	2.00000e+00	
			         1.92167	1.00000e+00	
			         1.92333	1.00000e+00	
			         1.92500	1.00000e+00	
			         1.92667	0.00000e+00	
			         1.92833	0.00000e+00	
			         1.93000	-1.00000e+00	
			         1.93167	-1.00000e+00	
			         1.93333	-2.00000e+00	
			         1.93500	-2.00000e+00	
			         1.93667	-2.00000e+00	
			         1.93833	-2.00000e+00	
			         1.94000	-2.00000e+00	
			         1.94167	-2.00000e+00	
			         1.94333	-2.00000e+00	
			         1.94500	-1.00000e+00	
			         1.94667	-1.00000e+00	
			         1.94833	0.00000e+00	
			         1.95000	0.00000e+00	
			         1.95167	1.00000e+00	
			         1.95333	2.00000e+00	
			         1.95500	3.00000e+00	
			         1.95667	4.00000e+00	
			         1.95833	5.00000e+00	
			         1.96000	6.00000e+00	
			         1.96167	8.00000e+00	
			         1.96333	9.00000e+00	
			         1.96500	1.10000e+01	
			         1.96667	1.30000e+01	
			         1.96833	1.50000e+01	
			         1.97000	1.80000e+01	
			         1.97167	2.00000e+01	
			         1.97333	2.30000e+01	
			         1.97500	2.50000e+01	
			         1.97667	2.70000e+01	
			         1.97833	3.00000e+01	
			         1.98000	3.20000e+01	
			         1.98167	3.40000e+01	
			         1.98333	3.60000e+01	
			         1.98500	3.80000e+01	
			         1.98667	4.00000e+01	
			         1.98833	4.20000e+01	
			         1.99000	4.30000e+01	
			         1.99167	4.40000e+01	
			         1.99333	4.50000e+01	
			         1.99500	4.50000e+01	
			         1.99667	4.40000e+01	
			         1.99833	4.30000e+01	
			         2.00000	4.10000e+01	
			         2.00167	3.80000e+01	
			         2.00333	3.40000e+01	
			         2.00500	3.00000e+01	
			         2.00667	2.50000e+01	
			         2.00833	1.90000e+01	
			         2.01000	1.30000e+01	
			         2.01167	7.00000e+00	
			         2.01333	1.00000e+00	
			         2.01500	-6.00000e+00	
			         2.01667	-1.10000e+01	
			         2.01833	-1.70000e+01	
			         2.02000	-2.10000e+01	
			         2.02167	-2.50000e+01	
			         2.02333	-2.80000e+01	
			         2.02500	-3.00000e+01	
			         2.02667	-3.20000e+01	
			         2.02833	-3.20000e+01	
			         2.03000	-3.20000e+01	
			         2.03167	-3.10000e+01	
			         2.03333	-3.00000e+01	
			         2.03500	-2.80000e+01	
			         2.03667	-2.60000e+01	
			         2.03833	-2.40000e+01	
			         2.04000	-2.20000e+01	
			         2.04167	-2.10000e+01	
			         2.04333	-1.90000e+01	
			         2.04500	-1.80000e+01	
			         2.04667	-1.70000e+01	
			         2.04833	-1.60000e+01	
			         2.05000	-1.60000e+01	
			         2.05167	-1.60000e+01	
			         2.05333	-1.60000e+01	
			         2.05500	-1.70000e+01	
			         2.05667	-1.70000e+01	
			         2.05833	-1.80000e+01	
			         2.06000	-1.80000e+01	
			         2.06167	-1.90000e+01	
			         2.06333	-1.90000e+01	
			         2.06500	-1.90000e+01	
			         2.06667	-1.90000e+01	
			         2.06833	-1.90000e+01	
			         2.07000	-1.80000e+01	
			         2.07167	-1.80000e+01	
			         2.07333	-1.70000e+01	
			         2.07500	-1.60000e+01	
			         2.07667	-1.50000e+01	
			         2.07833	-1.40000e+01	
			         2.08000	-1.30000e+01	
			         2.08167	-1.20000e+01	
			         2.08333	-1.20000e+01	
			         2.08500	-1.20000e+01	
			         2.08667	-1.20000e+01	
			         2.08833	-1.20000e+01	
			         2.09000	-1.20000e+01	
			         2.09167	-1.10000e+01	
			         2.09333	-1.00000e+01	
			         2.09500	-8.00000e+00	
			         2.09667	-5.00000e+00	
			         2.09833	1.00000e+00	
			         2.10000	1.00000e+01	
			         2.10167	2.30000e+01	
			         2.10333	4.00000e+01	
			         2.10500	6.20000e+01	
			         2.10667	8.80000e+01	
			         2.10833	1.18000e+02	
			         2.11000	1.52000e+02	
			         2.11167	1.89000e+02	
			         2.11333	2.28000e+02	
			         2.11500	2.68000e+02	
			         2.11667	3.07000e+02	
			         2.11833	3.42000e+02	
			         2.12000	3.70000e+02	
			         2.12167	3.88000e+02	
			         2.12333	3.95000e+02	
			         2.12500	3.89000e+02	
			         2.12667	3.69000e+02	
			         2.12833	3.37000e+02	
			         2.13000	2.94000e+02	
			         2.13167	2.40000e+02	
			         2.13333	1.78000e+02	
			         2.13500	1.12000e+02	
			         2.13667	4.30000e+01	
			         2.13833	-2.50000e+01	
			         2.14000	-8.90000e+01	
			         2.14167	-1.45000e+02	
			         2.14333	-1.92000e+02	
			         2.14500	-2.27000e+02	
			         2.14667	-2.51000e+02	
			         2.14833	-2.64000e+02	
			         2.15000	-2.67000e+02	
			         2.15167	-2.60000e+02	
			         2.15333	-2.47000e+02	
			         2.15500	-2.28000e+02	
			         2.15667	-2.07000e+02	
			         2.15833	-1.83000e+02	
			         2.16000	-1.59000e+02	
			         2.16167	-1.35000e+02	
			         2.16333	-1.13000e+02	
			         2.16500	-9.40000e+01	
			         2.16667	-7.60000e+01	
			         2.16833	-6.10000e+01	
			         2.17000	-4.90000e+01	
			         2.17167	-4.00000e+01	
			         2.17333	-3.20000e+01	
			         2.17500	-2.70000e+01	
			         2.17667	-2.30000e+01	
			         2.17833	-2.00000e+01	
			         2.18000	-1.80000e+01	
			         2.18167	-1.80000e+01	
			         2.18333	-1.70000e+01	
			         2.18500	-1.70000e+01	
			         2.18667	-1.70000e+01	
			         2.18833	-1.70000e+01	
			         2.19000	-1.70000e+01	
			         2.19167	-1.60000e+01	
			         2.19333	-1.50000e+01	
			         2.19500	-1.50000e+01	
			         2.19667	-1.40000e+01	
			         2.19833	-1.20000e+01	
			         2.20000	-1.10000e+01	
			         2.20167	-1.00000e+01	
			         2.20333	-9.00000e+00	
			         2.20500	-7.00000e+00	
			         2.20667	-6.00000e+00	
			         2.20833	-5.00000e+00	
			         2.21000	-3.00000e+00	
			         2.21167	-2.00000e+00	
			         2.21333	-1.00000e+00	
			         2.21500	1.00000e+00	
			         2.21667	2.00000e+00	
			         2.21833	3.00000e+00	
			         2.22000	4.00000e+00	
			         2.22167	5.00000e+00	
			         2.22333	5.00000e+00	
			         2.22500	6.00000e+00	
			         2.22667	6.00000e+00	
			         2.22833	6.00000e+00	
			         2.23000	6.00000e+00	
			         2.23167	6.00000e+00	
			         2.23333	6.00000e+00	
			         2.23500	6.00000e+00	
			         2.23667	6.00000e+00	
			         2.23833	5.00000e+00	
			         2.24000	5.00000e+00	
			         2.24167	5.00000e+00	
			         2.24333	6.00000e+00	
			         2.24500	6.00000e+00	
			         2.24667	6.00000e+00	
			         2.24833	7.00000e+00	
			         2.25000	7.00000e+00	
			         2.25167	8.00000e+00	
			         2.25333	8.00000e+00	
			         2.25500	9.00000e+00	
			         2.25667	9.00000e+00	
			         2.25833	1.00000e+01	
			         2.26000	1.00000e+01	
			         2.26167	1.00000e+01	
			         2.26333	1.00000e+01	
			         2.26500	1.10000e+01	
			         2.26667	1.10000e+01	
			         2.26833	1.10000e+01	
			         2.27000	1.20000e+01	
			         2.27167	1.20000e+01	
			         2.27333	1.20000e+01	
			         2.27500	1.30000e+01	
			         2.27667	1.40000e+01	
			         2.27833	1.40000e+01	
			         2.28000	1.50000e+01	
			         2.28167	1.60000e+01	
			         2.28333	1.70000e+01	
			         2.28500	1.80000e+01	
			         2.28667	1.90000e+01	
			         2.28833	2.00000e+01	
			         2.29000	2.10000e+01	
			         2.29167	2.20000e+01	
			         2.29333	2.30000e+01	
			         2.29500	2.30000e+01	
			         2.29667	2.40000e+01	
			         2.29833	2.50000e+01	
			         2.30000	2.60000e+01	
			         2.30167	2.60000e+01	
			         2.30333	2.70000e+01	
			         2.30500	2.70000e+01	
			         2.30667	2.80000e+01	
			         2.30833	2.80000e+01	
			         2.31000	2.80000e+01	
			         2.31167	2.80000e+01	
			         2.31333	2.90000e+01	
			         2.31500	2.90000e+01	
			         2.31667	2.90000e+01	
			         2.31833	3.00000e+01	
			         2.32000	3.00000e+01	
			         2.32167	3.00000e+01	
			         2.32333	3.10000e+01	
			         2.32500	3.20000e+01	
			         2.32667	3.30000e+01	
			         2.32833	3.40000e+01	
			         2.33000	3.50000e+01	
			         2.33167	3.60000e+01	
			         2.33333	3.80000e+01	
			         2.33500	4.00000e+01	
			         2.33667	4.10000e+01	
			         2.33833	4.30000e+01	
			         2.34000	4.50000e+01	
			         2.34167	4.70000e+01	
			         2.34333	4.90000e+01	
			         2.34500	5.10000e+01	
			         2.34667	5.30000e+01	
			         2.34833	5.50000e+01	
			         2.35000	5.70000e+01	
			         2.35167	5.90000e+01	
			         2.35333	6.00000e+01	
			         2.35500	6.20000e+01	
			         2.35667	6.40000e+01	
			         2.35833	6.60000e+01	
			         2.36000	6.80000e+01	
			         2.36167	6.90000e+01	
			         2.36333	7.10000e+01	
			         2.36500	7.20000e+01	
			         2.36667	7.40000e+01	
			         2.36833	7.50000e+01	
			         2.37000	7.60000e+01	
			         2.37167	7.80000e+01	
			         2.37333	8.00000e+01	
			         2.37500	8.10000e+01	
			         2.37667	8.30000e+01	
			         2.37833	8.40000e+01	
			         2.38000	8.60000e+01	
			         2.38167	8.70000e+01	
			         2.38333	8.90000e+01	
			         2.38500	9.00000e+01	
			         2.38667	9.20000e+01	
			         2.38833	9.30000e+01	
			         2.39000	9.50000e+01	
			         2.39167	9.60000e+01	
			         2.39333	9.70000e+01	
			         2.39500	9.80000e+01	
			         2.39667	9.90000e+01	
			         2.39833	1.00000e+02	
			         2.40000	1.01000e+02	
			         2.40167	1.02000e+02	
			         2.40333	1.02000e+02	
			         2.40500	1.03000e+02	
			         2.40667	1.03000e+02	
			         2.40833	1.03000e+02	
			         2.41000	1.02000e+02	
			         2.41167	1.02000e+02	
			         2.41333	1.01000e+02	
			         2.41500	1.00000e+02	
			         2.41667	9.90000e+01	
			         2.41833	9.80000e+01	
			         2.42000	9.60000e+01	
			         2.42167	9.50000e+01	
			         2.42333	9.30000e+01	
			         2.42500	9.00000e+01	
			         2.42667	8.80000e+01	
			         2.42833	8.50000e+01	
			         2.43000	8.20000e+01	
			         2.43167	7.80000e+01	
			         2.43333	7.30000e+01	
			         2.43500	6.80000e+01	
			         2.43667	6.30000e+01	
			         2.43833	5.70000e+01	
			         2.44000	5.10000e+01	
			         2.44167	4.50000e+01	
			         2.44333	3.80000e+01	
			         2.44500	3.10000e+01	
			         2.44667	2.40000e+01	
			         2.44833	1.70000e+01	
			         2.45000	9.00000e+00	
			         2.45167	2.00000e+00	
			         2.45333	-4.00000e+00	
			         2.45500	-1.10000e+01	
			         2.45667	-1.70000e+01	
			         2.45833	-2.30000e+01	
			         2.46000	-2.90000e+01	
			         2.46167	-3.50000e+01	
			         2.46333	-4.00000e+01	
			         2.46500	-4.50000e+01	
			         2.46667	-5.00000e+01	
			         2.46833	-5.40000e+01	
			         2.47000	-5.80000e+01	
			         2.47167	-6.20000e+01	
			         2.47333	-6.60000e+01	
			         2.47500	-6.90000e+01	
			         2.47667	-7.20000e+01	
			         2.47833	-7.50000e+01	
			         2.48000	-7.70000e+01	
			         2.48167	-7.90000e+01	
			         2.48333	-8.00000e+01	
			         2.48500	-8.10000e+01	
			         2.48667	-8.20000e+01	
			         2.48833	-8.30000e+01	
			         2.49000	-8.40000e+01	
			         2.49167	-8.40000e+01	
			         2.49333	-8.40000e+01	
			         2.49500	-8.40000e+01	
			         2.49667	-8.30000e+01	
			         2.49833	-8.30000e+01	
			         2.50000	-8.20000e+01	
			         2.50167	-8.10000e+01	
			         2.50333	-8.00000e+01	
			         2.50500	-7.90000e+01	
			         2.50667	-7.80000e+01	
			         2.50833	-7.70000e+01	
			         2.51000	-7.60000e+01	
			         2.51167	-7.40000e+01	
			         2.51333	-7.30000e+01	
			         2.51500	-7.20000e+01	
			         2.51667	-7.00000e+01	
			         2.51833	-6.90000e+01	
			         2.52000	-6.70000e+01	
			         2.52167	-6.50000e+01	
			         2.52333	-6.40000e+01	
			         2.52500	-6.20000e+01	
			         2.52667	-6.00000e+01	
			         2.52833	-5.80000e+01	
			         2.53000	-5.70000e+01	
			         2.53167	-5.50000e+01	
			         2.53333	-5.30000e+01	
			         2.53500	-5.20000e+01	
			         2.53667	-5.10000e+01	
			         2.53833	-4.90000e+01	
			         2.54000	-4.80000e+01	
			         2.54167	-4.70000e+01	
			         2.54333	-4.60000e+01	
			         2.54500	-4.50000e+01	
			         2.54667	-4.40000e+01	
			         2.54833	-4.30000e+01	
			         2.55000	-4.20000e+01	
			         2.55167	-4.00000e+01	
			         2.55333	-3.90000e+01	
			         2.55500	-3.80000e+01	
			         2.55667	-3.60000e+01	
			         2.55833	-3.50000e+01	
			         2.56000	-3.40000e+01	
			         2.56167	-3.20000e+01	
			         2.56333	-3.10000e+01	
			         2.56500	-3.00000e+01	
			         2.56667	-2.80000e+01	
			         2.56833	-2.70000e+01	
			         2.57000	-2.60000e+01	
			         2.57167	-2.50000e+01	
			         2.57333	-2.40000e+01	
			         2.57500	-2.40000e+01	
			         2.57667	-2.30000e+01	
			         2.57833	-2.30000e+01	
			         2.58000	-2.20000e+01	
			         2.58167	-2.20000e+01	
			         2.58333	-2.20000e+01	
			         2.58500	-2.10000e+01	
			         2.58667	-2.10000e+01	
			         2.58833	-2.00000e+01	
			         2.59000	-2.00000e+01	
			         2.59167	-1.90000e+01	
			         2.59333	-1.80000e+01	
			         2.59500	-1.70000e+01	
			         2.59667	-1.60000e+01	
			         2.59833	-1.50000e+01	
			         2.60000	-1.40000e+01	
			         2.60167	-1.30000e+01	
			         2.60333	-1.20000e+01	
			         2.60500	-1.10000e+01	
			         2.60667	-1.00000e+01	
			         2.60833	-9.00000e+00	
			         2.61000	-8.00000e+00	
			         2.61167	-7.00000e+00	
			         2.61333	-7.00000e+00	
			         2.61500	-6.00000e+00	
			         2.61667	-6.00000e+00	
			         2.61833	-6.00000e+00	
			         2.62000	-5.00000e+00	
			         2.62167	-5.00000e+00	
			         2.62333	-5.00000e+00	
			         2.62500	-6.00000e+00	
			         2.62667	-5.00000e+00	
			         2.62833	-5.00000e+00	
			         2.63000	-5.00000e+00	
			         2.63167	-5.00000e+00	
			         2.63333	-5.00000e+00	
			         2.63500	-5.00000e+00	
			         2.63667	-4.00000e+00	
			         2.63833	-4.00000e+00	
			         2.64000	-4.00000e+00	
			         2.64167	-4.00000e+00	
			         2.64333	-4.00000e+00	
			         2.64500	-3.00000e+00	
			         2.64667	-3.00000e+00	
			         2.64833	-4.00000e+00	
			         2.65000	-4.00000e+00	
			         2.65167	-4.00000e+00	
			         2.65333	-5.00000e+00	
			         2.65500	-5.00000e+00	
			         2.65667	-6.00000e+00	
			         2.65833	-6.00000e+00	
			         2.66000	-7.00000e+00	
			         2.66167	-7.00000e+00	
			         2.66333	-7.00000e+00	
			         2.66500	-8.00000e+00	
			         2.66667	-8.00000e+00	
			         2.66833	-9.00000e+00	
			         2.67000	-9.00000e+00	
			         2.67167	-1.00000e+01	
			         2.67333	-1.00000e+01	
			         2.67500	-1.10000e+01	
			         2.67667	-1.10000e+01	
			         2.67833	-1.10000e+01	
			         2.68000	-1.20000e+01	
			         2.68167	-1.20000e+01	
			         2.68333	-1.20000e+01	
			         2.68500	-1.20000e+01	
			         2.68667	-1.30000e+01	
			         2.68833	-1.30000e+01	
			         2.69000	-1.30000e+01	
			         2.69167	-1.30000e+01	
			         2.69333	-1.30000e+01	
			         2.69500	-1.20000e+01	
			         2.69667	-1.20000e+01	
			         2.69833	-1.20000e+01	
			         2.70000	-1.10000e+01	
			         2.70167	-1.10000e+01	
			         2.70333	-1.00000e+01	
			         2.70500	-1.00000e+01	
			         2.70667	-9.00000e+00	
			         2.70833	-9.00000e+00	
			         2.71000	-9.00000e+00	
			         2.71167	-1.00000e+01	
			         2.71333	-1.00000e+01	
			         2.71500	-1.00000e+01	
			         2.71667	-1.10000e+01	
			         2.71833	-1.20000e+01	
			         2.72000	-1.20000e+01	
			         2.72167	-1.30000e+01	
			         2.72333	-1.40000e+01	
			         2.72500	-1.50000e+01	
			         2.72667	-1.50000e+01	
			         2.72833	-1.50000e+01	
			         2.73000	-1.50000e+01	
			         2.73167	-1.50000e+01	
			         2.73333	-1.50000e+01	
			         2.73500	-1.40000e+01	
			         2.73667	-1.40000e+01	
			         2.73833	-1.30000e+01	
			         2.74000	-1.20000e+01	
			         2.74167	-1.20000e+01	
			         2.74333	-1.10000e+01	
			         2.74500	-1.10000e+01	
			         2.74667	-1.00000e+01	
			         2.74833	-1.00000e+01	
			         2.75000	-1.00000e+01	
			         2.75167	-1.00000e+01	
			         2.75333	-1.00000e+01	
			         2.75500	-9.00000e+00	
			         2.75667	-9.00000e+00	
			         2.75833	-9.00000e+00	
			         2.76000	-8.00000e+00	
			         2.76167	-8.00000e+00	
			         2.76333	-7.00000e+00	
			         2.76500	-6.00000e+00	
			         2.76667	-5.00000e+00	
			         2.76833	-5.00000e+00	
			         2.77000	-4.00000e+00	
			         2.77167	-3.00000e+00	
			         2.77333	-3.00000e+00	
			         2.77500	-3.00000e+00	
			         2.77667	-3.00000e+00	
			         2.77833	-3.00000e+00	
			         2.78000	-3.00000e+00	
			         2.78167	-4.00000e+00	
			         2.78333	-4.00000e+00	
			         2.78500	-5.00000e+00	
			         2.78667	-5.00000e+00	
			         2.78833	-6.00000e+00	
			         2.79000	-7.00000e+00	
			         2.79167	-7.00000e+00	
			         2.79333	-7.00000e+00	
			         2.79500	-8.00000e+00	
			         2.79667	-8.00000e+00	
			         2.79833	-8.00000e+00	
			         2.80000	-8.00000e+00	
			         2.80167	-8.00000e+00	
			         2.80333	-7.00000e+00	
			         2.80500	-7.00000e+00	
			         2.80667	-7.00000e+00	
			         2.80833	-7.00000e+00	
			         2.81000	-6.00000e+00	
			         2.81167	-6.00000e+00	
			         2.81333	-5.00000e+00	
			         2.81500	-5.00000e+00	
			         2.81667	-4.00000e+00	
			         2.81833	-4.00000e+00	
			         2.82000	-4.00000e+00	
			         2.82167	-3.00000e+00	
			         2.82333	-3.00000e+00	
			         2.82500	-2.00000e+00	
			         2.82667	-2.00000e+00	
			         2.82833	-2.00000e+00	
			         2.83000	-2.00000e+00	
			         2.83167	-2.00000e+00	
			         2.83333	-2.00000e+00	
			         2.83500	-3.00000e+00	
			         2.83667	-3.00000e+00	
			         2.83833	-3.00000e+00	
			         2.84000	-3.00000e+00	
			         2.84167	-3.00000e+00	
			         2.84333	-3.00000e+00	
			         2.84500	-3.00000e+00	
			         2.84667	-3.00000e+00	
			         2.84833	-3.00000e+00	
			         2.85000	-3.00000e+00	
			         2.85167	-2.00000e+00	
			         2.85333	-2.00000e+00	
			         2.85500	-1.00000e+00	
			         2.85667	0.00000e+00	
			         2.85833	0.00000e+00	
			         2.86000	1.00000e+00	
			         2.86167	1.00000e+00	
			         2.86333	1.00000e+00	
			         2.86500	2.00000e+00	
			         2.86667	2.00000e+00	
			         2.86833	2.00000e+00	
			         2.87000	2.00000e+00	
			         2.87167	2.00000e+00	
			         2.87333	3.00000e+00	
			         2.87500	3.00000e+00	
			         2.87667	3.00000e+00	
			         2.87833	3.00000e+00	
			         2.88000	3.00000e+00	
			         2.88167	3.00000e+00	
			         2.88333	3.00000e+00	
			         2.88500	3.00000e+00	
			         2.88667	4.00000e+00	
			         2.88833	4.00000e+00	
			         2.89000	3.00000e+00	
			         2.89167	3.00000e+00	
			         2.89333	3.00000e+00	
			         2.89500	3.00000e+00	
			         2.89667	3.00000e+00	
			         2.89833	3.00000e+00	
			         2.90000	2.00000e+00	
			         2.90167	2.00000e+00	
			         2.90333	3.00000e+00	
			         2.90500	3.00000e+00	
			         2.90667	3.00000e+00	
			         2.90833	3.00000e+00	
			         2.91000	3.00000e+00	
			         2.91167	3.00000e+00	
			         2.91333	4.00000e+00	
			         2.91500	4.00000e+00	
			         2.91667	4.00000e+00	
			         2.91833	4.00000e+00	
			         2.92000	4.00000e+00	
			         2.92167	4.00000e+00	
			         2.92333	4.00000e+00	
			         2.92500	3.00000e+00	
			         2.92667	3.00000e+00	
			         2.92833	3.00000e+00	
			         2.93000	3.00000e+00	
			         2.93167	4.00000e+00	
			         2.93333	4.00000e+00	
			         2.93500	4.00000e+00	
			         2.93667	4.00000e+00	
			         2.93833	4.00000e+00	
			         2.94000	5.00000e+00	
			         2.94167	5.00000e+00	
			         2.94333	5.00000e+00	
			         2.94500	5.00000e+00	
			         2.94667	5.00000e+00	
			         2.94833	5.00000e+00	
			         2.95000	5.00000e+00	
			         2.95167	5.00000e+00	
			         2.95333	5.00000e+00	
			         2.95500	5.00000e+00	
			         2.95667	5.00000e+00	
			         2.95833	5.00000e+00	
			         2.96000	6.00000e+00	
			         2.96167	6.00000e+00	
			         2.96333	6.00000e+00	
			         2.96500	5.00000e+00	
			         2.96667	5.00000e+00	
			         2.96833	5.00000e+00	
			         2.97000	5.00000e+00	
			         2.97167	4.00000e+00	
			         2.97333	4.00000e+00	
			         2.97500	4.00000e+00	
			         2.97667	3.00000e+00	
			         2.97833	3.00000e+00	
			         2.98000	3.00000e+00	
			         2.98167	2.00000e+00	
			         2.98333	2.00000e+00	
			         2.98500	2.00000e+00	
			         2.98667	3.00000e+00	
			         2.98833	3.00000e+00	
			         2.99000	3.00000e+00	
			         2.99167	4.00000e+00	
			         2.99333	4.00000e+00	
			         2.99500	5.00000e+00	
			         2.99667	7.00000e+00	
			         2.99833	8.00000e+00	
			         3.00000	1.00000e+01	
			         3.00167	1.20000e+01	
			         3.00333	1.40000e+01	
			         3.00500	1.60000e+01	
			         3.00667	1.80000e+01	
			         3.00833	2.10000e+01	
			         3.01000	2.30000e+01	
			         3.01167	2.50000e+01	
			         3.01333	2.70000e+01	
			         3.01500	2.90000e+01	
			         3.01667	3.10000e+01	
			         3.01833	3.30000e+01	
			         3.02000	3.50000e+01	
			         3.02167	3.70000e+01	
			         3.02333	3.80000e+01	
			         3.02500	3.90000e+01	
			         3.02667	4.00000e+01	
			         3.02833	4.10000e+01	
			         3.03000	4.10000e+01	
			         3.03167	4.00000e+01	
			         3.03333	3.90000e+01	
			         3.03500	3.70000e+01	
			         3.03667	3.40000e+01	
			         3.03833	3.00000e+01	
			         3.04000	2.60000e+01	
			         3.04167	2.00000e+01	
			         3.04333	1.50000e+01	
			         3.04500	9.00000e+00	
			         3.04667	2.00000e+00	
			         3.04833	-4.00000e+00	
			         3.05000	-1.00000e+01	
			         3.05167	-1.60000e+01	
			         3.05333	-2.20000e+01	
			         3.05500	-2.60000e+01	
			         3.05667	-3.00000e+01	
			         3.05833	-3.30000e+01	
			         3.06000	-3.50000e+01	
			         3.06167	-3.70000e+01	
			         3.06333	-3.70000e+01	
			         3.06500	-3.70000e+01	
			         3.06667	-3.60000e+01	
			         3.06833	-3.50000e+01	
			         3.07000	-3.30000e+01	
			         3.07167	-3.10000e+01	
			         3.07333	-2.90000e+01	
			         3.07500	-2.60000e+01	
			         3.07667	-2.50000e+01	
			         3.07833	-2.30000e+01	
			         3.08000	-2.20000e+01	
			         3.08167	-2.10000e+01	
			         3.08333	-2.00000e+01	
			         3.08500	-2.00000e+01	
			         3.08667	-2.00000e+01	
			         3.08833	-2.00000e+01	
			         3.09000	-2.10000e+01	
			         3.09167	-2.10000e+01	
			         3.09333	-2.10000e+01	
			         3.09500	-2.10000e+01	
			         3.09667	-2.20000e+01	
			         3.09833	-2.20000e+01	
			         3.10000	-2.20000e+01	
			         3.10167	-2.30000e+01	
			         3.10333	-2.30000e+01	
			         3.10500	-2.30000e+01	
			         3.10667	-2.20000e+01	
			         3.10833	-2.20000e+01	
			         3.11000	-2.20000e+01	
			         3.11167	-2.10000e+01	
			         3.11333	-2.10000e+01	
			         3.11500	-2.00000e+01	
			         3.11667	-1.90000e+01	
			         3.11833	-1.80000e+01	
			         3.12000	-1.80000e+01	
			         3.12167	-1.70000e+01	
			         3.12333	-1.70000e+01	
			         3.12500	-1.70000e+01	
			         3.12667	-1.60000e+01	
			         3.12833	-1.50000e+01	
			         3.13000	-1.20000e+01	
			         3.13167	-8.00000e+00	
			         3.13333	-2.00000e+00	
			         3.13500	7.00000e+00	
			         3.13667	2.10000e+01	
			         3.13833	3.80000e+01	
			         3.14000	6.00000e+01	
			         3.14167	8.70000e+01	
			         3.14333	1.18000e+02	
			         3.14500	1.53000e+02	
			         3.14667	1.92000e+02	
			         3.14833	2.34000e+02	
			         3.15000	2.76000e+02	
			         3.15167	3.17000e+02	
			         3.15333	3.54000e+02	
			         3.15500	3.83000e+02	
			         3.15667	4.03000e+02	
			         3.15833	4.10000e+02	
			         3.16000	4.03000e+02	
			         3.16167	3.83000e+02	
			         3.16333	3.49000e+02	
			         3.16500	3.03000e+02	
			         3.16667	2.47000e+02	
			         3.16833	1.83000e+02	
			         3.17000	1.14000e+02	
			         3.17167	4.30000e+01	
			         3.17333	-2.70000e+01	
			         3.17500	-9.20000e+01	
			         3.17667	-1.49000e+02	
			         3.17833	-1.96000e+02	
			         3.18000	-2.31000e+02	
			         3.18167	-2.53000e+02	
			         3.18333	-2.65000e+02	
			         3.18500	-2.66000e+02	
			         3.18667	-2.58000e+02	
			         3.18833	-2.44000e+02	
			         3.19000	-2.25000e+02	
			         3.19167	-2.03000e+02	
			         3.19333	-1.79000e+02	
			         3.19500	-1.56000e+02	
			         3.19667	-1.33000e+02	
			         3.19833	-1.13000e+02	
			         3.20000	-9.40000e+01	
			         3.20167	-7.80000e+01	
			         3.20333	-6.50000e+01	
			         3.20500	-5.40000e+01	
			         3.20667	-4.60000e+01	
			         3.20833	-4.00000e+01	
			         3.21000	-3.50000e+01	
			         3.21167	-3.10000e+01	
			         3.21333	-2.90000e+01	
