Velocity (TVI), in cm/s

Time (s) :	Trace 1 : 		Ecg : 		
0.00577   	-1.02198e+00		         0.00000	5.00000e+00	
0.01241   	-6.46472e-01		         0.00167	9.00000e+00	
0.01906   	-1.98467e-01		         0.00333	1.50000e+01	
0.02570   	6.43817e-01		         0.00500	2.30000e+01	
0.03262   	1.54888e+00		         0.00667	3.30000e+01	
0.03926   	1.94814e+00		         0.00833	4.70000e+01	
0.04590   	1.47525e+00		         0.01000	6.40000e+01	
0.05255   	4.66949e-01		         0.01167	8.30000e+01	
0.05946   	-7.52679e-01		         0.01333	1.06000e+02	
0.06611   	-1.40660e+00		         0.01500	1.30000e+02	
0.07275   	-1.34903e+00		         0.01667	1.56000e+02	
0.07939   	-4.11023e-01		         0.01833	1.82000e+02	
0.08631   	1.05549e+00		         0.02000	2.07000e+02	
0.09295   	2.59611e+00		         0.02167	2.28000e+02	
0.09960   	3.38946e+00		         0.02333	2.45000e+02	
0.10624   	3.81973e+00		         0.02500	2.55000e+02	
0.11316   	4.10801e+00		         0.02667	2.58000e+02	
0.11980   	4.21007e+00		         0.02833	2.54000e+02	
0.12644   	4.27896e+00		         0.03000	2.43000e+02	
0.13309   	4.32246e+00		         0.03167	2.24000e+02	
0.13999   	4.40208e+00		         0.03333	2.00000e+02	
0.14665   	4.43007e+00		         0.03500	1.70000e+02	
0.15329   	4.44504e+00		         0.03667	1.37000e+02	
0.15993   	4.42801e+00		         0.03833	1.02000e+02	
0.16685   	4.47018e+00		         0.04000	6.60000e+01	
0.17381   	4.50410e+00		         0.04167	3.10000e+01	
0.18013   	4.55971e+00		         0.04333	0.00000e+00	
0.18678   	4.54614e+00		         0.04500	-2.70000e+01	
0.19369   	4.56825e+00		         0.04667	-5.00000e+01	
0.20034   	4.56163e+00		         0.04833	-6.80000e+01	
0.20698   	4.55619e+00		         0.05000	-8.10000e+01	
0.21362   	4.06910e+00		         0.05167	-8.90000e+01	
0.22054   	3.67355e+00		         0.05333	-9.40000e+01	
0.33347   	3.19850e+00		         0.05500	-9.60000e+01	
0.34012   	2.74411e+00		         0.05667	-9.50000e+01	
0.34676   	2.17374e+00		         0.05833	-9.20000e+01	
0.35341   	2.04703e+00		         0.06000	-8.70000e+01	
0.36032   	1.81822e+00		         0.06167	-8.10000e+01	
0.36696   	1.52736e+00		         0.06333	-7.50000e+01	
0.37361   	1.16224e+00		         0.06500	-6.90000e+01	
0.38025   	8.42621e-01		         0.06667	-6.20000e+01	
0.38717   	4.59915e-01		         0.06833	-5.60000e+01	
0.39381   	-2.22841e-02		         0.07000	-5.10000e+01	
0.40045   	-5.88595e-01		         0.07167	-4.60000e+01	
0.40710   	-1.05662e+00		         0.07333	-4.20000e+01	
0.41401   	-1.42290e+00		         0.07500	-3.80000e+01	
0.42066   	-1.59573e+00		         0.07667	-3.50000e+01	
0.42730   	-9.89697e-01		         0.07833	-3.20000e+01	
0.43395   	-5.54898e-02		         0.08000	-3.00000e+01	
0.44086   	7.22377e-01		         0.08167	-2.90000e+01	
0.44750   	1.55698e+00		         0.08333	-2.90000e+01	
0.45415   	2.38945e+00		         0.08500	-2.80000e+01	
0.46079   	2.58449e+00		         0.08667	-2.90000e+01	
0.46771   	2.51529e+00		         0.08833	-2.90000e+01	
0.47435   	2.50431e+00		         0.09000	-2.90000e+01	
0.48099   	2.25907e+00		         0.09167	-2.90000e+01	
0.48764   	1.78111e+00		         0.09333	-2.90000e+01	
0.49455   	1.03671e+00		         0.09500	-2.90000e+01	
0.50120   	2.83304e-01		         0.09667	-2.90000e+01	
0.50784   	-5.91972e-01		         0.09833	-2.80000e+01	
0.51448   	-1.43186e+00		         0.10000	-2.80000e+01	
0.52140   	-2.17445e+00		         0.10167	-2.60000e+01	
0.52804   	-2.82544e+00		         0.10333	-2.50000e+01	
0.53469   	-3.38865e+00		         0.10500	-2.30000e+01	
0.54133   	-3.79756e+00		         0.10667	-2.10000e+01	
0.54825   	-4.16626e+00		         0.10833	-1.90000e+01	
0.55489   	-4.38015e+00		         0.11000	-1.70000e+01	
0.56153   	-4.51187e+00		         0.11167	-1.50000e+01	
0.56818   	-4.50458e+00		         0.11333	-1.40000e+01	
0.57509   	-4.45797e+00		         0.11500	-1.20000e+01	
0.58174   	-4.30269e+00		         0.11667	-1.10000e+01	
0.58848   	-4.30831e+00		         0.11833	-1.10000e+01	
0.59502   	-3.99743e+00		         0.12000	-1.10000e+01	
0.60194   	-3.78371e+00		         0.12167	-1.10000e+01	
0.60858   	-3.60373e+00		         0.12333	-1.10000e+01	
0.61523   	-3.38637e+00		         0.12500	-1.20000e+01	
0.62187   	-3.08879e+00		         0.12667	-1.20000e+01	
0.62878   	-2.87398e+00		         0.12833	-1.30000e+01	
0.63543   	-2.61853e+00		         0.13000	-1.40000e+01	
0.64207   	-2.29629e+00		         0.13167	-1.50000e+01	
0.64872   	-2.04924e+00		         0.13333	-1.50000e+01	
0.65563   	-1.70155e+00		         0.13500	-1.50000e+01	
0.66227   	-1.48205e+00		         0.13667	-1.50000e+01	
0.66892   	-1.27155e+00		         0.13833	-1.50000e+01	
0.67557   	-1.07349e+00		         0.14000	-1.40000e+01	
0.68248   	-9.04023e-01		         0.14167	-1.30000e+01	
0.68912   	-8.94821e-01		         0.14333	-1.20000e+01	
0.69577   	-8.35138e-01		         0.14500	-1.00000e+01	
0.70241   	-7.73395e-01		         0.14667	-8.00000e+00	
0.70933   	-7.67004e-01		         0.14833	-7.00000e+00	
0.71597   	-7.15701e-01		         0.15000	-5.00000e+00	
0.72261   	-6.50097e-01		         0.15167	-4.00000e+00	
0.72925   	-6.85941e-01		         0.15333	-2.00000e+00	
0.73617   	-8.69898e-01		         0.15500	-1.00000e+00	
0.74282   	-1.12010e+00		         0.15667	0.00000e+00	
0.74946   	-1.81707e+00		         0.15833	1.00000e+00	
0.75610   	-2.78739e+00		         0.16000	2.00000e+00	
0.76302   	-3.90602e+00		         0.16167	2.00000e+00	
0.76966   	-5.13535e+00		         0.16333	3.00000e+00	
0.77631   	-6.29914e+00		         0.16500	3.00000e+00	
0.78295   	-7.15194e+00		         0.16667	3.00000e+00	
0.78986   	-7.70058e+00		         0.16833	4.00000e+00	
0.79651   	-7.96411e+00		         0.17000	4.00000e+00	
0.80315   	-7.94634e+00		         0.17167	5.00000e+00	
0.80979   	-7.82964e+00		         0.17333	5.00000e+00	
0.81671   	-7.40661e+00		         0.17500	6.00000e+00	
0.82335   	-6.91084e+00		         0.17667	7.00000e+00	
0.83000   	-6.34161e+00		         0.17833	8.00000e+00	
0.83664   	-5.67418e+00		         0.18000	9.00000e+00	
0.84355   	-4.77275e+00		         0.18167	9.00000e+00	
0.85020   	-3.95295e+00		         0.18333	1.00000e+01	
0.85684   	-3.15749e+00		         0.18500	1.00000e+01	
0.86349   	-2.43481e+00		         0.18667	1.00000e+01	
0.87058   	-1.66837e+00		         0.18833	1.00000e+01	
0.87704   	-1.22397e+00		         0.19000	1.10000e+01	
0.88369   	-5.59453e-01		         0.19167	1.10000e+01	
0.89033   	2.53940e-01		         0.19333	1.10000e+01	
0.89725   	1.02278e+00		         0.19500	1.10000e+01	
0.90393   	1.21749e+00		         0.19667	1.10000e+01	
0.91053   	8.05634e-01		         0.19833	1.10000e+01	
0.91718   	-3.50103e-01		         0.20000	1.10000e+01	
0.92409   	-1.59186e+00		         0.20167	1.20000e+01	
0.93074   	-2.14596e+00		         0.20333	1.30000e+01	
0.93738   	-1.96694e+00		         0.20500	1.30000e+01	
0.94403   	-9.06752e-01		         0.20667	1.40000e+01	
0.95094   	7.67676e-01		         0.20833	1.60000e+01	
0.95758   	2.32341e+00		         0.21000	1.70000e+01	
0.96423   	3.13901e+00		         0.21167	1.90000e+01	
0.97087   	3.62069e+00		         0.21333	2.20000e+01	
0.97779   	3.86304e+00		         0.21500	2.40000e+01	
0.98443   	3.91778e+00		         0.21667	2.60000e+01	
0.99108   	3.99622e+00		         0.21833	2.70000e+01	
0.99772   	4.11172e+00		         0.22000	2.80000e+01	
1.00463   	4.22346e+00		         0.22167	2.80000e+01	
1.01128   	4.27846e+00		         0.22333	2.80000e+01	
1.01792   	4.34478e+00		         0.22500	2.80000e+01	
1.02457   	4.36374e+00		         0.22667	2.70000e+01	
1.03148   	4.45579e+00		         0.22833	2.50000e+01	
1.03812   	4.51473e+00		         0.23000	2.30000e+01	
1.04477   	4.56746e+00		         0.23167	2.10000e+01	
1.05141   	4.60669e+00		         0.23333	1.80000e+01	
1.05833   	4.62225e+00		         0.23500	1.40000e+01	
1.06497   	4.63273e+00		         0.23667	1.00000e+01	
1.07161   	4.58938e+00		         0.23833	6.00000e+00	
1.07826   	4.62235e+00		         0.24000	2.00000e+00	
1.08517   	4.63342e+00		         0.24167	-3.00000e+00	
1.09182   	4.56461e+00		         0.24333	-7.00000e+00	
1.09846   	4.36495e+00		         0.24500	-1.20000e+01	
1.10510   	4.26825e+00		         0.24667	-1.70000e+01	
1.11202   	4.09785e+00		         0.24833	-2.10000e+01	
1.11866   	3.93566e+00		         0.25000	-2.60000e+01	
1.12531   	3.82867e+00		         0.25167	-3.00000e+01	
1.13195   	3.75215e+00		         0.25333	-3.40000e+01	
1.13886   	3.59194e+00		         0.25500	-3.70000e+01	
1.14551   	3.44557e+00		         0.25667	-4.10000e+01	
1.15215   	3.36065e+00		         0.25833	-4.40000e+01	
1.15880   	3.22626e+00		         0.26000	-4.70000e+01	
1.16571   	3.08165e+00		         0.26167	-5.00000e+01	
1.17235   	3.00460e+00		         0.26333	-5.20000e+01	
1.17900   	2.97694e+00		         0.26500	-5.40000e+01	
1.18564   	2.82498e+00		         0.26667	-5.60000e+01	
1.19256   	2.77557e+00		         0.26833	-5.80000e+01	
1.19920   	2.68221e+00		         0.27000	-6.00000e+01	
1.20584   	2.53549e+00		         0.27167	-6.10000e+01	
1.21249   	2.30172e+00		         0.27333	-6.20000e+01	
1.21940   	2.10482e+00		         0.27500	-6.30000e+01	
1.22605   	1.85497e+00		         0.27667	-6.30000e+01	
1.23269   	1.57875e+00		         0.27833	-6.30000e+01	
1.23933   	1.27806e+00		         0.28000	-6.30000e+01	
1.24625   	9.37515e-01		         0.28167	-6.30000e+01	
1.25289   	4.98825e-01		         0.28333	-6.30000e+01	
1.25954   	-6.82480e-02		         0.28500	-6.20000e+01	
1.26618   	-6.15337e-01		         0.28667	-6.20000e+01	
1.27310   	-1.16982e+00		         0.28833	-6.10000e+01	
1.27974   	-1.62789e+00		         0.29000	-6.10000e+01	
1.28638   	-1.26336e+00		         0.29167	-6.00000e+01	
1.29303   	-7.50923e-01		         0.29333	-6.00000e+01	
1.29994   	-7.38929e-02		         0.29500	-5.90000e+01	
1.30659   	7.13548e-01		         0.29667	-5.80000e+01	
1.31323   	1.52134e+00		         0.29833	-5.80000e+01	
1.31987   	1.77043e+00		         0.30000	-5.70000e+01	
1.32679   	2.04059e+00		         0.30167	-5.60000e+01	
1.33343   	2.18400e+00		         0.30333	-5.50000e+01	
1.34008   	2.24807e+00		         0.30500	-5.40000e+01	
1.34672   	2.19498e+00		         0.30667	-5.30000e+01	
1.35363   	1.93215e+00		         0.30833	-5.20000e+01	
1.36028   	1.21161e+00		         0.31000	-5.00000e+01	
1.36692   	4.13420e-01		         0.31167	-4.90000e+01	
1.37357   	-4.87599e-01		         0.31333	-4.70000e+01	
1.38048   	-1.38270e+00		         0.31500	-4.60000e+01	
1.38712   	-2.46005e+00		         0.31667	-4.40000e+01	
1.39377   	-3.06503e+00		         0.31833	-4.30000e+01	
1.40041   	-3.59346e+00		         0.32000	-4.20000e+01	
1.40733   	-3.95696e+00		         0.32167	-4.00000e+01	
1.41397   	-4.34292e+00		         0.32333	-3.90000e+01	
1.42061   	-4.54366e+00		         0.32500	-3.90000e+01	
1.42726   	-4.70125e+00		         0.32667	-3.80000e+01	
1.43417   	-4.73056e+00		         0.32833	-3.80000e+01	
1.44082   	-4.78576e+00		         0.33000	-3.70000e+01	
1.44746   	-4.69262e+00		         0.33167	-3.70000e+01	
1.45410   	-4.39171e+00		         0.33333	-3.70000e+01	
1.46102   	-4.21376e+00		         0.33500	-3.70000e+01	
1.46766   	-4.00227e+00		         0.33667	-3.70000e+01	
1.47431   	-3.66904e+00		         0.33833	-3.60000e+01	
1.48095   	-3.29503e+00		         0.34000	-3.60000e+01	
1.48786   	-2.88512e+00		         0.34167	-3.60000e+01	
1.49451   	-2.46009e+00		         0.34333	-3.50000e+01	
1.50115   	-2.04897e+00		         0.34500	-3.40000e+01	
1.50780   	-1.78781e+00		         0.34667	-3.40000e+01	
1.51471   	-1.55326e+00		         0.34833	-3.30000e+01	
1.52135   	-1.46413e+00		         0.35000	-3.20000e+01	
1.52800   	-1.28701e+00		         0.35167	-3.00000e+01	
1.53479   	-1.20977e+00		         0.35333	-2.90000e+01	
1.54156   	-1.04222e+00		         0.35500	-2.80000e+01	
1.54820   	-9.38200e-01		         0.35667	-2.70000e+01	
1.55485   	-8.67072e-01		         0.35833	-2.60000e+01	
1.56149   	-7.31964e-01		         0.36000	-2.50000e+01	
1.56840   	-6.58117e-01		         0.36167	-2.50000e+01	
1.57505   	-6.51729e-01		         0.36333	-2.40000e+01	
1.58169   	-6.39466e-01		         0.36500	-2.40000e+01	
1.58833   	-6.57640e-01		         0.36667	-2.40000e+01	
1.59525   	-8.27326e-01		         0.36833	-2.40000e+01	
1.60189   	-1.12762e+00		         0.37000	-2.30000e+01	
1.60854   	-1.66356e+00		         0.37167	-2.30000e+01	
1.61518   	-2.49799e+00		         0.37333	-2.30000e+01	
1.62210   	-3.50906e+00		         0.37500	-2.20000e+01	
1.62874   	-4.80603e+00		         0.37667	-2.20000e+01	
1.63538   	-5.96507e+00		         0.37833	-2.20000e+01	
1.64203   	-6.90394e+00		         0.38000	-2.20000e+01	
1.64894   	-7.58966e+00		         0.38167	-2.20000e+01	
1.65559   	-8.01944e+00		         0.38333	-2.10000e+01	
1.66223   	-8.04657e+00		         0.38500	-2.10000e+01	
1.66887   	-7.91041e+00		         0.38667	-2.00000e+01	
1.67579   	-7.70853e+00		         0.38833	-1.90000e+01	
1.68243   	-7.29033e+00		         0.39000	-1.90000e+01	
1.68908   	-6.68978e+00		         0.39167	-1.80000e+01	
1.69572   	-6.10697e+00		         0.39333	-1.80000e+01	
1.70263   	-5.46368e+00		         0.39500	-1.80000e+01	
1.70928   	-4.69493e+00		         0.39667	-1.70000e+01	
1.71592   	-3.82121e+00		         0.39833	-1.60000e+01	
1.72257   	-3.07042e+00		         0.40000	-1.60000e+01	
1.72948   	-2.17229e+00		         0.40167	-1.50000e+01	
1.73612   	-1.44427e+00		         0.40333	-1.50000e+01	
1.74277   	-7.83593e-01		         0.40500	-1.40000e+01	
1.74941   	-2.13294e-01		         0.40667	-1.40000e+01	
1.75633   	7.90599e-01		         0.40833	-1.40000e+01	
1.76297   	1.21859e+00		         0.41000	-1.30000e+01	
1.76961   	1.00106e+00		         0.41167	-1.20000e+01	
1.77626   	4.25366e-01		         0.41333	-1.20000e+01	
1.78317   	-5.97988e-01		         0.41500	-1.10000e+01	
1.78982   	-1.62600e+00		         0.41667	-1.00000e+01	
1.79646   	-1.85420e+00		         0.41833	-9.00000e+00	
1.80310   	-1.15737e+00		         0.42000	-8.00000e+00	
1.81002   	4.39792e-02		         0.42167	-7.00000e+00	
1.81666   	1.62682e+00		         0.42333	-7.00000e+00	
1.82331   	2.68705e+00		         0.42500	-6.00000e+00	
1.82995   	3.38192e+00		         0.42667	-5.00000e+00	
1.83687   	3.77803e+00		         0.42833	-4.00000e+00	
1.84351   	3.93912e+00		         0.43000	-3.00000e+00	
1.85016   	4.04006e+00		         0.43167	-2.00000e+00	
1.85680   	4.13511e+00		         0.43333	-1.00000e+00	
1.86371   	4.22661e+00		         0.43500	-1.00000e+00	
1.87036   	4.31783e+00		         0.43667	-1.00000e+00	
1.87700   	4.38235e+00		         0.43833	-2.00000e+00	
1.88364   	4.44889e+00		         0.44000	-2.00000e+00	
1.89056   	4.51328e+00		         0.44167	-3.00000e+00	
1.89720   	4.51661e+00		         0.44333	-3.00000e+00	
1.90385   	4.59575e+00		         0.44500	-4.00000e+00	
1.91049   	4.64024e+00		         0.44667	-4.00000e+00	
1.91741   	4.63191e+00		         0.44833	-4.00000e+00	
1.92405   	4.60511e+00		         0.45000	-5.00000e+00	
1.93069   	4.59585e+00		         0.45167	-5.00000e+00	
1.93734   	4.52460e+00		         0.45333	-5.00000e+00	
1.94425   	4.49649e+00		         0.45500	-4.00000e+00	
1.95089   	4.44690e+00		         0.45667	-4.00000e+00	
1.95754   	4.43850e+00		         0.45833	-3.00000e+00	
1.96418   	4.36925e+00		         0.46000	-2.00000e+00	
1.97110   	4.24301e+00		         0.46167	-2.00000e+00	
1.97774   	4.13277e+00		         0.46333	-1.00000e+00	
1.98439   	4.01804e+00		         0.46500	0.00000e+00	
1.99103   	3.80268e+00		         0.46667	0.00000e+00	
1.99794   	3.67786e+00		         0.46833	0.00000e+00	
2.00459   	3.59221e+00		         0.47000	0.00000e+00	
2.01123   	3.39679e+00		         0.47167	0.00000e+00	
2.01788   	3.29044e+00		         0.47333	0.00000e+00	
2.02479   	3.24672e+00		         0.47500	-1.00000e+00	
2.03143   	3.15470e+00		         0.47667	-1.00000e+00	
2.03808   	2.98671e+00		         0.47833	-1.00000e+00	
2.04472   	2.88331e+00		         0.48000	-1.00000e+00	
2.05164   	2.67342e+00		         0.48167	-1.00000e+00	
2.05828   	2.46295e+00		         0.48333	-1.00000e+00	
2.06492   	2.29904e+00		         0.48500	-1.00000e+00	
2.07157   	2.18511e+00		         0.48667	-1.00000e+00	
2.07848   	2.04254e+00		         0.48833	-1.00000e+00	
2.08513   	1.86685e+00		         0.49000	0.00000e+00	
2.09177   	1.61277e+00		         0.49167	0.00000e+00	
2.09841   	1.35058e+00		         0.49333	0.00000e+00	
2.10533   	1.04562e+00		         0.49500	0.00000e+00	
2.11198   	6.95322e-01		         0.49667	0.00000e+00	
2.11862   	2.38250e-01		         0.49833	0.00000e+00	
2.12526   	-1.63198e-01		         0.50000	0.00000e+00	
2.13227   	-8.13465e-01		         0.50167	0.00000e+00	
2.13882   	-1.37472e+00		         0.50333	0.00000e+00	
2.14546   	-1.45275e+00		         0.50500	0.00000e+00	
2.15211   	-1.43766e+00		         0.50667	0.00000e+00	
2.15902   	-8.46357e-01		         0.50833	0.00000e+00	
2.16567   	-1.41098e-02		         0.51000	0.00000e+00	
2.17231   	7.94184e-01		         0.51167	0.00000e+00	
2.17895   	1.29239e+00		         0.51333	0.00000e+00	
2.18587   	1.89772e+00		         0.51500	0.00000e+00	
2.19251   	2.01310e+00		         0.51667	0.00000e+00	
2.19915   	2.06367e+00		         0.51833	0.00000e+00	
2.20580   	2.07742e+00		         0.52000	-1.00000e+00	
2.21271   	1.86313e+00		         0.52167	-1.00000e+00	
2.21936   	1.32565e+00		         0.52333	-1.00000e+00	
2.22600   	4.03670e-01		         0.52500	-1.00000e+00	
2.23265   	-6.42628e-01		         0.52667	-2.00000e+00	
2.23956   	-1.71882e+00		         0.52833	-2.00000e+00	
2.24620   	-2.47946e+00		         0.53000	-3.00000e+00	
2.25285   	-3.09606e+00		         0.53167	-3.00000e+00	
2.25949   	-3.33792e+00		         0.53333	-3.00000e+00	
2.26641   	-3.65170e+00		         0.53500	-3.00000e+00	
2.27305   	-3.95266e+00		         0.53667	-3.00000e+00	
2.27969   	-4.43549e+00		         0.53833	-3.00000e+00	
2.28635   	-4.68170e+00		         0.54000	-3.00000e+00	
2.29325   	-4.94700e+00		         0.54167	-2.00000e+00	
2.29990   	-4.88778e+00		         0.54333	-2.00000e+00	
2.30654   	-4.97623e+00		         0.54500	-2.00000e+00	
2.31318   	-4.79500e+00		         0.54667	-1.00000e+00	
2.32010   	-4.64529e+00		         0.54833	-1.00000e+00	
2.32675   	-4.51708e+00		         0.55000	-1.00000e+00	
2.33339   	-4.18848e+00		         0.55167	-1.00000e+00	
2.34003   	-3.65595e+00		         0.55333	-1.00000e+00	
2.34694   	-3.24261e+00		         0.55500	-1.00000e+00	
2.35359   	-2.82926e+00		         0.55667	-1.00000e+00	
2.36023   	-2.33275e+00		         0.55833	-1.00000e+00	
2.36688   	-2.05090e+00		         0.56000	-1.00000e+00	
2.37379   	-1.76479e+00		         0.56167	0.00000e+00	
2.38043   	-1.54337e+00		         0.56333	0.00000e+00	
2.38708   	-1.37750e+00		         0.56500	0.00000e+00	
2.39372   	-1.24940e+00		         0.56667	1.00000e+00	
2.40064   	-1.11544e+00		         0.56833	2.00000e+00	
2.40728   	-9.96218e-01		         0.57000	2.00000e+00	
2.41393   	-8.77901e-01		         0.57167	3.00000e+00	
2.42057   	-7.78973e-01		         0.57333	3.00000e+00	
2.42749   	-6.90163e-01		         0.57500	3.00000e+00	
2.43413   	-6.56378e-01		         0.57667	3.00000e+00	
2.44077   	-5.99677e-01		         0.57833	2.00000e+00	
2.44741   	-6.24881e-01		         0.58000	2.00000e+00	
2.45433   	-7.26712e-01		         0.58167	1.00000e+00	
2.46098   	-9.16466e-01		         0.58333	1.00000e+00	
2.46762   	-1.38043e+00		         0.58500	0.00000e+00	
2.47426   	-2.13734e+00		         0.58667	0.00000e+00	
2.48118   	-3.13511e+00		         0.58833	0.00000e+00	
2.48782   	-4.29409e+00		         0.59000	0.00000e+00	
2.49446   	-5.52287e+00		         0.59167	0.00000e+00	
2.50111   	-6.64073e+00		         0.59333	1.00000e+00	
2.50803   	-7.41637e+00		         0.59500	1.00000e+00	
2.51467   	-7.89948e+00		         0.59667	2.00000e+00	
2.52131   	-8.06925e+00		         0.59833	2.00000e+00	
2.52795   	-8.04078e+00		         0.60000	3.00000e+00	
2.53488   	-7.74258e+00		         0.60167	4.00000e+00	
2.54151   	-7.28930e+00		         0.60333	4.00000e+00	
2.54816   	-6.68548e+00		         0.60500	5.00000e+00	
2.55480   	-6.04282e+00		         0.60667	6.00000e+00	
2.56172   	-5.33978e+00		         0.60833	7.00000e+00	
2.56836   	-4.55115e+00		         0.61000	7.00000e+00	
2.57500   	-3.86364e+00		         0.61167	8.00000e+00	
2.58165   	-3.17742e+00		         0.61333	9.00000e+00	
2.58856   	-2.40508e+00		         0.61500	1.00000e+01	
2.59521   	-1.67992e+00		         0.61667	1.10000e+01	
2.60185   	-9.18713e-01		         0.61833	1.20000e+01	
2.60850   	-1.83463e-02		         0.62000	1.30000e+01	
2.61541   	8.89522e-01		         0.62167	1.30000e+01	
2.62205   	1.47436e+00		         0.62333	1.40000e+01	
2.62870   	1.93910e+00		         0.62500	1.40000e+01	
2.63534   	2.32185e+00		         0.62667	1.50000e+01	
			         0.62833	1.60000e+01	
			         0.63000	1.60000e+01	
			         0.63167	1.60000e+01	
			         0.63333	1.60000e+01	
			         0.63500	1.70000e+01	
			         0.63667	1.70000e+01	
			         0.63833	1.70000e+01	
			         0.64000	1.80000e+01	
			         0.64167	1.80000e+01	
			         0.64333	1.80000e+01	
			         0.64500	1.80000e+01	
			         0.64667	1.80000e+01	
			         0.64833	1.70000e+01	
			         0.65000	1.60000e+01	
			         0.65167	1.50000e+01	
			         0.65333	1.30000e+01	
			         0.65500	1.10000e+01	
			         0.65667	9.00000e+00	
			         0.65833	7.00000e+00	
			         0.66000	4.00000e+00	
			         0.66167	1.00000e+00	
			         0.66333	-1.00000e+00	
			         0.66500	-4.00000e+00	
			         0.66667	-6.00000e+00	
			         0.66833	-8.00000e+00	
			         0.67000	-1.00000e+01	
			         0.67167	-1.10000e+01	
			         0.67333	-1.10000e+01	
			         0.67500	-1.20000e+01	
			         0.67667	-1.30000e+01	
			         0.67833	-1.30000e+01	
			         0.68000	-1.30000e+01	
			         0.68167	-1.40000e+01	
			         0.68333	-1.40000e+01	
			         0.68500	-1.40000e+01	
			         0.68667	-1.40000e+01	
			         0.68833	-1.40000e+01	
			         0.69000	-1.50000e+01	
			         0.69167	-1.50000e+01	
			         0.69333	-1.50000e+01	
			         0.69500	-1.50000e+01	
			         0.69667	-1.40000e+01	
			         0.69833	-1.40000e+01	
			         0.70000	-1.40000e+01	
			         0.70167	-1.30000e+01	
			         0.70333	-1.30000e+01	
			         0.70500	-1.30000e+01	
			         0.70667	-1.20000e+01	
			         0.70833	-1.20000e+01	
			         0.71000	-1.10000e+01	
			         0.71167	-1.10000e+01	
			         0.71333	-1.10000e+01	
			         0.71500	-1.10000e+01	
			         0.71667	-1.10000e+01	
			         0.71833	-1.10000e+01	
			         0.72000	-1.10000e+01	
			         0.72167	-1.10000e+01	
			         0.72333	-1.10000e+01	
			         0.72500	-1.10000e+01	
			         0.72667	-1.10000e+01	
			         0.72833	-1.10000e+01	
			         0.73000	-1.10000e+01	
			         0.73167	-1.10000e+01	
			         0.73333	-1.10000e+01	
			         0.73500	-1.10000e+01	
			         0.73667	-1.10000e+01	
			         0.73833	-1.10000e+01	
			         0.74000	-1.00000e+01	
			         0.74167	-1.00000e+01	
			         0.74333	-1.00000e+01	
			         0.74500	-1.00000e+01	
			         0.74667	-9.00000e+00	
			         0.74833	-9.00000e+00	
			         0.75000	-8.00000e+00	
			         0.75167	-7.00000e+00	
			         0.75333	-6.00000e+00	
			         0.75500	-4.00000e+00	
			         0.75667	-2.00000e+00	
			         0.75833	2.00000e+00	
			         0.76000	7.00000e+00	
			         0.76167	1.30000e+01	
			         0.76333	2.20000e+01	
			         0.76500	3.40000e+01	
			         0.76667	4.90000e+01	
			         0.76833	6.70000e+01	
			         0.77000	8.80000e+01	
			         0.77167	1.11000e+02	
			         0.77333	1.37000e+02	
			         0.77500	1.63000e+02	
			         0.77667	1.89000e+02	
			         0.77833	2.13000e+02	
			         0.78000	2.32000e+02	
			         0.78167	2.47000e+02	
			         0.78333	2.55000e+02	
			         0.78500	2.56000e+02	
			         0.78667	2.49000e+02	
			         0.78833	2.36000e+02	
			         0.79000	2.15000e+02	
			         0.79167	1.89000e+02	
			         0.79333	1.58000e+02	
			         0.79500	1.24000e+02	
			         0.79667	8.80000e+01	
			         0.79833	5.30000e+01	
			         0.80000	2.00000e+01	
			         0.80167	-1.10000e+01	
			         0.80333	-3.60000e+01	
			         0.80500	-5.70000e+01	
			         0.80667	-7.40000e+01	
			         0.80833	-8.60000e+01	
			         0.81000	-9.30000e+01	
			         0.81167	-9.70000e+01	
			         0.81333	-9.80000e+01	
			         0.81500	-9.60000e+01	
			         0.81667	-9.30000e+01	
			         0.81833	-8.80000e+01	
			         0.82000	-8.20000e+01	
			         0.82167	-7.60000e+01	
			         0.82333	-7.10000e+01	
			         0.82500	-6.50000e+01	
			         0.82667	-5.90000e+01	
			         0.82833	-5.40000e+01	
			         0.83000	-5.00000e+01	
			         0.83167	-4.60000e+01	
			         0.83333	-4.20000e+01	
			         0.83500	-3.90000e+01	
			         0.83667	-3.70000e+01	
			         0.83833	-3.50000e+01	
			         0.84000	-3.30000e+01	
			         0.84167	-3.10000e+01	
			         0.84333	-2.90000e+01	
			         0.84500	-2.80000e+01	
			         0.84667	-2.60000e+01	
			         0.84833	-2.40000e+01	
			         0.85000	-2.30000e+01	
			         0.85167	-2.10000e+01	
			         0.85333	-2.00000e+01	
			         0.85500	-1.80000e+01	
			         0.85667	-1.70000e+01	
			         0.85833	-1.60000e+01	
			         0.86000	-1.50000e+01	
			         0.86167	-1.40000e+01	
			         0.86333	-1.40000e+01	
			         0.86500	-1.30000e+01	
			         0.86667	-1.30000e+01	
			         0.86833	-1.20000e+01	
			         0.87000	-1.20000e+01	
			         0.87167	-1.20000e+01	
			         0.87333	-1.10000e+01	
			         0.87500	-1.10000e+01	
			         0.87667	-1.00000e+01	
			         0.87833	-9.00000e+00	
			         0.88000	-8.00000e+00	
			         0.88167	-7.00000e+00	
			         0.88333	-7.00000e+00	
			         0.88500	-6.00000e+00	
			         0.88667	-5.00000e+00	
			         0.88833	-4.00000e+00	
			         0.89000	-3.00000e+00	
			         0.89167	-2.00000e+00	
			         0.89333	-2.00000e+00	
			         0.89500	-1.00000e+00	
			         0.89667	0.00000e+00	
			         0.89833	0.00000e+00	
			         0.90000	1.00000e+00	
			         0.90167	2.00000e+00	
			         0.90333	2.00000e+00	
			         0.90500	3.00000e+00	
			         0.90667	3.00000e+00	
			         0.90833	4.00000e+00	
			         0.91000	4.00000e+00	
			         0.91167	5.00000e+00	
			         0.91333	5.00000e+00	
			         0.91500	6.00000e+00	
			         0.91667	6.00000e+00	
			         0.91833	7.00000e+00	
			         0.92000	7.00000e+00	
			         0.92167	8.00000e+00	
			         0.92333	9.00000e+00	
			         0.92500	9.00000e+00	
			         0.92667	9.00000e+00	
			         0.92833	9.00000e+00	
			         0.93000	9.00000e+00	
			         0.93167	9.00000e+00	
			         0.93333	9.00000e+00	
			         0.93500	9.00000e+00	
			         0.93667	9.00000e+00	
			         0.93833	1.00000e+01	
			         0.94000	1.00000e+01	
			         0.94167	1.00000e+01	
			         0.94333	1.10000e+01	
			         0.94500	1.20000e+01	
			         0.94667	1.30000e+01	
			         0.94833	1.50000e+01	
			         0.95000	1.60000e+01	
			         0.95167	1.80000e+01	
			         0.95333	1.90000e+01	
			         0.95500	2.00000e+01	
			         0.95667	2.20000e+01	
			         0.95833	2.20000e+01	
			         0.96000	2.30000e+01	
			         0.96167	2.40000e+01	
			         0.96333	2.40000e+01	
			         0.96500	2.40000e+01	
			         0.96667	2.40000e+01	
			         0.96833	2.40000e+01	
			         0.97000	2.40000e+01	
			         0.97167	2.40000e+01	
			         0.97333	2.40000e+01	
			         0.97500	2.40000e+01	
			         0.97667	2.40000e+01	
			         0.97833	2.50000e+01	
			         0.98000	2.50000e+01	
			         0.98167	2.60000e+01	
			         0.98333	2.60000e+01	
			         0.98500	2.70000e+01	
			         0.98667	2.80000e+01	
			         0.98833	2.80000e+01	
			         0.99000	2.90000e+01	
			         0.99167	3.00000e+01	
			         0.99333	3.10000e+01	
			         0.99500	3.20000e+01	
			         0.99667	3.30000e+01	
			         0.99833	3.30000e+01	
			         1.00000	3.40000e+01	
			         1.00167	3.50000e+01	
			         1.00333	3.50000e+01	
			         1.00500	3.60000e+01	
			         1.00667	3.60000e+01	
			         1.00833	3.60000e+01	
			         1.01000	3.70000e+01	
			         1.01167	3.70000e+01	
			         1.01333	3.70000e+01	
			         1.01500	3.80000e+01	
			         1.01667	3.80000e+01	
			         1.01833	3.80000e+01	
			         1.02000	3.90000e+01	
			         1.02167	3.90000e+01	
			         1.02333	4.00000e+01	
			         1.02500	4.10000e+01	
			         1.02667	4.20000e+01	
			         1.02833	4.30000e+01	
			         1.03000	4.40000e+01	
			         1.03167	4.50000e+01	
			         1.03333	4.70000e+01	
			         1.03500	4.80000e+01	
			         1.03667	5.00000e+01	
			         1.03833	5.10000e+01	
			         1.04000	5.30000e+01	
			         1.04167	5.40000e+01	
			         1.04333	5.50000e+01	
			         1.04500	5.70000e+01	
			         1.04667	5.80000e+01	
			         1.04833	5.90000e+01	
			         1.05000	6.00000e+01	
			         1.05167	6.10000e+01	
			         1.05333	6.20000e+01	
			         1.05500	6.30000e+01	
			         1.05667	6.30000e+01	
			         1.05833	6.40000e+01	
			         1.06000	6.40000e+01	
			         1.06167	6.40000e+01	
			         1.06333	6.40000e+01	
			         1.06500	6.40000e+01	
			         1.06667	6.30000e+01	
			         1.06833	6.20000e+01	
			         1.07000	6.10000e+01	
			         1.07167	6.00000e+01	
			         1.07333	5.90000e+01	
			         1.07500	5.70000e+01	
			         1.07667	5.50000e+01	
			         1.07833	5.20000e+01	
			         1.08000	5.00000e+01	
			         1.08167	4.70000e+01	
			         1.08333	4.40000e+01	
			         1.08500	4.00000e+01	
			         1.08667	3.70000e+01	
			         1.08833	3.30000e+01	
			         1.09000	2.90000e+01	
			         1.09167	2.50000e+01	
			         1.09333	2.10000e+01	
			         1.09500	1.70000e+01	
			         1.09667	1.30000e+01	
			         1.09833	9.00000e+00	
			         1.10000	5.00000e+00	
			         1.10167	2.00000e+00	
			         1.10333	-2.00000e+00	
			         1.10500	-6.00000e+00	
			         1.10667	-1.00000e+01	
			         1.10833	-1.40000e+01	
			         1.11000	-1.80000e+01	
			         1.11167	-2.20000e+01	
			         1.11333	-2.60000e+01	
			         1.11500	-3.00000e+01	
			         1.11667	-3.40000e+01	
			         1.11833	-3.80000e+01	
			         1.12000	-4.20000e+01	
			         1.12167	-4.50000e+01	
			         1.12333	-4.80000e+01	
			         1.12500	-5.10000e+01	
			         1.12667	-5.40000e+01	
			         1.12833	-5.70000e+01	
			         1.13000	-5.90000e+01	
			         1.13167	-6.10000e+01	
			         1.13333	-6.30000e+01	
			         1.13500	-6.40000e+01	
			         1.13667	-6.50000e+01	
			         1.13833	-6.70000e+01	
			         1.14000	-6.80000e+01	
			         1.14167	-6.90000e+01	
			         1.14333	-7.00000e+01	
			         1.14500	-7.00000e+01	
			         1.14667	-7.10000e+01	
			         1.14833	-7.10000e+01	
			         1.15000	-7.20000e+01	
			         1.15167	-7.20000e+01	
			         1.15333	-7.10000e+01	
			         1.15500	-7.10000e+01	
			         1.15667	-7.00000e+01	
			         1.15833	-6.90000e+01	
			         1.16000	-6.80000e+01	
			         1.16167	-6.70000e+01	
			         1.16333	-6.60000e+01	
			         1.16500	-6.40000e+01	
			         1.16667	-6.30000e+01	
			         1.16833	-6.10000e+01	
			         1.17000	-6.00000e+01	
			         1.17167	-5.90000e+01	
			         1.17333	-5.70000e+01	
			         1.17500	-5.60000e+01	
			         1.17667	-5.50000e+01	
			         1.17833	-5.40000e+01	
			         1.18000	-5.30000e+01	
			         1.18167	-5.20000e+01	
			         1.18333	-5.10000e+01	
			         1.18500	-5.10000e+01	
			         1.18667	-5.00000e+01	
			         1.18833	-5.00000e+01	
			         1.19000	-5.00000e+01	
			         1.19167	-5.00000e+01	
			         1.19333	-5.00000e+01	
			         1.19500	-4.90000e+01	
			         1.19667	-4.90000e+01	
			         1.19833	-4.90000e+01	
			         1.20000	-4.80000e+01	
			         1.20167	-4.80000e+01	
			         1.20333	-4.70000e+01	
			         1.20500	-4.60000e+01	
			         1.20667	-4.50000e+01	
			         1.20833	-4.40000e+01	
			         1.21000	-4.30000e+01	
			         1.21167	-4.20000e+01	
			         1.21333	-4.10000e+01	
			         1.21500	-4.00000e+01	
			         1.21667	-3.90000e+01	
			         1.21833	-3.80000e+01	
			         1.22000	-3.70000e+01	
			         1.22167	-3.60000e+01	
			         1.22333	-3.50000e+01	
			         1.22500	-3.40000e+01	
			         1.22667	-3.30000e+01	
			         1.22833	-3.30000e+01	
			         1.23000	-3.20000e+01	
			         1.23167	-3.10000e+01	
			         1.23333	-3.10000e+01	
			         1.23500	-3.00000e+01	
			         1.23667	-2.90000e+01	
			         1.23833	-2.90000e+01	
			         1.24000	-2.80000e+01	
			         1.24167	-2.70000e+01	
			         1.24333	-2.60000e+01	
			         1.24500	-2.50000e+01	
			         1.24667	-2.50000e+01	
			         1.24833	-2.40000e+01	
			         1.25000	-2.30000e+01	
			         1.25167	-2.20000e+01	
			         1.25333	-2.10000e+01	
			         1.25500	-2.00000e+01	
			         1.25667	-1.90000e+01	
			         1.25833	-1.80000e+01	
			         1.26000	-1.70000e+01	
			         1.26167	-1.70000e+01	
			         1.26333	-1.60000e+01	
			         1.26500	-1.50000e+01	
			         1.26667	-1.40000e+01	
			         1.26833	-1.30000e+01	
			         1.27000	-1.20000e+01	
			         1.27167	-1.10000e+01	
			         1.27333	-1.00000e+01	
			         1.27500	-9.00000e+00	
			         1.27667	-8.00000e+00	
			         1.27833	-7.00000e+00	
			         1.28000	-6.00000e+00	
			         1.28167	-5.00000e+00	
			         1.28333	-5.00000e+00	
			         1.28500	-5.00000e+00	
			         1.28667	-5.00000e+00	
			         1.28833	-5.00000e+00	
			         1.29000	-5.00000e+00	
			         1.29167	-5.00000e+00	
			         1.29333	-5.00000e+00	
			         1.29500	-6.00000e+00	
			         1.29667	-6.00000e+00	
			         1.29833	-6.00000e+00	
			         1.30000	-6.00000e+00	
			         1.30167	-5.00000e+00	
			         1.30333	-5.00000e+00	
			         1.30500	-4.00000e+00	
			         1.30667	-4.00000e+00	
			         1.30833	-3.00000e+00	
			         1.31000	-3.00000e+00	
			         1.31167	-2.00000e+00	
			         1.31333	-2.00000e+00	
			         1.31500	-2.00000e+00	
			         1.31667	-1.00000e+00	
			         1.31833	-1.00000e+00	
			         1.32000	-1.00000e+00	
			         1.32167	-1.00000e+00	
			         1.32333	-1.00000e+00	
			         1.32500	-1.00000e+00	
			         1.32667	-1.00000e+00	
			         1.32833	-1.00000e+00	
			         1.33000	-1.00000e+00	
			         1.33167	-1.00000e+00	
			         1.33333	-1.00000e+00	
			         1.33500	-1.00000e+00	
			         1.33667	-1.00000e+00	
			         1.33833	-1.00000e+00	
			         1.34000	-2.00000e+00	
			         1.34167	-2.00000e+00	
			         1.34333	-2.00000e+00	
			         1.34500	-3.00000e+00	
			         1.34667	-3.00000e+00	
			         1.34833	-4.00000e+00	
			         1.35000	-4.00000e+00	
			         1.35167	-5.00000e+00	
			         1.35333	-5.00000e+00	
			         1.35500	-6.00000e+00	
			         1.35667	-6.00000e+00	
			         1.35833	-7.00000e+00	
			         1.36000	-7.00000e+00	
			         1.36167	-7.00000e+00	
			         1.36333	-7.00000e+00	
			         1.36500	-7.00000e+00	
			         1.36667	-7.00000e+00	
			         1.36833	-7.00000e+00	
			         1.37000	-7.00000e+00	
			         1.37167	-6.00000e+00	
			         1.37333	-6.00000e+00	
			         1.37500	-6.00000e+00	
			         1.37667	-6.00000e+00	
			         1.37833	-6.00000e+00	
			         1.38000	-6.00000e+00	
			         1.38167	-6.00000e+00	
			         1.38333	-6.00000e+00	
			         1.38500	-6.00000e+00	
			         1.38667	-6.00000e+00	
			         1.38833	-6.00000e+00	
			         1.39000	-6.00000e+00	
			         1.39167	-5.00000e+00	
			         1.39333	-5.00000e+00	
			         1.39500	-5.00000e+00	
			         1.39667	-5.00000e+00	
			         1.39833	-4.00000e+00	
			         1.40000	-4.00000e+00	
			         1.40167	-4.00000e+00	
			         1.40333	-3.00000e+00	
			         1.40500	-3.00000e+00	
			         1.40667	-3.00000e+00	
			         1.40833	-4.00000e+00	
			         1.41000	-4.00000e+00	
			         1.41167	-4.00000e+00	
			         1.41333	-5.00000e+00	
			         1.41500	-5.00000e+00	
			         1.41667	-5.00000e+00	
			         1.41833	-5.00000e+00	
			         1.42000	-5.00000e+00	
			         1.42167	-4.00000e+00	
			         1.42333	-4.00000e+00	
			         1.42500	-3.00000e+00	
			         1.42667	-2.00000e+00	
			         1.42833	-1.00000e+00	
			         1.43000	0.00000e+00	
			         1.43167	1.00000e+00	
			         1.43333	2.00000e+00	
			         1.43500	4.00000e+00	
			         1.43667	4.00000e+00	
			         1.43833	5.00000e+00	
			         1.44000	6.00000e+00	
			         1.44167	6.00000e+00	
			         1.44333	6.00000e+00	
			         1.44500	7.00000e+00	
			         1.44667	7.00000e+00	
			         1.44833	6.00000e+00	
			         1.45000	6.00000e+00	
			         1.45167	6.00000e+00	
			         1.45333	6.00000e+00	
			         1.45500	6.00000e+00	
			         1.45667	6.00000e+00	
			         1.45833	6.00000e+00	
			         1.46000	6.00000e+00	
			         1.46167	7.00000e+00	
			         1.46333	7.00000e+00	
			         1.46500	8.00000e+00	
			         1.46667	8.00000e+00	
			         1.46833	9.00000e+00	
			         1.47000	9.00000e+00	
			         1.47167	1.00000e+01	
			         1.47333	1.00000e+01	
			         1.47500	1.00000e+01	
			         1.47667	1.10000e+01	
			         1.47833	1.10000e+01	
			         1.48000	1.20000e+01	
			         1.48167	1.20000e+01	
			         1.48333	1.20000e+01	
			         1.48500	1.20000e+01	
			         1.48667	1.20000e+01	
			         1.48833	1.30000e+01	
			         1.49000	1.30000e+01	
			         1.49167	1.40000e+01	
			         1.49333	1.50000e+01	
			         1.49500	1.50000e+01	
			         1.49667	1.60000e+01	
			         1.49833	1.70000e+01	
			         1.50000	1.80000e+01	
			         1.50167	1.80000e+01	
			         1.50333	1.90000e+01	
			         1.50500	2.00000e+01	
			         1.50667	2.00000e+01	
			         1.50833	2.00000e+01	
			         1.51000	1.90000e+01	
			         1.51167	1.80000e+01	
			         1.51333	1.70000e+01	
			         1.51500	1.50000e+01	
			         1.51667	1.30000e+01	
			         1.51833	1.00000e+01	
			         1.52000	8.00000e+00	
			         1.52167	5.00000e+00	
			         1.52333	2.00000e+00	
			         1.52500	0.00000e+00	
			         1.52667	-3.00000e+00	
			         1.52833	-5.00000e+00	
			         1.53000	-8.00000e+00	
			         1.53167	-1.00000e+01	
			         1.53333	-1.10000e+01	
			         1.53500	-1.20000e+01	
			         1.53667	-1.30000e+01	
			         1.53833	-1.40000e+01	
			         1.54000	-1.40000e+01	
			         1.54167	-1.40000e+01	
			         1.54333	-1.50000e+01	
			         1.54500	-1.50000e+01	
			         1.54667	-1.60000e+01	
			         1.54833	-1.60000e+01	
			         1.55000	-1.60000e+01	
			         1.55167	-1.60000e+01	
			         1.55333	-1.60000e+01	
			         1.55500	-1.70000e+01	
			         1.55667	-1.70000e+01	
			         1.55833	-1.70000e+01	
			         1.56000	-1.70000e+01	
			         1.56167	-1.80000e+01	
			         1.56333	-1.80000e+01	
			         1.56500	-1.80000e+01	
			         1.56667	-1.80000e+01	
			         1.56833	-1.80000e+01	
			         1.57000	-1.80000e+01	
			         1.57167	-1.80000e+01	
			         1.57333	-1.80000e+01	
			         1.57500	-1.80000e+01	
			         1.57667	-1.80000e+01	
			         1.57833	-1.70000e+01	
			         1.58000	-1.70000e+01	
			         1.58167	-1.60000e+01	
			         1.58333	-1.60000e+01	
			         1.58500	-1.50000e+01	
			         1.58667	-1.30000e+01	
			         1.58833	-1.20000e+01	
			         1.59000	-1.10000e+01	
			         1.59167	-1.00000e+01	
			         1.59333	-9.00000e+00	
			         1.59500	-8.00000e+00	
			         1.59667	-7.00000e+00	
			         1.59833	-7.00000e+00	
			         1.60000	-6.00000e+00	
			         1.60167	-6.00000e+00	
			         1.60333	-6.00000e+00	
			         1.60500	-6.00000e+00	
			         1.60667	-6.00000e+00	
			         1.60833	-6.00000e+00	
			         1.61000	-6.00000e+00	
			         1.61167	-6.00000e+00	
			         1.61333	-6.00000e+00	
			         1.61500	-5.00000e+00	
			         1.61667	-5.00000e+00	
			         1.61833	-3.00000e+00	
			         1.62000	-1.00000e+00	
			         1.62167	2.00000e+00	
			         1.62333	8.00000e+00	
			         1.62500	1.50000e+01	
			         1.62667	2.50000e+01	
			         1.62833	3.80000e+01	
			         1.63000	5.50000e+01	
			         1.63167	7.40000e+01	
			         1.63333	9.60000e+01	
			         1.63500	1.21000e+02	
			         1.63667	1.47000e+02	
			         1.63833	1.74000e+02	
			         1.64000	1.99000e+02	
			         1.64167	2.21000e+02	
			         1.64333	2.39000e+02	
			         1.64500	2.50000e+02	
			         1.64667	2.54000e+02	
			         1.64833	2.52000e+02	
			         1.65000	2.42000e+02	
			         1.65167	2.25000e+02	
			         1.65333	2.02000e+02	
			         1.65500	1.74000e+02	
			         1.65667	1.41000e+02	
			         1.65833	1.06000e+02	
			         1.66000	7.10000e+01	
			         1.66167	3.60000e+01	
			         1.66333	4.00000e+00	
			         1.66500	-2.40000e+01	
			         1.66667	-4.70000e+01	
			         1.66833	-6.60000e+01	
			         1.67000	-8.00000e+01	
			         1.67167	-9.00000e+01	
			         1.67333	-9.60000e+01	
			         1.67500	-9.90000e+01	
			         1.67667	-9.90000e+01	
			         1.67833	-9.70000e+01	
			         1.68000	-9.30000e+01	
			         1.68167	-8.80000e+01	
			         1.68333	-8.20000e+01	
			         1.68500	-7.60000e+01	
			         1.68667	-7.00000e+01	
			         1.68833	-6.40000e+01	
			         1.69000	-5.80000e+01	
			         1.69167	-5.30000e+01	
			         1.69333	-4.80000e+01	
			         1.69500	-4.30000e+01	
			         1.69667	-3.90000e+01	
			         1.69833	-3.60000e+01	
			         1.70000	-3.30000e+01	
			         1.70167	-3.00000e+01	
			         1.70333	-2.80000e+01	
			         1.70500	-2.70000e+01	
			         1.70667	-2.50000e+01	
			         1.70833	-2.40000e+01	
			         1.71000	-2.40000e+01	
			         1.71167	-2.30000e+01	
			         1.71333	-2.30000e+01	
			         1.71500	-2.30000e+01	
			         1.71667	-2.20000e+01	
			         1.71833	-2.20000e+01	
			         1.72000	-2.10000e+01	
			         1.72167	-2.10000e+01	
			         1.72333	-2.00000e+01	
			         1.72500	-2.00000e+01	
			         1.72667	-2.00000e+01	
			         1.72833	-2.00000e+01	
			         1.73000	-2.00000e+01	
			         1.73167	-2.00000e+01	
			         1.73333	-1.90000e+01	
			         1.73500	-1.90000e+01	
			         1.73667	-1.90000e+01	
			         1.73833	-1.80000e+01	
			         1.74000	-1.80000e+01	
			         1.74167	-1.70000e+01	
			         1.74333	-1.60000e+01	
			         1.74500	-1.60000e+01	
			         1.74667	-1.50000e+01	
			         1.74833	-1.40000e+01	
			         1.75000	-1.30000e+01	
			         1.75167	-1.20000e+01	
			         1.75333	-1.10000e+01	
			         1.75500	-1.00000e+01	
			         1.75667	-9.00000e+00	
			         1.75833	-9.00000e+00	
			         1.76000	-8.00000e+00	
			         1.76167	-8.00000e+00	
			         1.76333	-7.00000e+00	
			         1.76500	-7.00000e+00	
			         1.76667	-7.00000e+00	
			         1.76833	-6.00000e+00	
			         1.77000	-6.00000e+00	
			         1.77167	-6.00000e+00	
			         1.77333	-6.00000e+00	
			         1.77500	-6.00000e+00	
			         1.77667	-6.00000e+00	
			         1.77833	-5.00000e+00	
			         1.78000	-5.00000e+00	
			         1.78167	-5.00000e+00	
			         1.78333	-4.00000e+00	
			         1.78500	-4.00000e+00	
			         1.78667	-3.00000e+00	
			         1.78833	-2.00000e+00	
			         1.79000	-1.00000e+00	
			         1.79167	0.00000e+00	
			         1.79333	1.00000e+00	
			         1.79500	3.00000e+00	
			         1.79667	4.00000e+00	
			         1.79833	4.00000e+00	
			         1.80000	5.00000e+00	
			         1.80167	6.00000e+00	
			         1.80333	6.00000e+00	
			         1.80500	7.00000e+00	
			         1.80667	7.00000e+00	
			         1.80833	7.00000e+00	
			         1.81000	7.00000e+00	
			         1.81167	7.00000e+00	
			         1.81333	7.00000e+00	
			         1.81500	7.00000e+00	
			         1.81667	7.00000e+00	
			         1.81833	7.00000e+00	
			         1.82000	8.00000e+00	
			         1.82167	8.00000e+00	
			         1.82333	9.00000e+00	
			         1.82500	9.00000e+00	
			         1.82667	1.00000e+01	
			         1.82833	1.10000e+01	
			         1.83000	1.20000e+01	
			         1.83167	1.30000e+01	
			         1.83333	1.40000e+01	
			         1.83500	1.40000e+01	
			         1.83667	1.50000e+01	
			         1.83833	1.60000e+01	
			         1.84000	1.70000e+01	
			         1.84167	1.70000e+01	
			         1.84333	1.80000e+01	
			         1.84500	1.90000e+01	
			         1.84667	1.90000e+01	
			         1.84833	2.00000e+01	
			         1.85000	2.00000e+01	
			         1.85167	2.10000e+01	
			         1.85333	2.10000e+01	
			         1.85500	2.20000e+01	
			         1.85667	2.20000e+01	
			         1.85833	2.20000e+01	
			         1.86000	2.30000e+01	
			         1.86167	2.30000e+01	
			         1.86333	2.40000e+01	
			         1.86500	2.50000e+01	
			         1.86667	2.60000e+01	
			         1.86833	2.60000e+01	
			         1.87000	2.70000e+01	
			         1.87167	2.80000e+01	
			         1.87333	2.90000e+01	
			         1.87500	3.10000e+01	
			         1.87667	3.20000e+01	
			         1.87833	3.40000e+01	
			         1.88000	3.50000e+01	
			         1.88167	3.70000e+01	
			         1.88333	3.90000e+01	
			         1.88500	4.00000e+01	
			         1.88667	4.20000e+01	
			         1.88833	4.30000e+01	
			         1.89000	4.40000e+01	
			         1.89167	4.60000e+01	
			         1.89333	4.70000e+01	
			         1.89500	4.80000e+01	
			         1.89667	4.90000e+01	
			         1.89833	5.10000e+01	
			         1.90000	5.20000e+01	
			         1.90167	5.30000e+01	
			         1.90333	5.40000e+01	
			         1.90500	5.50000e+01	
			         1.90667	5.70000e+01	
			         1.90833	5.80000e+01	
			         1.91000	6.00000e+01	
			         1.91167	6.10000e+01	
			         1.91333	6.30000e+01	
			         1.91500	6.40000e+01	
			         1.91667	6.50000e+01	
			         1.91833	6.50000e+01	
			         1.92000	6.60000e+01	
			         1.92167	6.60000e+01	
			         1.92333	6.60000e+01	
			         1.92500	6.50000e+01	
			         1.92667	6.50000e+01	
			         1.92833	6.40000e+01	
			         1.93000	6.30000e+01	
			         1.93167	6.20000e+01	
			         1.93333	6.10000e+01	
			         1.93500	5.90000e+01	
			         1.93667	5.70000e+01	
			         1.93833	5.50000e+01	
			         1.94000	5.30000e+01	
			         1.94167	5.00000e+01	
			         1.94333	4.80000e+01	
			         1.94500	4.50000e+01	
			         1.94667	4.30000e+01	
			         1.94833	4.00000e+01	
			         1.95000	3.70000e+01	
			         1.95167	3.40000e+01	
			         1.95333	3.00000e+01	
			         1.95500	2.60000e+01	
			         1.95667	2.20000e+01	
			         1.95833	1.80000e+01	
			         1.96000	1.40000e+01	
			         1.96167	9.00000e+00	
			         1.96333	5.00000e+00	
			         1.96500	0.00000e+00	
			         1.96667	-5.00000e+00	
			         1.96833	-1.00000e+01	
			         1.97000	-1.50000e+01	
			         1.97167	-2.00000e+01	
			         1.97333	-2.50000e+01	
			         1.97500	-2.90000e+01	
			         1.97667	-3.30000e+01	
			         1.97833	-3.70000e+01	
			         1.98000	-4.00000e+01	
			         1.98167	-4.40000e+01	
			         1.98333	-4.70000e+01	
			         1.98500	-5.00000e+01	
			         1.98667	-5.20000e+01	
			         1.98833	-5.50000e+01	
			         1.99000	-5.70000e+01	
			         1.99167	-5.90000e+01	
			         1.99333	-6.10000e+01	
			         1.99500	-6.20000e+01	
			         1.99667	-6.30000e+01	
			         1.99833	-6.40000e+01	
			         2.00000	-6.50000e+01	
			         2.00167	-6.60000e+01	
			         2.00333	-6.60000e+01	
			         2.00500	-6.60000e+01	
			         2.00667	-6.60000e+01	
			         2.00833	-6.50000e+01	
			         2.01000	-6.50000e+01	
			         2.01167	-6.40000e+01	
			         2.01333	-6.40000e+01	
			         2.01500	-6.30000e+01	
			         2.01667	-6.20000e+01	
			         2.01833	-6.10000e+01	
			         2.02000	-6.10000e+01	
			         2.02167	-6.00000e+01	
			         2.02333	-6.00000e+01	
			         2.02500	-5.90000e+01	
			         2.02667	-5.80000e+01	
			         2.02833	-5.80000e+01	
			         2.03000	-5.70000e+01	
			         2.03167	-5.70000e+01	
			         2.03333	-5.60000e+01	
			         2.03500	-5.60000e+01	
			         2.03667	-5.50000e+01	
			         2.03833	-5.50000e+01	
			         2.04000	-5.40000e+01	
			         2.04167	-5.30000e+01	
			         2.04333	-5.30000e+01	
			         2.04500	-5.20000e+01	
			         2.04667	-5.10000e+01	
			         2.04833	-5.00000e+01	
			         2.05000	-5.00000e+01	
			         2.05167	-4.90000e+01	
			         2.05333	-4.80000e+01	
			         2.05500	-4.70000e+01	
			         2.05667	-4.70000e+01	
			         2.05833	-4.60000e+01	
			         2.06000	-4.50000e+01	
			         2.06167	-4.40000e+01	
			         2.06333	-4.30000e+01	
			         2.06500	-4.30000e+01	
			         2.06667	-4.20000e+01	
			         2.06833	-4.10000e+01	
			         2.07000	-4.00000e+01	
			         2.07167	-3.90000e+01	
			         2.07333	-3.90000e+01	
			         2.07500	-3.80000e+01	
			         2.07667	-3.70000e+01	
			         2.07833	-3.70000e+01	
			         2.08000	-3.70000e+01	
			         2.08167	-3.60000e+01	
			         2.08333	-3.60000e+01	
			         2.08500	-3.60000e+01	
			         2.08667	-3.60000e+01	
			         2.08833	-3.60000e+01	
			         2.09000	-3.60000e+01	
			         2.09167	-3.50000e+01	
			         2.09333	-3.50000e+01	
			         2.09500	-3.50000e+01	
			         2.09667	-3.40000e+01	
			         2.09833	-3.30000e+01	
			         2.10000	-3.30000e+01	
			         2.10167	-3.20000e+01	
			         2.10333	-3.10000e+01	
			         2.10500	-3.00000e+01	
			         2.10667	-2.90000e+01	
			         2.10833	-2.80000e+01	
			         2.11000	-2.70000e+01	
			         2.11167	-2.60000e+01	
			         2.11333	-2.60000e+01	
			         2.11500	-2.50000e+01	
			         2.11667	-2.50000e+01	
			         2.11833	-2.40000e+01	
			         2.12000	-2.30000e+01	
			         2.12167	-2.20000e+01	
			         2.12333	-2.10000e+01	
			         2.12500	-2.00000e+01	
			         2.12667	-1.90000e+01	
			         2.12833	-1.80000e+01	
			         2.13000	-1.70000e+01	
			         2.13167	-1.50000e+01	
			         2.13333	-1.40000e+01	
			         2.13500	-1.20000e+01	
			         2.13667	-1.10000e+01	
			         2.13833	-9.00000e+00	
			         2.14000	-8.00000e+00	
			         2.14167	-6.00000e+00	
			         2.14333	-5.00000e+00	
			         2.14500	-4.00000e+00	
			         2.14667	-3.00000e+00	
			         2.14833	-2.00000e+00	
			         2.15000	-1.00000e+00	
			         2.15167	0.00000e+00	
			         2.15333	0.00000e+00	
			         2.15500	1.00000e+00	
			         2.15667	1.00000e+00	
			         2.15833	1.00000e+00	
			         2.16000	1.00000e+00	
			         2.16167	1.00000e+00	
			         2.16333	1.00000e+00	
			         2.16500	1.00000e+00	
			         2.16667	0.00000e+00	
			         2.16833	0.00000e+00	
			         2.17000	0.00000e+00	
			         2.17167	-1.00000e+00	
			         2.17333	-1.00000e+00	
			         2.17500	-1.00000e+00	
			         2.17667	-1.00000e+00	
			         2.17833	-2.00000e+00	
			         2.18000	-2.00000e+00	
			         2.18167	-1.00000e+00	
			         2.18333	-1.00000e+00	
			         2.18500	-1.00000e+00	
			         2.18667	-1.00000e+00	
			         2.18833	-1.00000e+00	
			         2.19000	-1.00000e+00	
			         2.19167	-1.00000e+00	
			         2.19333	-1.00000e+00	
			         2.19500	-1.00000e+00	
			         2.19667	-1.00000e+00	
			         2.19833	-1.00000e+00	
			         2.20000	-2.00000e+00	
			         2.20167	-2.00000e+00	
			         2.20333	-2.00000e+00	
			         2.20500	-2.00000e+00	
			         2.20667	-2.00000e+00	
			         2.20833	-3.00000e+00	
			         2.21000	-3.00000e+00	
			         2.21167	-2.00000e+00	
			         2.21333	-2.00000e+00	
			         2.21500	-2.00000e+00	
			         2.21667	-2.00000e+00	
			         2.21833	-2.00000e+00	
			         2.22000	-2.00000e+00	
			         2.22167	-2.00000e+00	
			         2.22333	-2.00000e+00	
			         2.22500	-2.00000e+00	
			         2.22667	-2.00000e+00	
			         2.22833	-2.00000e+00	
			         2.23000	-2.00000e+00	
			         2.23167	-2.00000e+00	
			         2.23333	-3.00000e+00	
			         2.23500	-3.00000e+00	
			         2.23667	-3.00000e+00	
			         2.23833	-4.00000e+00	
			         2.24000	-4.00000e+00	
			         2.24167	-3.00000e+00	
			         2.24333	-3.00000e+00	
			         2.24500	-3.00000e+00	
			         2.24667	-3.00000e+00	
			         2.24833	-3.00000e+00	
			         2.25000	-3.00000e+00	
			         2.25167	-3.00000e+00	
			         2.25333	-2.00000e+00	
			         2.25500	-2.00000e+00	
			         2.25667	-2.00000e+00	
			         2.25833	-2.00000e+00	
			         2.26000	-2.00000e+00	
			         2.26167	-2.00000e+00	
			         2.26333	-2.00000e+00	
			         2.26500	-3.00000e+00	
			         2.26667	-3.00000e+00	
			         2.26833	-3.00000e+00	
			         2.27000	-3.00000e+00	
			         2.27167	-3.00000e+00	
			         2.27333	-3.00000e+00	
			         2.27500	-3.00000e+00	
			         2.27667	-3.00000e+00	
			         2.27833	-3.00000e+00	
			         2.28000	-3.00000e+00	
			         2.28167	-3.00000e+00	
			         2.28333	-3.00000e+00	
			         2.28500	-4.00000e+00	
			         2.28667	-3.00000e+00	
			         2.28833	-3.00000e+00	
			         2.29000	-3.00000e+00	
			         2.29167	-2.00000e+00	
			         2.29333	-2.00000e+00	
			         2.29500	-1.00000e+00	
			         2.29667	0.00000e+00	
			         2.29833	0.00000e+00	
			         2.30000	1.00000e+00	
			         2.30167	2.00000e+00	
			         2.30333	4.00000e+00	
			         2.30500	5.00000e+00	
			         2.30667	6.00000e+00	
			         2.30833	7.00000e+00	
			         2.31000	8.00000e+00	
			         2.31167	9.00000e+00	
			         2.31333	9.00000e+00	
			         2.31500	1.00000e+01	
			         2.31667	1.00000e+01	
			         2.31833	1.10000e+01	
			         2.32000	1.10000e+01	
			         2.32167	1.10000e+01	
			         2.32333	1.10000e+01	
			         2.32500	1.10000e+01	
			         2.32667	1.10000e+01	
			         2.32833	1.10000e+01	
			         2.33000	1.10000e+01	
			         2.33167	1.10000e+01	
			         2.33333	1.10000e+01	
			         2.33500	1.10000e+01	
			         2.33667	1.10000e+01	
			         2.33833	1.10000e+01	
			         2.34000	1.10000e+01	
			         2.34167	1.00000e+01	
			         2.34333	1.00000e+01	
			         2.34500	1.00000e+01	
			         2.34667	1.00000e+01	
			         2.34833	9.00000e+00	
			         2.35000	9.00000e+00	
			         2.35167	9.00000e+00	
			         2.35333	9.00000e+00	
			         2.35500	8.00000e+00	
			         2.35667	9.00000e+00	
			         2.35833	9.00000e+00	
			         2.36000	9.00000e+00	
			         2.36167	1.00000e+01	
			         2.36333	1.00000e+01	
			         2.36500	1.10000e+01	
			         2.36667	1.20000e+01	
			         2.36833	1.20000e+01	
			         2.37000	1.20000e+01	
			         2.37167	1.20000e+01	
			         2.37333	1.10000e+01	
			         2.37500	1.00000e+01	
			         2.37667	8.00000e+00	
			         2.37833	6.00000e+00	
			         2.38000	4.00000e+00	
			         2.38167	2.00000e+00	
			         2.38333	-1.00000e+00	
			         2.38500	-4.00000e+00	
			         2.38667	-7.00000e+00	
			         2.38833	-1.00000e+01	
			         2.39000	-1.20000e+01	
			         2.39167	-1.40000e+01	
			         2.39333	-1.50000e+01	
			         2.39500	-1.60000e+01	
			         2.39667	-1.60000e+01	
			         2.39833	-1.70000e+01	
			         2.40000	-1.70000e+01	
			         2.40167	-1.60000e+01	
			         2.40333	-1.60000e+01	
			         2.40500	-1.60000e+01	
			         2.40667	-1.50000e+01	
			         2.40833	-1.50000e+01	
			         2.41000	-1.50000e+01	
			         2.41167	-1.50000e+01	
			         2.41333	-1.60000e+01	
			         2.41500	-1.60000e+01	
			         2.41667	-1.70000e+01	
			         2.41833	-1.70000e+01	
			         2.42000	-1.80000e+01	
			         2.42167	-1.80000e+01	
			         2.42333	-1.80000e+01	
			         2.42500	-1.80000e+01	
			         2.42667	-1.80000e+01	
			         2.42833	-1.80000e+01	
			         2.43000	-1.70000e+01	
			         2.43167	-1.70000e+01	
			         2.43333	-1.60000e+01	
			         2.43500	-1.50000e+01	
			         2.43667	-1.40000e+01	
			         2.43833	-1.30000e+01	
			         2.44000	-1.20000e+01	
			         2.44167	-1.20000e+01	
			         2.44333	-1.10000e+01	
			         2.44500	-1.10000e+01	
			         2.44667	-1.00000e+01	
			         2.44833	-1.00000e+01	
			         2.45000	-1.00000e+01	
			         2.45167	-1.00000e+01	
			         2.45333	-1.00000e+01	
			         2.45500	-1.10000e+01	
			         2.45667	-1.10000e+01	
			         2.45833	-1.10000e+01	
			         2.46000	-1.10000e+01	
			         2.46167	-1.00000e+01	
			         2.46333	-1.00000e+01	
			         2.46500	-1.00000e+01	
			         2.46667	-9.00000e+00	
			         2.46833	-8.00000e+00	
			         2.47000	-8.00000e+00	
			         2.47167	-7.00000e+00	
			         2.47333	-6.00000e+00	
			         2.47500	-6.00000e+00	
			         2.47667	-5.00000e+00	
			         2.47833	-3.00000e+00	
			         2.48000	-1.00000e+00	
			         2.48167	3.00000e+00	
			         2.48333	8.00000e+00	
			         2.48500	1.50000e+01	
			         2.48667	2.50000e+01	
			         2.48833	3.80000e+01	
			         2.49000	5.30000e+01	
			         2.49167	7.20000e+01	
			         2.49333	9.50000e+01	
			         2.49500	1.19000e+02	
			         2.49667	1.46000e+02	
			         2.49833	1.73000e+02	
			         2.50000	1.98000e+02	
			         2.50167	2.21000e+02	
			         2.50333	2.40000e+02	
			         2.50500	2.52000e+02	
			         2.50667	2.58000e+02	
			         2.50833	2.56000e+02	
			         2.51000	2.47000e+02	
			         2.51167	2.31000e+02	
			         2.51333	2.08000e+02	
			         2.51500	1.79000e+02	
			         2.51667	1.46000e+02	
			         2.51833	1.10000e+02	
			         2.52000	7.40000e+01	
			         2.52167	3.90000e+01	
			         2.52333	6.00000e+00	
			         2.52500	-2.30000e+01	
			         2.52667	-4.80000e+01	
			         2.52833	-6.70000e+01	
			         2.53000	-8.20000e+01	
			         2.53167	-9.20000e+01	
			         2.53333	-9.70000e+01	
			         2.53500	-9.90000e+01	
			         2.53667	-9.80000e+01	
			         2.53833	-9.50000e+01	
			         2.54000	-9.00000e+01	
			         2.54167	-8.50000e+01	
			         2.54333	-7.80000e+01	
			         2.54500	-7.20000e+01	
			         2.54667	-6.50000e+01	
			         2.54833	-5.90000e+01	
			         2.55000	-5.30000e+01	
			         2.55167	-4.80000e+01	
			         2.55333	-4.30000e+01	
			         2.55500	-3.90000e+01	
			         2.55667	-3.60000e+01	
			         2.55833	-3.30000e+01	
