Velocity (TVI), in cm/s

Time (s) :	Trace 1 : 		Ecg : 		
0.01858   	4.33773e+00		         0.00000	8.70000e+01	
0.02854   	4.03246e+00		         0.00167	7.40000e+01	
0.03833   	1.91925e+00		         0.00333	5.80000e+01	
0.04821   	-1.39815e+00		         0.00500	3.90000e+01	
0.05809   	-3.95007e+00		         0.00667	1.90000e+01	
0.06797   	-1.67802e+00		         0.00833	-3.00000e+00	
0.07793   	1.63243e+00		         0.01000	-2.50000e+01	
0.08773   	4.83673e+00		         0.01167	-4.70000e+01	
0.09760   	5.34479e+00		         0.01333	-6.70000e+01	
0.10748   	5.35075e+00		         0.01500	-8.60000e+01	
0.11736   	5.43830e+00		         0.01667	-1.01000e+02	
0.12724   	5.71137e+00		         0.01833	-1.14000e+02	
0.13712   	5.66352e+00		         0.02000	-1.23000e+02	
0.14699   	5.65258e+00		         0.02167	-1.29000e+02	
0.15688   	5.34838e+00		         0.02333	-1.32000e+02	
0.16676   	5.54438e+00		         0.02500	-1.31000e+02	
0.17663   	5.34273e+00		         0.02667	-1.27000e+02	
0.18651   	5.35718e+00		         0.02833	-1.21000e+02	
0.19639   	5.38765e+00		         0.03000	-1.13000e+02	
0.20627   	5.27585e+00		         0.03167	-1.02000e+02	
0.21615   	5.27057e+00		         0.03333	-9.10000e+01	
0.22602   	4.69953e+00		         0.03500	-7.80000e+01	
0.23590   	4.74854e+00		         0.03667	-6.60000e+01	
0.24579   	4.60229e+00		         0.03833	-5.40000e+01	
0.25566   	4.48600e+00		         0.04000	-4.20000e+01	
0.26554   	3.98296e+00		         0.04167	-3.10000e+01	
0.27542   	3.46276e+00		         0.04333	-2.10000e+01	
0.28530   	3.31386e+00		         0.04500	-1.20000e+01	
0.29517   	3.03307e+00		         0.04667	-4.00000e+00	
0.30506   	2.68756e+00		         0.04833	2.00000e+00	
0.31493   	2.14940e+00		         0.05000	8.00000e+00	
0.32481   	1.97067e+00		         0.05167	1.30000e+01	
0.33469   	1.83934e+00		         0.05333	1.70000e+01	
0.34457   	1.60360e+00		         0.05500	2.10000e+01	
0.35445   	8.53214e-01		         0.05667	2.30000e+01	
0.36433   	-4.99554e-01		         0.05833	2.50000e+01	
0.37420   	-1.34175e+00		         0.06000	2.50000e+01	
0.38408   	-6.78654e-01		         0.06167	2.60000e+01	
0.39396   	8.69867e-01		         0.06333	2.50000e+01	
0.40384   	2.14449e+00		         0.06500	2.50000e+01	
0.41372   	2.49705e+00		         0.06667	2.40000e+01	
0.42360   	2.77793e+00		         0.06833	2.30000e+01	
0.43348   	3.12356e+00		         0.07000	2.10000e+01	
0.44336   	3.00079e+00		         0.07167	2.00000e+01	
0.45323   	2.44688e+00		         0.07333	1.90000e+01	
0.46311   	1.69413e+00		         0.07500	1.80000e+01	
0.47299   	4.16058e-01		         0.07667	1.80000e+01	
0.48287   	-8.23114e-01		         0.07833	1.70000e+01	
0.49275   	-2.10652e+00		         0.08000	1.70000e+01	
0.50263   	-2.78317e+00		         0.08167	1.60000e+01	
0.51250   	-3.37405e+00		         0.08333	1.60000e+01	
0.52238   	-3.73509e+00		         0.08500	1.50000e+01	
0.53226   	-3.75789e+00		         0.08667	1.40000e+01	
0.54214   	-3.83531e+00		         0.08833	1.40000e+01	
0.55202   	-3.65639e+00		         0.09000	1.40000e+01	
0.56190   	-3.65170e+00		         0.09167	1.40000e+01	
0.57178   	-3.17757e+00		         0.09333	1.40000e+01	
0.58166   	-2.91287e+00		         0.09500	1.50000e+01	
0.59153   	-2.36868e+00		         0.09667	1.50000e+01	
0.60141   	-2.16487e+00		         0.09833	1.60000e+01	
0.61129   	-1.93805e+00		         0.10000	1.60000e+01	
0.62117   	-1.90085e+00		         0.10167	1.70000e+01	
0.63105   	-1.57026e+00		         0.10333	1.80000e+01	
0.64092   	-1.37740e+00		         0.10500	1.80000e+01	
0.65080   	-1.01008e+00		         0.10667	1.90000e+01	
0.66090   	-8.48620e-01		         0.10833	1.90000e+01	
0.67056   	-7.13791e-01		         0.11000	1.80000e+01	
0.68044   	-6.71129e-01		         0.11167	1.70000e+01	
0.69032   	-6.28589e-01		         0.11333	1.50000e+01	
0.70020   	-5.56266e-01		         0.11500	1.30000e+01	
0.71007   	-5.36632e-01		         0.11667	1.10000e+01	
0.71996   	-5.40134e-01		         0.11833	9.00000e+00	
0.72984   	-5.22021e-01		         0.12000	8.00000e+00	
0.73971   	-4.14283e-01		         0.12167	6.00000e+00	
0.74959   	-3.03384e-01		         0.12333	4.00000e+00	
0.75947   	-2.65822e-01		         0.12500	3.00000e+00	
0.76935   	-2.50609e-01		         0.12667	2.00000e+00	
0.77922   	-3.03874e-01		         0.12833	1.00000e+00	
0.78910   	-3.54486e-01		         0.13000	1.00000e+00	
0.79898   	-4.60065e-01		         0.13167	1.00000e+00	
0.80886   	-4.57596e-01		         0.13333	1.00000e+00	
0.81873   	-4.90295e-01		         0.13500	2.00000e+00	
0.82862   	-5.02490e-01		         0.13667	3.00000e+00	
0.83850   	-5.26065e-01		         0.13833	4.00000e+00	
0.84838   	-5.07129e-01		         0.14000	4.00000e+00	
0.85825   	-4.84139e-01		         0.14167	5.00000e+00	
0.86813   	-5.27015e-01		         0.14333	6.00000e+00	
0.87801   	-6.79321e-01		         0.14500	6.00000e+00	
0.88789   	-1.19955e+00		         0.14667	6.00000e+00	
0.89777   	-2.01255e+00		         0.14833	6.00000e+00	
0.90765   	-3.38311e+00		         0.15000	6.00000e+00	
0.91753   	-4.59624e+00		         0.15167	6.00000e+00	
0.92740   	-6.12524e+00		         0.15333	5.00000e+00	
0.93728   	-7.22075e+00		         0.15500	4.00000e+00	
0.94716   	-8.17696e+00		         0.15667	3.00000e+00	
0.95704   	-8.50984e+00		         0.15833	2.00000e+00	
0.96692   	-8.56829e+00		         0.16000	1.00000e+00	
0.97680   	-8.42039e+00		         0.16167	0.00000e+00	
0.98667   	-7.71098e+00		         0.16333	-1.00000e+00	
0.99656   	-6.64436e+00		         0.16500	-2.00000e+00	
1.00643   	-5.48487e+00		         0.16667	-3.00000e+00	
1.01631   	-4.62944e+00		         0.16833	-4.00000e+00	
1.02619   	-4.76858e+00		         0.17000	-5.00000e+00	
1.03607   	-3.29661e+00		         0.17167	-6.00000e+00	
1.04594   	-9.87323e-01		         0.17333	-6.00000e+00	
1.05582   	2.35817e+00		         0.17500	-6.00000e+00	
1.06570   	1.09072e+00		         0.17667	-6.00000e+00	
1.07558   	-1.48576e+00		         0.17833	-6.00000e+00	
1.08546   	-3.74820e+00		         0.18000	-6.00000e+00	
1.09534   	-1.49738e+00		         0.18167	-5.00000e+00	
1.10521   	1.89505e+00		         0.18333	-4.00000e+00	
1.11510   	4.82407e+00		         0.18500	-3.00000e+00	
1.12497   	5.72921e+00		         0.18667	-1.00000e+00	
1.13485   	5.84295e+00		         0.18833	0.00000e+00	
1.14473   	5.57763e+00		         0.19000	1.00000e+00	
1.15461   	5.62888e+00		         0.19167	2.00000e+00	
1.16449   	5.70017e+00		         0.19333	3.00000e+00	
1.17437   	5.66495e+00		         0.19500	3.00000e+00	
1.18425   	5.49376e+00		         0.19667	3.00000e+00	
1.19413   	5.21337e+00		         0.19833	2.00000e+00	
1.20400   	5.13989e+00		         0.20000	2.00000e+00	
1.21389   	5.06968e+00		         0.20167	1.00000e+00	
1.22376   	5.14039e+00		         0.20333	1.00000e+00	
1.23364   	5.12488e+00		         0.20500	0.00000e+00	
1.24352   	5.37385e+00		         0.20667	0.00000e+00	
1.25340   	5.24588e+00		         0.20833	-1.00000e+00	
1.26328   	5.27444e+00		         0.21000	-1.00000e+00	
1.27315   	4.88246e+00		         0.21167	-1.00000e+00	
1.28303   	4.73604e+00		         0.21333	-1.00000e+00	
1.29291   	4.18196e+00		         0.21500	0.00000e+00	
1.30279   	3.72458e+00		         0.21667	1.00000e+00	
1.31267   	3.27098e+00		         0.21833	2.00000e+00	
1.32254   	2.85230e+00		         0.22000	3.00000e+00	
1.33242   	2.50303e+00		         0.22167	4.00000e+00	
1.34230   	2.03559e+00		         0.22333	5.00000e+00	
1.35218   	1.69293e+00		         0.22500	6.00000e+00	
1.36206   	1.40776e+00		         0.22667	7.00000e+00	
1.37194   	9.37997e-01		         0.22833	8.00000e+00	
1.38182   	3.26701e-01		         0.23000	9.00000e+00	
1.39170   	-6.29806e-01		         0.23167	1.00000e+01	
1.40158   	-1.71046e+00		         0.23333	1.10000e+01	
1.41145   	-1.66453e+00		         0.23500	1.20000e+01	
1.42133   	-4.83282e-01		         0.23667	1.30000e+01	
1.43121   	1.07377e+00		         0.23833	1.40000e+01	
1.44109   	1.78753e+00		         0.24000	1.40000e+01	
1.45097   	1.63499e+00		         0.24167	1.50000e+01	
1.46085   	1.63335e+00		         0.24333	1.60000e+01	
1.47073   	1.58582e+00		         0.24500	1.70000e+01	
1.48060   	1.52341e+00		         0.24667	1.80000e+01	
1.49048   	1.15009e+00		         0.24833	1.90000e+01	
1.50036   	2.52655e-01		         0.25000	2.00000e+01	
1.51024   	-8.95878e-01		         0.25167	2.10000e+01	
1.52012   	-1.81112e+00		         0.25333	2.20000e+01	
1.52999   	-2.52628e+00		         0.25500	2.20000e+01	
1.53987   	-2.98060e+00		         0.25667	2.30000e+01	
1.54976   	-3.41839e+00		         0.25833	2.40000e+01	
1.55963   	-3.44242e+00		         0.26000	2.50000e+01	
1.56951   	-3.42443e+00		         0.26167	2.60000e+01	
1.57939   	-3.42773e+00		         0.26333	2.70000e+01	
1.58927   	-3.40236e+00		         0.26500	2.70000e+01	
1.59915   	-3.02007e+00		         0.26667	2.80000e+01	
1.60902   	-2.66925e+00		         0.26833	2.80000e+01	
1.61890   	-2.16937e+00		         0.27000	2.90000e+01	
1.62879   	-2.04862e+00		         0.27167	3.00000e+01	
1.63866   	-1.80380e+00		         0.27333	3.10000e+01	
1.64854   	-1.53824e+00		         0.27500	3.20000e+01	
1.65842   	-1.39068e+00		         0.27667	3.30000e+01	
1.66830   	-1.13811e+00		         0.27833	3.40000e+01	
1.67818   	-1.18858e+00		         0.28000	3.50000e+01	
1.68805   	-1.05080e+00		         0.28167	3.60000e+01	
1.69793   	-1.12299e+00		         0.28333	3.80000e+01	
1.70781   	-8.74487e-01		         0.28500	3.90000e+01	
1.71769   	-7.79944e-01		         0.28667	4.10000e+01	
1.72757   	-7.79751e-01		         0.28833	4.20000e+01	
1.73744   	-8.29034e-01		         0.29000	4.40000e+01	
1.74733   	-8.15603e-01		         0.29167	4.50000e+01	
1.75720   	-6.86782e-01		         0.29333	4.60000e+01	
1.76708   	-7.15815e-01		         0.29500	4.70000e+01	
1.77696   	-7.14945e-01		         0.29667	4.70000e+01	
1.78684   	-7.44820e-01		         0.29833	4.70000e+01	
1.79672   	-7.06559e-01		         0.30000	4.70000e+01	
1.80659   	-6.39776e-01		         0.30167	4.70000e+01	
1.81647   	-5.56384e-01		         0.30333	4.60000e+01	
1.82636   	-5.87394e-01		         0.30500	4.50000e+01	
1.83623   	-7.14803e-01		         0.30667	4.30000e+01	
1.84611   	-7.45490e-01		         0.30833	4.20000e+01	
1.85599   	-7.64140e-01		         0.31000	4.00000e+01	
1.86587   	-7.49733e-01		         0.31167	3.90000e+01	
1.87575   	-1.06483e+00		         0.31333	3.70000e+01	
1.88562   	-1.68276e+00		         0.31500	3.50000e+01	
1.89550   	-2.69735e+00		         0.31667	3.40000e+01	
1.90538   	-3.53982e+00		         0.31833	3.20000e+01	
1.91526   	-4.98173e+00		         0.32000	3.00000e+01	
1.92514   	-6.21199e+00		         0.32167	2.90000e+01	
1.93502   	-7.79190e+00		         0.32333	2.70000e+01	
1.94490   	-8.60855e+00		         0.32500	2.60000e+01	
1.95477   	-9.02058e+00		         0.32667	2.40000e+01	
1.96465   	-8.89264e+00		         0.32833	2.30000e+01	
1.97453   	-8.27932e+00		         0.33000	2.10000e+01	
1.98441   	-7.63552e+00		         0.33167	1.80000e+01	
1.99429   	-6.81148e+00		         0.33333	1.60000e+01	
2.00416   	-5.81334e+00		         0.33500	1.30000e+01	
2.01404   	-5.37082e+00		         0.33667	1.00000e+01	
2.02392   	-3.96432e+00		         0.33833	7.00000e+00	
2.03380   	-1.69776e+00		         0.34000	3.00000e+00	
2.04368   	1.68045e+00		         0.34167	0.00000e+00	
2.05367   	2.49092e+00		         0.34333	-4.00000e+00	
2.06344   	9.50073e-01		         0.34500	-7.00000e+00	
2.07332   	-2.03064e+00		         0.34667	-1.10000e+01	
2.08319   	-4.17035e+00		         0.34833	-1.40000e+01	
2.09307   	-2.92864e+00		         0.35000	-1.70000e+01	
2.10295   	1.89013e-01		         0.35167	-2.00000e+01	
2.11284   	3.32630e+00		         0.35333	-2.20000e+01	
2.12271   	4.41577e+00		         0.35500	-2.30000e+01	
2.13259   	4.54682e+00		         0.35667	-2.40000e+01	
2.14247   	5.24481e+00		         0.35833	-2.50000e+01	
2.15234   	5.43428e+00		         0.36000	-2.50000e+01	
2.16222   	5.44520e+00		         0.36167	-2.60000e+01	
2.17210   	5.20925e+00		         0.36333	-2.70000e+01	
2.18198   	5.26077e+00		         0.36500	-2.80000e+01	
2.19186   	5.17873e+00		         0.36667	-2.90000e+01	
2.20173   	5.34785e+00		         0.36833	-3.00000e+01	
2.21162   	5.28538e+00		         0.37000	-3.20000e+01	
2.22150   	5.29923e+00		         0.37167	-3.30000e+01	
2.23137   	5.10774e+00		         0.37333	-3.40000e+01	
2.24125   	4.62838e+00		         0.37500	-3.50000e+01	
2.25113   	4.33727e+00		         0.37667	-3.70000e+01	
2.26101   	3.98720e+00		         0.37833	-3.80000e+01	
2.27089   	4.27547e+00		         0.38000	-3.80000e+01	
2.28077   	3.98925e+00		         0.38167	-3.90000e+01	
2.29065   	3.71482e+00		         0.38333	-3.90000e+01	
2.30053   	3.21731e+00		         0.38500	-3.80000e+01	
2.31040   	2.81270e+00		         0.38667	-3.70000e+01	
2.32028   	2.54163e+00		         0.38833	-3.60000e+01	
2.33016   	2.24275e+00		         0.39000	-3.50000e+01	
2.34004   	2.04531e+00		         0.39167	-3.50000e+01	
2.34992   	1.66811e+00		         0.39333	-3.40000e+01	
2.35980   	1.33943e+00		         0.39500	-3.40000e+01	
2.36967   	8.90739e-01		         0.39667	-3.40000e+01	
2.37955   	4.16245e-01		         0.39833	-3.40000e+01	
2.38977   	-4.33121e-01		         0.40000	-3.40000e+01	
2.39931   	-2.84977e-01		         0.40167	-3.40000e+01	
2.40919   	6.11250e-01		         0.40333	-3.40000e+01	
2.41907   	1.79227e+00		         0.40500	-3.30000e+01	
2.42895   	2.04480e+00		         0.40667	-3.30000e+01	
2.43883   	2.02054e+00		         0.40833	-3.30000e+01	
2.44870   	1.86801e+00		         0.41000	-3.20000e+01	
2.45858   	1.96562e+00		         0.41167	-3.10000e+01	
2.46876   	1.53311e+00		         0.41333	-3.00000e+01	
2.47834   	1.28390e+00		         0.41500	-2.90000e+01	
2.48821   	3.41937e-01		         0.41667	-2.80000e+01	
2.49810   	-4.69951e-01		         0.41833	-2.60000e+01	
2.50797   	-1.87969e+00		         0.42000	-2.40000e+01	
2.51785   	-2.64492e+00		         0.42167	-2.30000e+01	
2.52773   	-3.46626e+00		         0.42333	-2.10000e+01	
2.53761   	-3.66995e+00		         0.42500	-2.00000e+01	
2.54749   	-3.78657e+00		         0.42667	-1.90000e+01	
2.55737   	-3.76145e+00		         0.42833	-1.90000e+01	
2.56724   	-3.68634e+00		         0.43000	-1.80000e+01	
2.57713   	-3.44083e+00		         0.43167	-1.80000e+01	
2.58700   	-2.97614e+00		         0.43333	-1.80000e+01	
2.59688   	-2.53229e+00		         0.43500	-1.80000e+01	
2.60676   	-2.19356e+00		         0.43667	-1.70000e+01	
2.61664   	-1.95248e+00		         0.43833	-1.60000e+01	
2.62652   	-1.75984e+00		         0.44000	-1.50000e+01	
2.63639   	-1.50702e+00		         0.44167	-1.40000e+01	
2.64628   	-1.39607e+00		         0.44333	-1.30000e+01	
2.65615   	-1.25976e+00		         0.44500	-1.20000e+01	
2.66603   	-1.07991e+00		         0.44667	-1.10000e+01	
2.67591   	-9.29494e-01		         0.44833	-1.00000e+01	
2.68579   	-6.65640e-01		         0.45000	-1.00000e+01	
2.69567   	-6.16684e-01		         0.45167	-1.00000e+01	
2.70555   	-5.40951e-01		         0.45333	-1.00000e+01	
2.71542   	-5.56871e-01		         0.45500	-1.00000e+01	
2.72531   	-5.12897e-01		         0.45667	-1.00000e+01	
2.73518   	-4.46685e-01		         0.45833	-1.10000e+01	
2.74506   	-3.86611e-01		         0.46000	-1.10000e+01	
2.75493   	-3.88485e-01		         0.46167	-1.20000e+01	
2.76482   	-3.48896e-01		         0.46333	-1.10000e+01	
2.77470   	-3.71952e-01		         0.46500	-1.10000e+01	
2.78457   	-3.59242e-01		         0.46667	-1.00000e+01	
2.79445   	-3.53766e-01		         0.46833	-9.00000e+00	
2.80433   	-4.17205e-01		         0.47000	-8.00000e+00	
2.81421   	-4.06800e-01		         0.47167	-6.00000e+00	
2.82409   	-6.22247e-01		         0.47333	-5.00000e+00	
2.83396   	-9.09573e-01		         0.47500	-4.00000e+00	
2.84384   	-1.71095e+00		         0.47667	-3.00000e+00	
2.85372   	-2.60264e+00		         0.47833	-2.00000e+00	
2.86360   	-3.45249e+00		         0.48000	-2.00000e+00	
2.87348   	-4.77881e+00		         0.48167	-2.00000e+00	
2.88363   	-6.05042e+00		         0.48333	-3.00000e+00	
2.89324   	-7.32434e+00		         0.48500	-3.00000e+00	
2.90312   	-7.96937e+00		         0.48667	-4.00000e+00	
2.91300   	-8.36420e+00		         0.48833	-5.00000e+00	
2.92287   	-8.65808e+00		         0.49000	-5.00000e+00	
2.93275   	-8.33921e+00		         0.49167	-6.00000e+00	
2.94263   	-7.64772e+00		         0.49333	-7.00000e+00	
2.95251   	-6.52156e+00		         0.49500	-8.00000e+00	
2.96239   	-5.31280e+00		         0.49667	-9.00000e+00	
2.97227   	-3.97992e+00		         0.49833	-1.00000e+01	
2.98214   	-2.88887e+00		         0.50000	-1.00000e+01	
2.99202   	-1.15086e+00		         0.50167	-1.00000e+01	
3.00190   	1.17909e+00		         0.50333	-1.00000e+01	
3.01178   	2.77386e+00		         0.50500	-1.00000e+01	
			         0.50667	-1.00000e+01	
			         0.50833	-9.00000e+00	
			         0.51000	-8.00000e+00	
			         0.51167	-7.00000e+00	
			         0.51333	-6.00000e+00	
			         0.51500	-4.00000e+00	
			         0.51667	-3.00000e+00	
			         0.51833	-2.00000e+00	
			         0.52000	0.00000e+00	
			         0.52167	0.00000e+00	
			         0.52333	1.00000e+00	
			         0.52500	1.00000e+00	
			         0.52667	2.00000e+00	
			         0.52833	1.00000e+00	
			         0.53000	1.00000e+00	
			         0.53167	1.00000e+00	
			         0.53333	0.00000e+00	
			         0.53500	0.00000e+00	
			         0.53667	-1.00000e+00	
			         0.53833	-2.00000e+00	
			         0.54000	-3.00000e+00	
			         0.54167	-4.00000e+00	
			         0.54333	-4.00000e+00	
			         0.54500	-5.00000e+00	
			         0.54667	-5.00000e+00	
			         0.54833	-5.00000e+00	
			         0.55000	-5.00000e+00	
			         0.55167	-5.00000e+00	
			         0.55333	-5.00000e+00	
			         0.55500	-5.00000e+00	
			         0.55667	-5.00000e+00	
			         0.55833	-5.00000e+00	
			         0.56000	-5.00000e+00	
			         0.56167	-6.00000e+00	
			         0.56333	-7.00000e+00	
			         0.56500	-7.00000e+00	
			         0.56667	-8.00000e+00	
			         0.56833	-9.00000e+00	
			         0.57000	-9.00000e+00	
			         0.57167	-1.00000e+01	
			         0.57333	-1.00000e+01	
			         0.57500	-9.00000e+00	
			         0.57667	-9.00000e+00	
			         0.57833	-8.00000e+00	
			         0.58000	-7.00000e+00	
			         0.58167	-6.00000e+00	
			         0.58333	-5.00000e+00	
			         0.58500	-4.00000e+00	
			         0.58667	-3.00000e+00	
			         0.58833	-3.00000e+00	
			         0.59000	-3.00000e+00	
			         0.59167	-3.00000e+00	
			         0.59333	-4.00000e+00	
			         0.59500	-5.00000e+00	
			         0.59667	-6.00000e+00	
			         0.59833	-7.00000e+00	
			         0.60000	-8.00000e+00	
			         0.60167	-9.00000e+00	
			         0.60333	-1.00000e+01	
			         0.60500	-1.00000e+01	
			         0.60667	-1.10000e+01	
			         0.60833	-1.10000e+01	
			         0.61000	-1.10000e+01	
			         0.61167	-1.10000e+01	
			         0.61333	-1.10000e+01	
			         0.61500	-1.10000e+01	
			         0.61667	-1.00000e+01	
			         0.61833	-9.00000e+00	
			         0.62000	-8.00000e+00	
			         0.62167	-7.00000e+00	
			         0.62333	-5.00000e+00	
			         0.62500	-4.00000e+00	
			         0.62667	-3.00000e+00	
			         0.62833	-3.00000e+00	
			         0.63000	-2.00000e+00	
			         0.63167	-2.00000e+00	
			         0.63333	-2.00000e+00	
			         0.63500	-3.00000e+00	
			         0.63667	-4.00000e+00	
			         0.63833	-5.00000e+00	
			         0.64000	-6.00000e+00	
			         0.64167	-7.00000e+00	
			         0.64333	-8.00000e+00	
			         0.64500	-8.00000e+00	
			         0.64667	-9.00000e+00	
			         0.64833	-9.00000e+00	
			         0.65000	-9.00000e+00	
			         0.65167	-9.00000e+00	
			         0.65333	-9.00000e+00	
			         0.65500	-8.00000e+00	
			         0.65667	-7.00000e+00	
			         0.65833	-6.00000e+00	
			         0.66000	-6.00000e+00	
			         0.66167	-5.00000e+00	
			         0.66333	-6.00000e+00	
			         0.66500	-6.00000e+00	
			         0.66667	-6.00000e+00	
			         0.66833	-6.00000e+00	
			         0.67000	-7.00000e+00	
			         0.67167	-7.00000e+00	
			         0.67333	-8.00000e+00	
			         0.67500	-8.00000e+00	
			         0.67667	-9.00000e+00	
			         0.67833	-9.00000e+00	
			         0.68000	-1.00000e+01	
			         0.68167	-1.00000e+01	
			         0.68333	-1.10000e+01	
			         0.68500	-1.20000e+01	
			         0.68667	-1.20000e+01	
			         0.68833	-1.20000e+01	
			         0.69000	-1.20000e+01	
			         0.69167	-1.20000e+01	
			         0.69333	-1.10000e+01	
			         0.69500	-1.10000e+01	
			         0.69667	-1.00000e+01	
			         0.69833	-9.00000e+00	
			         0.70000	-7.00000e+00	
			         0.70167	-6.00000e+00	
			         0.70333	-5.00000e+00	
			         0.70500	-3.00000e+00	
			         0.70667	-3.00000e+00	
			         0.70833	-2.00000e+00	
			         0.71000	-1.00000e+00	
			         0.71167	-1.00000e+00	
			         0.71333	-1.00000e+00	
			         0.71500	-1.00000e+00	
			         0.71667	-1.00000e+00	
			         0.71833	-1.00000e+00	
			         0.72000	-1.00000e+00	
			         0.72167	-1.00000e+00	
			         0.72333	-1.00000e+00	
			         0.72500	-1.00000e+00	
			         0.72667	0.00000e+00	
			         0.72833	0.00000e+00	
			         0.73000	0.00000e+00	
			         0.73167	0.00000e+00	
			         0.73333	0.00000e+00	
			         0.73500	0.00000e+00	
			         0.73667	-1.00000e+00	
			         0.73833	-2.00000e+00	
			         0.74000	-2.00000e+00	
			         0.74167	-3.00000e+00	
			         0.74333	-4.00000e+00	
			         0.74500	-4.00000e+00	
			         0.74667	-5.00000e+00	
			         0.74833	-5.00000e+00	
			         0.75000	-6.00000e+00	
			         0.75167	-6.00000e+00	
			         0.75333	-6.00000e+00	
			         0.75500	-6.00000e+00	
			         0.75667	-6.00000e+00	
			         0.75833	-5.00000e+00	
			         0.76000	-5.00000e+00	
			         0.76167	-4.00000e+00	
			         0.76333	-3.00000e+00	
			         0.76500	-3.00000e+00	
			         0.76667	-2.00000e+00	
			         0.76833	-1.00000e+00	
			         0.77000	0.00000e+00	
			         0.77167	0.00000e+00	
			         0.77333	1.00000e+00	
			         0.77500	1.00000e+00	
			         0.77667	1.00000e+00	
			         0.77833	1.00000e+00	
			         0.78000	1.00000e+00	
			         0.78167	0.00000e+00	
			         0.78333	-1.00000e+00	
			         0.78500	-2.00000e+00	
			         0.78667	-3.00000e+00	
			         0.78833	-5.00000e+00	
			         0.79000	-6.00000e+00	
			         0.79167	-8.00000e+00	
			         0.79333	-9.00000e+00	
			         0.79500	-1.00000e+01	
			         0.79667	-1.10000e+01	
			         0.79833	-1.10000e+01	
			         0.80000	-1.10000e+01	
			         0.80167	-1.10000e+01	
			         0.80333	-1.10000e+01	
			         0.80500	-1.00000e+01	
			         0.80667	-1.00000e+01	
			         0.80833	-9.00000e+00	
			         0.81000	-8.00000e+00	
			         0.81167	-7.00000e+00	
			         0.81333	-7.00000e+00	
			         0.81500	-6.00000e+00	
			         0.81667	-5.00000e+00	
			         0.81833	-5.00000e+00	
			         0.82000	-5.00000e+00	
			         0.82167	-5.00000e+00	
			         0.82333	-5.00000e+00	
			         0.82500	-4.00000e+00	
			         0.82667	-4.00000e+00	
			         0.82833	-4.00000e+00	
			         0.83000	-5.00000e+00	
			         0.83167	-5.00000e+00	
			         0.83333	-5.00000e+00	
			         0.83500	-6.00000e+00	
			         0.83667	-6.00000e+00	
			         0.83833	-6.00000e+00	
			         0.84000	-7.00000e+00	
			         0.84167	-7.00000e+00	
			         0.84333	-7.00000e+00	
			         0.84500	-8.00000e+00	
			         0.84667	-8.00000e+00	
			         0.84833	-9.00000e+00	
			         0.85000	-9.00000e+00	
			         0.85167	-1.00000e+01	
			         0.85333	-1.00000e+01	
			         0.85500	-1.10000e+01	
			         0.85667	-1.20000e+01	
			         0.85833	-1.30000e+01	
			         0.86000	-1.40000e+01	
			         0.86167	-1.50000e+01	
			         0.86333	-1.70000e+01	
			         0.86500	-1.80000e+01	
			         0.86667	-2.00000e+01	
			         0.86833	-2.30000e+01	
			         0.87000	-2.50000e+01	
			         0.87167	-2.70000e+01	
			         0.87333	-2.80000e+01	
			         0.87500	-3.00000e+01	
			         0.87667	-3.10000e+01	
			         0.87833	-3.10000e+01	
			         0.88000	-3.10000e+01	
			         0.88167	-3.10000e+01	
			         0.88333	-3.00000e+01	
			         0.88500	-2.90000e+01	
			         0.88667	-2.70000e+01	
			         0.88833	-2.60000e+01	
			         0.89000	-2.40000e+01	
			         0.89167	-2.30000e+01	
			         0.89333	-2.20000e+01	
			         0.89500	-2.20000e+01	
			         0.89667	-2.20000e+01	
			         0.89833	-2.30000e+01	
			         0.90000	-2.50000e+01	
			         0.90167	-2.70000e+01	
			         0.90333	-2.90000e+01	
			         0.90500	-3.10000e+01	
			         0.90667	-3.20000e+01	
			         0.90833	-3.40000e+01	
			         0.91000	-3.40000e+01	
			         0.91167	-3.40000e+01	
			         0.91333	-3.30000e+01	
			         0.91500	-3.20000e+01	
			         0.91667	-3.10000e+01	
			         0.91833	-2.90000e+01	
			         0.92000	-2.60000e+01	
			         0.92167	-2.30000e+01	
			         0.92333	-2.00000e+01	
			         0.92500	-1.70000e+01	
			         0.92667	-1.50000e+01	
			         0.92833	-1.30000e+01	
			         0.93000	-1.10000e+01	
			         0.93167	-9.00000e+00	
			         0.93333	-8.00000e+00	
			         0.93500	-8.00000e+00	
			         0.93667	-7.00000e+00	
			         0.93833	-7.00000e+00	
			         0.94000	-6.00000e+00	
			         0.94167	-5.00000e+00	
			         0.94333	-5.00000e+00	
			         0.94500	-4.00000e+00	
			         0.94667	-3.00000e+00	
			         0.94833	-1.00000e+00	
			         0.95000	0.00000e+00	
			         0.95167	2.00000e+00	
			         0.95333	3.00000e+00	
			         0.95500	5.00000e+00	
			         0.95667	7.00000e+00	
			         0.95833	8.00000e+00	
			         0.96000	1.00000e+01	
			         0.96167	1.00000e+01	
			         0.96333	1.10000e+01	
			         0.96500	1.10000e+01	
			         0.96667	1.10000e+01	
			         0.96833	1.10000e+01	
			         0.97000	1.10000e+01	
			         0.97167	1.00000e+01	
			         0.97333	1.00000e+01	
			         0.97500	1.00000e+01	
			         0.97667	1.00000e+01	
			         0.97833	1.00000e+01	
			         0.98000	1.10000e+01	
			         0.98167	1.20000e+01	
			         0.98333	1.40000e+01	
			         0.98500	1.70000e+01	
			         0.98667	2.00000e+01	
			         0.98833	2.40000e+01	
			         0.99000	2.70000e+01	
			         0.99167	3.20000e+01	
			         0.99333	3.70000e+01	
			         0.99500	4.30000e+01	
			         0.99667	4.90000e+01	
			         0.99833	5.50000e+01	
			         1.00000	6.10000e+01	
			         1.00167	6.80000e+01	
			         1.00333	7.40000e+01	
			         1.00500	8.00000e+01	
			         1.00667	8.60000e+01	
			         1.00833	9.10000e+01	
			         1.01000	9.70000e+01	
			         1.01167	1.01000e+02	
			         1.01333	1.06000e+02	
			         1.01500	1.09000e+02	
			         1.01667	1.11000e+02	
			         1.01833	1.12000e+02	
			         1.02000	1.10000e+02	
			         1.02167	1.07000e+02	
			         1.02333	1.01000e+02	
			         1.02500	9.30000e+01	
			         1.02667	8.30000e+01	
			         1.02833	7.10000e+01	
			         1.03000	5.80000e+01	
			         1.03167	4.20000e+01	
			         1.03333	2.50000e+01	
			         1.03500	7.00000e+00	
			         1.03667	-1.20000e+01	
			         1.03833	-3.20000e+01	
			         1.04000	-5.00000e+01	
			         1.04167	-6.70000e+01	
			         1.04333	-8.30000e+01	
			         1.04500	-9.60000e+01	
			         1.04667	-1.07000e+02	
			         1.04833	-1.16000e+02	
			         1.05000	-1.21000e+02	
			         1.05167	-1.23000e+02	
			         1.05333	-1.22000e+02	
			         1.05500	-1.19000e+02	
			         1.05667	-1.12000e+02	
			         1.05833	-1.04000e+02	
			         1.06000	-9.40000e+01	
			         1.06167	-8.20000e+01	
			         1.06333	-7.00000e+01	
			         1.06500	-5.80000e+01	
			         1.06667	-4.60000e+01	
			         1.06833	-3.50000e+01	
			         1.07000	-2.50000e+01	
			         1.07167	-1.60000e+01	
			         1.07333	-9.00000e+00	
			         1.07500	-3.00000e+00	
			         1.07667	2.00000e+00	
			         1.07833	5.00000e+00	
			         1.08000	8.00000e+00	
			         1.08167	1.00000e+01	
			         1.08333	1.10000e+01	
			         1.08500	1.20000e+01	
			         1.08667	1.30000e+01	
			         1.08833	1.30000e+01	
			         1.09000	1.40000e+01	
			         1.09167	1.50000e+01	
			         1.09333	1.50000e+01	
			         1.09500	1.50000e+01	
			         1.09667	1.50000e+01	
			         1.09833	1.50000e+01	
			         1.10000	1.50000e+01	
			         1.10167	1.40000e+01	
			         1.10333	1.40000e+01	
			         1.10500	1.30000e+01	
			         1.10667	1.20000e+01	
			         1.10833	1.10000e+01	
			         1.11000	1.00000e+01	
			         1.11167	9.00000e+00	
			         1.11333	8.00000e+00	
			         1.11500	8.00000e+00	
			         1.11667	8.00000e+00	
			         1.11833	8.00000e+00	
			         1.12000	9.00000e+00	
			         1.12167	9.00000e+00	
			         1.12333	1.00000e+01	
			         1.12500	1.00000e+01	
			         1.12667	1.10000e+01	
			         1.12833	1.20000e+01	
			         1.13000	1.20000e+01	
			         1.13167	1.30000e+01	
			         1.13333	1.30000e+01	
			         1.13500	1.30000e+01	
			         1.13667	1.30000e+01	
			         1.13833	1.30000e+01	
			         1.14000	1.30000e+01	
			         1.14167	1.30000e+01	
			         1.14333	1.30000e+01	
			         1.14500	1.30000e+01	
			         1.14667	1.30000e+01	
			         1.14833	1.30000e+01	
			         1.15000	1.20000e+01	
			         1.15167	1.10000e+01	
			         1.15333	1.10000e+01	
			         1.15500	1.00000e+01	
			         1.15667	9.00000e+00	
			         1.15833	7.00000e+00	
			         1.16000	6.00000e+00	
			         1.16167	5.00000e+00	
			         1.16333	4.00000e+00	
			         1.16500	3.00000e+00	
			         1.16667	2.00000e+00	
			         1.16833	2.00000e+00	
			         1.17000	1.00000e+00	
			         1.17167	0.00000e+00	
			         1.17333	0.00000e+00	
			         1.17500	0.00000e+00	
			         1.17667	0.00000e+00	
			         1.17833	0.00000e+00	
			         1.18000	0.00000e+00	
			         1.18167	0.00000e+00	
			         1.18333	0.00000e+00	
			         1.18500	0.00000e+00	
			         1.18667	1.00000e+00	
			         1.18833	1.00000e+00	
			         1.19000	2.00000e+00	
			         1.19167	2.00000e+00	
			         1.19333	1.00000e+00	
			         1.19500	1.00000e+00	
			         1.19667	0.00000e+00	
			         1.19833	-1.00000e+00	
			         1.20000	-2.00000e+00	
			         1.20167	-2.00000e+00	
			         1.20333	-3.00000e+00	
			         1.20500	-3.00000e+00	
			         1.20667	-3.00000e+00	
			         1.20833	-4.00000e+00	
			         1.21000	-3.00000e+00	
			         1.21167	-3.00000e+00	
			         1.21333	-2.00000e+00	
			         1.21500	-1.00000e+00	
			         1.21667	0.00000e+00	
			         1.21833	0.00000e+00	
			         1.22000	1.00000e+00	
			         1.22167	2.00000e+00	
			         1.22333	2.00000e+00	
			         1.22500	2.00000e+00	
			         1.22667	2.00000e+00	
			         1.22833	2.00000e+00	
			         1.23000	2.00000e+00	
			         1.23167	2.00000e+00	
			         1.23333	1.00000e+00	
			         1.23500	1.00000e+00	
			         1.23667	0.00000e+00	
			         1.23833	0.00000e+00	
			         1.24000	-1.00000e+00	
			         1.24167	-2.00000e+00	
			         1.24333	-3.00000e+00	
			         1.24500	-4.00000e+00	
			         1.24667	-5.00000e+00	
			         1.24833	-5.00000e+00	
			         1.25000	-6.00000e+00	
			         1.25167	-6.00000e+00	
			         1.25333	-6.00000e+00	
			         1.25500	-5.00000e+00	
			         1.25667	-5.00000e+00	
			         1.25833	-4.00000e+00	
			         1.26000	-3.00000e+00	
			         1.26167	-2.00000e+00	
			         1.26333	0.00000e+00	
			         1.26500	1.00000e+00	
			         1.26667	3.00000e+00	
			         1.26833	4.00000e+00	
			         1.27000	6.00000e+00	
			         1.27167	8.00000e+00	
			         1.27333	1.00000e+01	
			         1.27500	1.30000e+01	
			         1.27667	1.60000e+01	
			         1.27833	1.80000e+01	
			         1.28000	2.10000e+01	
			         1.28167	2.30000e+01	
			         1.28333	2.50000e+01	
			         1.28500	2.70000e+01	
			         1.28667	2.90000e+01	
			         1.28833	3.00000e+01	
			         1.29000	3.10000e+01	
			         1.29167	3.10000e+01	
			         1.29333	3.10000e+01	
			         1.29500	3.00000e+01	
			         1.29667	2.90000e+01	
			         1.29833	2.90000e+01	
			         1.30000	2.80000e+01	
			         1.30167	2.80000e+01	
			         1.30333	2.90000e+01	
			         1.30500	2.90000e+01	
			         1.30667	3.00000e+01	
			         1.30833	3.20000e+01	
			         1.31000	3.40000e+01	
			         1.31167	3.60000e+01	
			         1.31333	3.80000e+01	
			         1.31500	4.10000e+01	
			         1.31667	4.40000e+01	
			         1.31833	4.60000e+01	
			         1.32000	4.90000e+01	
			         1.32167	5.00000e+01	
			         1.32333	5.20000e+01	
			         1.32500	5.30000e+01	
			         1.32667	5.40000e+01	
			         1.32833	5.40000e+01	
			         1.33000	5.30000e+01	
			         1.33167	5.20000e+01	
			         1.33333	5.00000e+01	
			         1.33500	4.80000e+01	
			         1.33667	4.50000e+01	
			         1.33833	4.20000e+01	
			         1.34000	3.90000e+01	
			         1.34167	3.50000e+01	
			         1.34333	3.20000e+01	
			         1.34500	2.80000e+01	
			         1.34667	2.50000e+01	
			         1.34833	2.30000e+01	
			         1.35000	2.00000e+01	
			         1.35167	1.80000e+01	
			         1.35333	1.70000e+01	
			         1.35500	1.60000e+01	
			         1.35667	1.40000e+01	
			         1.35833	1.30000e+01	
			         1.36000	1.20000e+01	
			         1.36167	1.00000e+01	
			         1.36333	8.00000e+00	
			         1.36500	6.00000e+00	
			         1.36667	3.00000e+00	
			         1.36833	1.00000e+00	
			         1.37000	-3.00000e+00	
			         1.37167	-6.00000e+00	
			         1.37333	-9.00000e+00	
			         1.37500	-1.20000e+01	
			         1.37667	-1.50000e+01	
			         1.37833	-1.80000e+01	
			         1.38000	-2.10000e+01	
			         1.38167	-2.40000e+01	
			         1.38333	-2.60000e+01	
			         1.38500	-2.80000e+01	
			         1.38667	-2.90000e+01	
			         1.38833	-3.00000e+01	
			         1.39000	-3.20000e+01	
			         1.39167	-3.30000e+01	
			         1.39333	-3.40000e+01	
			         1.39500	-3.40000e+01	
			         1.39667	-3.50000e+01	
			         1.39833	-3.60000e+01	
			         1.40000	-3.60000e+01	
			         1.40167	-3.70000e+01	
			         1.40333	-3.70000e+01	
			         1.40500	-3.70000e+01	
			         1.40667	-3.80000e+01	
			         1.40833	-3.80000e+01	
			         1.41000	-3.80000e+01	
			         1.41167	-3.80000e+01	
			         1.41333	-3.80000e+01	
			         1.41500	-3.70000e+01	
			         1.41667	-3.70000e+01	
			         1.41833	-3.60000e+01	
			         1.42000	-3.50000e+01	
			         1.42167	-3.40000e+01	
			         1.42333	-3.30000e+01	
			         1.42500	-3.20000e+01	
			         1.42667	-3.10000e+01	
			         1.42833	-3.00000e+01	
			         1.43000	-3.00000e+01	
			         1.43167	-2.90000e+01	
			         1.43333	-2.90000e+01	
			         1.43500	-2.80000e+01	
			         1.43667	-2.80000e+01	
			         1.43833	-2.80000e+01	
			         1.44000	-2.80000e+01	
			         1.44167	-2.80000e+01	
			         1.44333	-2.80000e+01	
			         1.44500	-2.80000e+01	
			         1.44667	-2.80000e+01	
			         1.44833	-2.70000e+01	
			         1.45000	-2.60000e+01	
			         1.45167	-2.40000e+01	
			         1.45333	-2.20000e+01	
			         1.45500	-2.00000e+01	
			         1.45667	-1.80000e+01	
			         1.45833	-1.60000e+01	
			         1.46000	-1.50000e+01	
			         1.46167	-1.30000e+01	
			         1.46333	-1.20000e+01	
			         1.46500	-1.10000e+01	
			         1.46667	-1.00000e+01	
			         1.46833	-9.00000e+00	
			         1.47000	-8.00000e+00	
			         1.47167	-7.00000e+00	
			         1.47333	-6.00000e+00	
			         1.47500	-4.00000e+00	
			         1.47667	-2.00000e+00	
			         1.47833	-1.00000e+00	
			         1.48000	1.00000e+00	
			         1.48167	2.00000e+00	
			         1.48333	3.00000e+00	
			         1.48500	4.00000e+00	
			         1.48667	4.00000e+00	
			         1.48833	4.00000e+00	
			         1.49000	3.00000e+00	
			         1.49167	2.00000e+00	
			         1.49333	1.00000e+00	
			         1.49500	0.00000e+00	
			         1.49667	-1.00000e+00	
			         1.49833	-3.00000e+00	
			         1.50000	-4.00000e+00	
			         1.50167	-5.00000e+00	
			         1.50333	-6.00000e+00	
			         1.50500	-7.00000e+00	
			         1.50667	-7.00000e+00	
			         1.50833	-8.00000e+00	
			         1.51000	-8.00000e+00	
			         1.51167	-8.00000e+00	
			         1.51333	-9.00000e+00	
			         1.51500	-1.00000e+01	
			         1.51667	-1.10000e+01	
			         1.51833	-1.30000e+01	
			         1.52000	-1.40000e+01	
			         1.52167	-1.50000e+01	
			         1.52333	-1.60000e+01	
			         1.52500	-1.70000e+01	
			         1.52667	-1.60000e+01	
			         1.52833	-1.60000e+01	
			         1.53000	-1.50000e+01	
			         1.53167	-1.40000e+01	
			         1.53333	-1.20000e+01	
			         1.53500	-1.00000e+01	
			         1.53667	-8.00000e+00	
			         1.53833	-6.00000e+00	
			         1.54000	-3.00000e+00	
			         1.54167	-1.00000e+00	
			         1.54333	1.00000e+00	
			         1.54500	2.00000e+00	
			         1.54667	3.00000e+00	
			         1.54833	3.00000e+00	
			         1.55000	3.00000e+00	
			         1.55167	2.00000e+00	
			         1.55333	2.00000e+00	
			         1.55500	1.00000e+00	
			         1.55667	0.00000e+00	
			         1.55833	-1.00000e+00	
			         1.56000	-2.00000e+00	
			         1.56167	-3.00000e+00	
			         1.56333	-4.00000e+00	
			         1.56500	-5.00000e+00	
			         1.56667	-6.00000e+00	
			         1.56833	-7.00000e+00	
			         1.57000	-7.00000e+00	
			         1.57167	-7.00000e+00	
			         1.57333	-8.00000e+00	
			         1.57500	-7.00000e+00	
			         1.57667	-7.00000e+00	
			         1.57833	-7.00000e+00	
			         1.58000	-6.00000e+00	
			         1.58167	-6.00000e+00	
			         1.58333	-5.00000e+00	
			         1.58500	-5.00000e+00	
			         1.58667	-5.00000e+00	
			         1.58833	-4.00000e+00	
			         1.59000	-4.00000e+00	
			         1.59167	-5.00000e+00	
			         1.59333	-5.00000e+00	
			         1.59500	-6.00000e+00	
			         1.59667	-7.00000e+00	
			         1.59833	-8.00000e+00	
			         1.60000	-1.00000e+01	
			         1.60167	-1.10000e+01	
			         1.60333	-1.20000e+01	
			         1.60500	-1.30000e+01	
			         1.60667	-1.30000e+01	
			         1.60833	-1.30000e+01	
			         1.61000	-1.30000e+01	
			         1.61167	-1.20000e+01	
			         1.61333	-1.10000e+01	
			         1.61500	-9.00000e+00	
			         1.61667	-7.00000e+00	
			         1.61833	-5.00000e+00	
			         1.62000	-3.00000e+00	
			         1.62167	-1.00000e+00	
			         1.62333	2.00000e+00	
			         1.62500	3.00000e+00	
			         1.62667	5.00000e+00	
			         1.62833	6.00000e+00	
			         1.63000	6.00000e+00	
			         1.63167	6.00000e+00	
			         1.63333	6.00000e+00	
			         1.63500	5.00000e+00	
			         1.63667	3.00000e+00	
			         1.63833	2.00000e+00	
			         1.64000	0.00000e+00	
			         1.64167	-2.00000e+00	
			         1.64333	-3.00000e+00	
			         1.64500	-5.00000e+00	
			         1.64667	-6.00000e+00	
			         1.64833	-7.00000e+00	
			         1.65000	-8.00000e+00	
			         1.65167	-9.00000e+00	
			         1.65333	-9.00000e+00	
			         1.65500	-9.00000e+00	
			         1.65667	-8.00000e+00	
			         1.65833	-7.00000e+00	
			         1.66000	-6.00000e+00	
			         1.66167	-4.00000e+00	
			         1.66333	-2.00000e+00	
			         1.66500	0.00000e+00	
			         1.66667	3.00000e+00	
			         1.66833	5.00000e+00	
			         1.67000	7.00000e+00	
			         1.67167	8.00000e+00	
			         1.67333	1.00000e+01	
			         1.67500	1.00000e+01	
			         1.67667	1.00000e+01	
			         1.67833	1.00000e+01	
			         1.68000	9.00000e+00	
			         1.68167	8.00000e+00	
			         1.68333	7.00000e+00	
			         1.68500	5.00000e+00	
			         1.68667	3.00000e+00	
			         1.68833	1.00000e+00	
			         1.69000	0.00000e+00	
			         1.69167	-2.00000e+00	
			         1.69333	-3.00000e+00	
			         1.69500	-4.00000e+00	
			         1.69667	-5.00000e+00	
			         1.69833	-5.00000e+00	
			         1.70000	-5.00000e+00	
			         1.70167	-5.00000e+00	
			         1.70333	-5.00000e+00	
			         1.70500	-5.00000e+00	
			         1.70667	-4.00000e+00	
			         1.70833	-4.00000e+00	
			         1.71000	-3.00000e+00	
			         1.71167	-3.00000e+00	
			         1.71333	-2.00000e+00	
			         1.71500	-1.00000e+00	
			         1.71667	0.00000e+00	
			         1.71833	1.00000e+00	
			         1.72000	1.00000e+00	
			         1.72167	2.00000e+00	
			         1.72333	2.00000e+00	
			         1.72500	1.00000e+00	
			         1.72667	1.00000e+00	
			         1.72833	0.00000e+00	
			         1.73000	-1.00000e+00	
			         1.73167	-3.00000e+00	
			         1.73333	-4.00000e+00	
			         1.73500	-5.00000e+00	
			         1.73667	-6.00000e+00	
			         1.73833	-7.00000e+00	
			         1.74000	-7.00000e+00	
			         1.74167	-6.00000e+00	
			         1.74333	-5.00000e+00	
			         1.74500	-4.00000e+00	
			         1.74667	-2.00000e+00	
			         1.74833	-1.00000e+00	
			         1.75000	1.00000e+00	
			         1.75167	2.00000e+00	
			         1.75333	3.00000e+00	
			         1.75500	4.00000e+00	
			         1.75667	4.00000e+00	
			         1.75833	3.00000e+00	
			         1.76000	1.00000e+00	
			         1.76167	-1.00000e+00	
			         1.76333	-4.00000e+00	
			         1.76500	-6.00000e+00	
			         1.76667	-8.00000e+00	
			         1.76833	-1.00000e+01	
			         1.77000	-1.10000e+01	
			         1.77167	-1.20000e+01	
			         1.77333	-1.30000e+01	
			         1.77500	-1.40000e+01	
			         1.77667	-1.40000e+01	
			         1.77833	-1.40000e+01	
			         1.78000	-1.30000e+01	
			         1.78167	-1.30000e+01	
			         1.78333	-1.20000e+01	
			         1.78500	-1.10000e+01	
			         1.78667	-1.00000e+01	
			         1.78833	-9.00000e+00	
			         1.79000	-8.00000e+00	
			         1.79167	-7.00000e+00	
			         1.79333	-7.00000e+00	
			         1.79500	-7.00000e+00	
			         1.79667	-6.00000e+00	
			         1.79833	-6.00000e+00	
			         1.80000	-6.00000e+00	
			         1.80167	-6.00000e+00	
			         1.80333	-7.00000e+00	
			         1.80500	-7.00000e+00	
			         1.80667	-8.00000e+00	
			         1.80833	-9.00000e+00	
			         1.81000	-1.00000e+01	
			         1.81167	-1.00000e+01	
			         1.81333	-1.10000e+01	
			         1.81500	-1.00000e+01	
			         1.81667	-1.00000e+01	
			         1.81833	-9.00000e+00	
			         1.82000	-8.00000e+00	
			         1.82167	-6.00000e+00	
			         1.82333	-5.00000e+00	
			         1.82500	-3.00000e+00	
			         1.82667	-1.00000e+00	
			         1.82833	0.00000e+00	
			         1.83000	2.00000e+00	
			         1.83167	2.00000e+00	
			         1.83333	3.00000e+00	
			         1.83500	3.00000e+00	
			         1.83667	2.00000e+00	
			         1.83833	1.00000e+00	
			         1.84000	0.00000e+00	
			         1.84167	-2.00000e+00	
			         1.84333	-4.00000e+00	
			         1.84500	-6.00000e+00	
			         1.84667	-8.00000e+00	
			         1.84833	-9.00000e+00	
			         1.85000	-1.10000e+01	
			         1.85167	-1.20000e+01	
			         1.85333	-1.30000e+01	
			         1.85500	-1.40000e+01	
			         1.85667	-1.50000e+01	
			         1.85833	-1.70000e+01	
			         1.86000	-1.80000e+01	
			         1.86167	-1.90000e+01	
			         1.86333	-2.00000e+01	
			         1.86500	-2.20000e+01	
			         1.86667	-2.30000e+01	
			         1.86833	-2.40000e+01	
			         1.87000	-2.50000e+01	
			         1.87167	-2.60000e+01	
			         1.87333	-2.70000e+01	
			         1.87500	-2.80000e+01	
			         1.87667	-2.80000e+01	
			         1.87833	-2.80000e+01	
			         1.88000	-2.70000e+01	
			         1.88167	-2.70000e+01	
			         1.88333	-2.60000e+01	
			         1.88500	-2.60000e+01	
			         1.88667	-2.60000e+01	
			         1.88833	-2.60000e+01	
			         1.89000	-2.70000e+01	
			         1.89167	-2.80000e+01	
			         1.89333	-2.90000e+01	
			         1.89500	-3.00000e+01	
			         1.89667	-3.20000e+01	
			         1.89833	-3.30000e+01	
			         1.90000	-3.50000e+01	
			         1.90167	-3.60000e+01	
			         1.90333	-3.60000e+01	
			         1.90500	-3.60000e+01	
			         1.90667	-3.60000e+01	
			         1.90833	-3.40000e+01	
			         1.91000	-3.30000e+01	
			         1.91167	-3.00000e+01	
			         1.91333	-2.70000e+01	
			         1.91500	-2.40000e+01	
			         1.91667	-2.10000e+01	
			         1.91833	-1.80000e+01	
			         1.92000	-1.50000e+01	
			         1.92167	-1.20000e+01	
			         1.92333	-1.00000e+01	
			         1.92500	-8.00000e+00	
			         1.92667	-6.00000e+00	
			         1.92833	-5.00000e+00	
			         1.93000	-4.00000e+00	
			         1.93167	-4.00000e+00	
			         1.93333	-3.00000e+00	
			         1.93500	-2.00000e+00	
			         1.93667	-1.00000e+00	
			         1.93833	0.00000e+00	
			         1.94000	2.00000e+00	
			         1.94167	4.00000e+00	
			         1.94333	7.00000e+00	
			         1.94500	1.00000e+01	
			         1.94667	1.30000e+01	
			         1.94833	1.50000e+01	
			         1.95000	1.80000e+01	
			         1.95167	2.10000e+01	
			         1.95333	2.40000e+01	
			         1.95500	2.60000e+01	
			         1.95667	2.80000e+01	
			         1.95833	2.90000e+01	
			         1.96000	3.00000e+01	
			         1.96167	3.00000e+01	
			         1.96333	2.90000e+01	
			         1.96500	2.80000e+01	
			         1.96667	2.70000e+01	
			         1.96833	2.60000e+01	
			         1.97000	2.40000e+01	
			         1.97167	2.30000e+01	
			         1.97333	2.20000e+01	
			         1.97500	2.10000e+01	
			         1.97667	2.10000e+01	
			         1.97833	2.20000e+01	
			         1.98000	2.40000e+01	
			         1.98167	2.60000e+01	
			         1.98333	3.00000e+01	
			         1.98500	3.40000e+01	
			         1.98667	3.90000e+01	
			         1.98833	4.50000e+01	
			         1.99000	5.10000e+01	
			         1.99167	5.80000e+01	
			         1.99333	6.30000e+01	
			         1.99500	6.90000e+01	
			         1.99667	7.40000e+01	
			         1.99833	7.80000e+01	
			         2.00000	8.20000e+01	
			         2.00167	8.50000e+01	
			         2.00333	8.80000e+01	
			         2.00500	9.10000e+01	
			         2.00667	9.40000e+01	
			         2.00833	9.70000e+01	
			         2.01000	9.90000e+01	
			         2.01167	1.01000e+02	
			         2.01333	1.01000e+02	
			         2.01500	9.90000e+01	
			         2.01667	9.50000e+01	
			         2.01833	9.00000e+01	
			         2.02000	8.30000e+01	
			         2.02167	7.30000e+01	
			         2.02333	6.10000e+01	
			         2.02500	4.70000e+01	
			         2.02667	3.00000e+01	
			         2.02833	1.20000e+01	
			         2.03000	-8.00000e+00	
			         2.03167	-2.80000e+01	
			         2.03333	-4.70000e+01	
			         2.03500	-6.50000e+01	
			         2.03667	-8.20000e+01	
			         2.03833	-9.60000e+01	
			         2.04000	-1.07000e+02	
			         2.04167	-1.15000e+02	
			         2.04333	-1.19000e+02	
			         2.04500	-1.21000e+02	
			         2.04667	-1.19000e+02	
			         2.04833	-1.14000e+02	
			         2.05000	-1.06000e+02	
			         2.05167	-9.60000e+01	
			         2.05333	-8.50000e+01	
			         2.05500	-7.20000e+01	
			         2.05667	-5.90000e+01	
			         2.05833	-4.60000e+01	
			         2.06000	-3.40000e+01	
			         2.06167	-2.20000e+01	
			         2.06333	-1.20000e+01	
			         2.06500	-2.00000e+00	
			         2.06667	5.00000e+00	
			         2.06833	1.20000e+01	
			         2.07000	1.70000e+01	
			         2.07167	2.10000e+01	
			         2.07333	2.40000e+01	
			         2.07500	2.70000e+01	
			         2.07667	2.90000e+01	
			         2.07833	3.00000e+01	
			         2.08000	3.10000e+01	
			         2.08167	3.10000e+01	
			         2.08333	3.00000e+01	
			         2.08500	3.00000e+01	
			         2.08667	2.90000e+01	
			         2.08833	2.70000e+01	
			         2.09000	2.60000e+01	
			         2.09167	2.50000e+01	
			         2.09333	2.40000e+01	
			         2.09500	2.30000e+01	
			         2.09667	2.20000e+01	
			         2.09833	2.20000e+01	
			         2.10000	2.10000e+01	
			         2.10167	2.10000e+01	
			         2.10333	2.00000e+01	
			         2.10500	2.00000e+01	
			         2.10667	2.00000e+01	
			         2.10833	2.00000e+01	
			         2.11000	2.00000e+01	
			         2.11167	2.00000e+01	
			         2.11333	1.90000e+01	
			         2.11500	1.90000e+01	
			         2.11667	1.80000e+01	
			         2.11833	1.80000e+01	
			         2.12000	1.70000e+01	
			         2.12167	1.60000e+01	
			         2.12333	1.50000e+01	
			         2.12500	1.40000e+01	
			         2.12667	1.40000e+01	
			         2.12833	1.30000e+01	
			         2.13000	1.30000e+01	
			         2.13167	1.20000e+01	
			         2.13333	1.10000e+01	
			         2.13500	1.10000e+01	
			         2.13667	1.00000e+01	
			         2.13833	1.00000e+01	
			         2.14000	9.00000e+00	
			         2.14167	9.00000e+00	
			         2.14333	9.00000e+00	
			         2.14500	9.00000e+00	
			         2.14667	9.00000e+00	
			         2.14833	9.00000e+00	
			         2.15000	9.00000e+00	
			         2.15167	9.00000e+00	
			         2.15333	9.00000e+00	
			         2.15500	9.00000e+00	
			         2.15667	8.00000e+00	
			         2.15833	8.00000e+00	
			         2.16000	7.00000e+00	
			         2.16167	6.00000e+00	
			         2.16333	5.00000e+00	
			         2.16500	4.00000e+00	
			         2.16667	3.00000e+00	
			         2.16833	1.00000e+00	
			         2.17000	0.00000e+00	
			         2.17167	-2.00000e+00	
			         2.17333	-3.00000e+00	
			         2.17500	-3.00000e+00	
			         2.17667	-3.00000e+00	
			         2.17833	-3.00000e+00	
			         2.18000	-3.00000e+00	
			         2.18167	-2.00000e+00	
			         2.18333	-2.00000e+00	
			         2.18500	-1.00000e+00	
			         2.18667	0.00000e+00	
			         2.18833	1.00000e+00	
			         2.19000	2.00000e+00	
			         2.19167	3.00000e+00	
			         2.19333	3.00000e+00	
			         2.19500	4.00000e+00	
			         2.19667	4.00000e+00	
			         2.19833	4.00000e+00	
			         2.20000	4.00000e+00	
			         2.20167	3.00000e+00	
			         2.20333	3.00000e+00	
			         2.20500	2.00000e+00	
			         2.20667	2.00000e+00	
			         2.20833	2.00000e+00	
			         2.21000	2.00000e+00	
			         2.21167	1.00000e+00	
			         2.21333	1.00000e+00	
			         2.21500	1.00000e+00	
			         2.21667	0.00000e+00	
			         2.21833	0.00000e+00	
			         2.22000	0.00000e+00	
			         2.22167	0.00000e+00	
			         2.22333	0.00000e+00	
			         2.22500	0.00000e+00	
			         2.22667	0.00000e+00	
			         2.22833	0.00000e+00	
			         2.23000	0.00000e+00	
			         2.23167	0.00000e+00	
			         2.23333	0.00000e+00	
			         2.23500	0.00000e+00	
			         2.23667	0.00000e+00	
			         2.23833	0.00000e+00	
			         2.24000	0.00000e+00	
			         2.24167	0.00000e+00	
			         2.24333	1.00000e+00	
			         2.24500	1.00000e+00	
			         2.24667	1.00000e+00	
			         2.24833	2.00000e+00	
			         2.25000	2.00000e+00	
			         2.25167	3.00000e+00	
			         2.25333	3.00000e+00	
			         2.25500	4.00000e+00	
			         2.25667	5.00000e+00	
			         2.25833	5.00000e+00	
			         2.26000	6.00000e+00	
			         2.26167	8.00000e+00	
			         2.26333	9.00000e+00	
			         2.26500	1.00000e+01	
			         2.26667	1.20000e+01	
			         2.26833	1.30000e+01	
			         2.27000	1.50000e+01	
			         2.27167	1.70000e+01	
			         2.27333	1.80000e+01	
			         2.27500	2.00000e+01	
			         2.27667	2.20000e+01	
			         2.27833	2.40000e+01	
			         2.28000	2.50000e+01	
			         2.28167	2.60000e+01	
			         2.28333	2.70000e+01	
			         2.28500	2.80000e+01	
			         2.28667	2.90000e+01	
			         2.28833	3.00000e+01	
			         2.29000	3.10000e+01	
			         2.29167	3.20000e+01	
			         2.29333	3.30000e+01	
			         2.29500	3.40000e+01	
			         2.29667	3.50000e+01	
			         2.29833	3.60000e+01	
			         2.30000	3.80000e+01	
			         2.30167	3.90000e+01	
			         2.30333	4.00000e+01	
			         2.30500	4.10000e+01	
			         2.30667	4.20000e+01	
			         2.30833	4.30000e+01	
			         2.31000	4.50000e+01	
			         2.31167	4.60000e+01	
			         2.31333	4.80000e+01	
			         2.31500	5.00000e+01	
			         2.31667	5.20000e+01	
			         2.31833	5.40000e+01	
			         2.32000	5.50000e+01	
			         2.32167	5.70000e+01	
			         2.32333	5.80000e+01	
			         2.32500	5.90000e+01	
			         2.32667	5.90000e+01	
			         2.32833	5.90000e+01	
			         2.33000	5.80000e+01	
			         2.33167	5.70000e+01	
			         2.33333	5.40000e+01	
			         2.33500	5.10000e+01	
			         2.33667	4.80000e+01	
			         2.33833	4.40000e+01	
			         2.34000	4.00000e+01	
			         2.34167	3.70000e+01	
			         2.34333	3.30000e+01	
			         2.34500	2.90000e+01	
			         2.34667	2.50000e+01	
			         2.34833	2.10000e+01	
			         2.35000	1.70000e+01	
			         2.35167	1.40000e+01	
			         2.35333	1.00000e+01	
			         2.35500	7.00000e+00	
			         2.35667	4.00000e+00	
			         2.35833	1.00000e+00	
			         2.36000	-2.00000e+00	
			         2.36167	-4.00000e+00	
			         2.36333	-6.00000e+00	
			         2.36500	-8.00000e+00	
			         2.36667	-1.00000e+01	
			         2.36833	-1.20000e+01	
			         2.37000	-1.40000e+01	
			         2.37167	-1.60000e+01	
			         2.37333	-1.80000e+01	
			         2.37500	-2.00000e+01	
			         2.37667	-2.20000e+01	
			         2.37833	-2.40000e+01	
			         2.38000	-2.70000e+01	
			         2.38167	-2.90000e+01	
			         2.38333	-3.20000e+01	
			         2.38500	-3.50000e+01	
			         2.38667	-3.70000e+01	
			         2.38833	-3.90000e+01	
			         2.39000	-4.00000e+01	
			         2.39167	-4.10000e+01	
			         2.39333	-4.20000e+01	
			         2.39500	-4.20000e+01	
			         2.39667	-4.10000e+01	
			         2.39833	-4.00000e+01	
			         2.40000	-3.90000e+01	
			         2.40167	-3.70000e+01	
			         2.40333	-3.50000e+01	
			         2.40500	-3.30000e+01	
			         2.40667	-3.20000e+01	
			         2.40833	-3.00000e+01	
			         2.41000	-2.80000e+01	
			         2.41167	-2.60000e+01	
			         2.41333	-2.50000e+01	
			         2.41500	-2.40000e+01	
			         2.41667	-2.30000e+01	
			         2.41833	-2.30000e+01	
			         2.42000	-2.20000e+01	
			         2.42167	-2.20000e+01	
			         2.42333	-2.20000e+01	
			         2.42500	-2.20000e+01	
			         2.42667	-2.20000e+01	
			         2.42833	-2.30000e+01	
			         2.43000	-2.40000e+01	
			         2.43167	-2.40000e+01	
			         2.43333	-2.50000e+01	
			         2.43500	-2.60000e+01	
			         2.43667	-2.60000e+01	
			         2.43833	-2.60000e+01	
			         2.44000	-2.60000e+01	
			         2.44167	-2.60000e+01	
			         2.44333	-2.50000e+01	
			         2.44500	-2.50000e+01	
			         2.44667	-2.40000e+01	
			         2.44833	-2.30000e+01	
			         2.45000	-2.10000e+01	
			         2.45167	-2.00000e+01	
			         2.45333	-1.80000e+01	
			         2.45500	-1.70000e+01	
			         2.45667	-1.50000e+01	
			         2.45833	-1.40000e+01	
			         2.46000	-1.30000e+01	
			         2.46167	-1.20000e+01	
			         2.46333	-1.20000e+01	
			         2.46500	-1.10000e+01	
			         2.46667	-1.00000e+01	
			         2.46833	-1.00000e+01	
			         2.47000	-9.00000e+00	
			         2.47167	-9.00000e+00	
			         2.47333	-8.00000e+00	
			         2.47500	-8.00000e+00	
			         2.47667	-9.00000e+00	
			         2.47833	-9.00000e+00	
			         2.48000	-9.00000e+00	
			         2.48167	-9.00000e+00	
			         2.48333	-9.00000e+00	
			         2.48500	-8.00000e+00	
			         2.48667	-8.00000e+00	
			         2.48833	-8.00000e+00	
			         2.49000	-7.00000e+00	
			         2.49167	-7.00000e+00	
			         2.49333	-7.00000e+00	
			         2.49500	-6.00000e+00	
			         2.49667	-6.00000e+00	
			         2.49833	-5.00000e+00	
			         2.50000	-4.00000e+00	
			         2.50167	-3.00000e+00	
			         2.50333	-2.00000e+00	
			         2.50500	-2.00000e+00	
			         2.50667	-1.00000e+00	
			         2.50833	0.00000e+00	
			         2.51000	0.00000e+00	
			         2.51167	1.00000e+00	
			         2.51333	2.00000e+00	
			         2.51500	2.00000e+00	
			         2.51667	3.00000e+00	
			         2.51833	3.00000e+00	
			         2.52000	3.00000e+00	
			         2.52167	3.00000e+00	
			         2.52333	3.00000e+00	
			         2.52500	3.00000e+00	
			         2.52667	3.00000e+00	
			         2.52833	3.00000e+00	
			         2.53000	2.00000e+00	
			         2.53167	2.00000e+00	
			         2.53333	2.00000e+00	
			         2.53500	2.00000e+00	
			         2.53667	2.00000e+00	
			         2.53833	2.00000e+00	
			         2.54000	2.00000e+00	
			         2.54167	2.00000e+00	
			         2.54333	2.00000e+00	
			         2.54500	1.00000e+00	
			         2.54667	1.00000e+00	
			         2.54833	1.00000e+00	
			         2.55000	1.00000e+00	
			         2.55167	1.00000e+00	
			         2.55333	1.00000e+00	
			         2.55500	1.00000e+00	
			         2.55667	2.00000e+00	
			         2.55833	3.00000e+00	
			         2.56000	3.00000e+00	
			         2.56167	5.00000e+00	
			         2.56333	6.00000e+00	
			         2.56500	7.00000e+00	
			         2.56667	8.00000e+00	
			         2.56833	1.00000e+01	
			         2.57000	1.10000e+01	
			         2.57167	1.20000e+01	
			         2.57333	1.30000e+01	
			         2.57500	1.30000e+01	
			         2.57667	1.30000e+01	
			         2.57833	1.20000e+01	
			         2.58000	1.10000e+01	
			         2.58167	1.10000e+01	
			         2.58333	1.00000e+01	
			         2.58500	8.00000e+00	
			         2.58667	7.00000e+00	
			         2.58833	6.00000e+00	
			         2.59000	5.00000e+00	
			         2.59167	3.00000e+00	
			         2.59333	2.00000e+00	
			         2.59500	1.00000e+00	
			         2.59667	0.00000e+00	
			         2.59833	-1.00000e+00	
			         2.60000	-1.00000e+00	
			         2.60167	-2.00000e+00	
			         2.60333	-2.00000e+00	
			         2.60500	-2.00000e+00	
			         2.60667	-2.00000e+00	
			         2.60833	-2.00000e+00	
			         2.61000	-2.00000e+00	
			         2.61167	-2.00000e+00	
			         2.61333	-1.00000e+00	
			         2.61500	-1.00000e+00	
			         2.61667	-1.00000e+00	
			         2.61833	0.00000e+00	
			         2.62000	0.00000e+00	
			         2.62167	0.00000e+00	
			         2.62333	0.00000e+00	
			         2.62500	0.00000e+00	
			         2.62667	0.00000e+00	
			         2.62833	0.00000e+00	
			         2.63000	0.00000e+00	
			         2.63167	0.00000e+00	
			         2.63333	0.00000e+00	
			         2.63500	0.00000e+00	
			         2.63667	0.00000e+00	
			         2.63833	0.00000e+00	
			         2.64000	0.00000e+00	
			         2.64167	0.00000e+00	
			         2.64333	0.00000e+00	
			         2.64500	1.00000e+00	
			         2.64667	1.00000e+00	
			         2.64833	2.00000e+00	
			         2.65000	2.00000e+00	
			         2.65167	3.00000e+00	
			         2.65333	3.00000e+00	
			         2.65500	3.00000e+00	
			         2.65667	3.00000e+00	
			         2.65833	3.00000e+00	
			         2.66000	3.00000e+00	
			         2.66167	3.00000e+00	
			         2.66333	3.00000e+00	
			         2.66500	2.00000e+00	
			         2.66667	1.00000e+00	
			         2.66833	0.00000e+00	
			         2.67000	0.00000e+00	
			         2.67167	-1.00000e+00	
			         2.67333	-2.00000e+00	
			         2.67500	-2.00000e+00	
			         2.67667	-3.00000e+00	
			         2.67833	-3.00000e+00	
			         2.68000	-3.00000e+00	
			         2.68167	-3.00000e+00	
			         2.68333	-3.00000e+00	
			         2.68500	-3.00000e+00	
			         2.68667	-2.00000e+00	
			         2.68833	-2.00000e+00	
			         2.69000	-2.00000e+00	
			         2.69167	-1.00000e+00	
			         2.69333	-1.00000e+00	
			         2.69500	-1.00000e+00	
			         2.69667	-1.00000e+00	
			         2.69833	-2.00000e+00	
			         2.70000	-2.00000e+00	
			         2.70167	-3.00000e+00	
			         2.70333	-4.00000e+00	
			         2.70500	-4.00000e+00	
			         2.70667	-5.00000e+00	
			         2.70833	-5.00000e+00	
			         2.71000	-6.00000e+00	
			         2.71167	-7.00000e+00	
			         2.71333	-7.00000e+00	
			         2.71500	-7.00000e+00	
			         2.71667	-7.00000e+00	
			         2.71833	-7.00000e+00	
			         2.72000	-6.00000e+00	
			         2.72167	-6.00000e+00	
			         2.72333	-5.00000e+00	
			         2.72500	-5.00000e+00	
			         2.72667	-5.00000e+00	
			         2.72833	-5.00000e+00	
			         2.73000	-4.00000e+00	
			         2.73167	-4.00000e+00	
			         2.73333	-3.00000e+00	
			         2.73500	-2.00000e+00	
			         2.73667	-1.00000e+00	
			         2.73833	0.00000e+00	
			         2.74000	1.00000e+00	
			         2.74167	1.00000e+00	
			         2.74333	2.00000e+00	
			         2.74500	2.00000e+00	
			         2.74667	3.00000e+00	
			         2.74833	3.00000e+00	
			         2.75000	3.00000e+00	
			         2.75167	3.00000e+00	
			         2.75333	3.00000e+00	
			         2.75500	3.00000e+00	
			         2.75667	3.00000e+00	
			         2.75833	3.00000e+00	
			         2.76000	2.00000e+00	
			         2.76167	2.00000e+00	
			         2.76333	1.00000e+00	
			         2.76500	1.00000e+00	
			         2.76667	0.00000e+00	
			         2.76833	0.00000e+00	
			         2.77000	-1.00000e+00	
			         2.77167	-2.00000e+00	
			         2.77333	-3.00000e+00	
			         2.77500	-3.00000e+00	
			         2.77667	-4.00000e+00	
			         2.77833	-4.00000e+00	
			         2.78000	-4.00000e+00	
			         2.78167	-4.00000e+00	
			         2.78333	-4.00000e+00	
			         2.78500	-4.00000e+00	
			         2.78667	-4.00000e+00	
			         2.78833	-3.00000e+00	
			         2.79000	-3.00000e+00	
			         2.79167	-2.00000e+00	
			         2.79333	-2.00000e+00	
			         2.79500	-2.00000e+00	
			         2.79667	-2.00000e+00	
			         2.79833	-2.00000e+00	
			         2.80000	-2.00000e+00	
			         2.80167	-3.00000e+00	
			         2.80333	-4.00000e+00	
			         2.80500	-6.00000e+00	
			         2.80667	-8.00000e+00	
			         2.80833	-1.00000e+01	
			         2.81000	-1.20000e+01	
			         2.81167	-1.50000e+01	
			         2.81333	-1.70000e+01	
			         2.81500	-2.00000e+01	
			         2.81667	-2.30000e+01	
			         2.81833	-2.70000e+01	
			         2.82000	-3.00000e+01	
			         2.82167	-3.30000e+01	
			         2.82333	-3.50000e+01	
			         2.82500	-3.70000e+01	
			         2.82667	-3.80000e+01	
			         2.82833	-3.90000e+01	
			         2.83000	-3.90000e+01	
			         2.83167	-3.90000e+01	
			         2.83333	-3.80000e+01	
			         2.83500	-3.70000e+01	
			         2.83667	-3.50000e+01	
			         2.83833	-3.40000e+01	
			         2.84000	-3.30000e+01	
			         2.84167	-3.10000e+01	
			         2.84333	-3.10000e+01	
			         2.84500	-3.00000e+01	
			         2.84667	-3.00000e+01	
			         2.84833	-3.10000e+01	
			         2.85000	-3.20000e+01	
			         2.85167	-3.40000e+01	
			         2.85333	-3.50000e+01	
			         2.85500	-3.70000e+01	
			         2.85667	-3.90000e+01	
			         2.85833	-4.00000e+01	
			         2.86000	-4.20000e+01	
			         2.86167	-4.30000e+01	
			         2.86333	-4.40000e+01	
			         2.86500	-4.40000e+01	
			         2.86667	-4.40000e+01	
			         2.86833	-4.30000e+01	
			         2.87000	-4.10000e+01	
			         2.87167	-3.90000e+01	
			         2.87333	-3.70000e+01	
			         2.87500	-3.40000e+01	
			         2.87667	-3.10000e+01	
			         2.87833	-2.80000e+01	
			         2.88000	-2.40000e+01	
			         2.88167	-2.10000e+01	
			         2.88333	-1.70000e+01	
			         2.88500	-1.40000e+01	
			         2.88667	-1.00000e+01	
			         2.88833	-8.00000e+00	
			         2.89000	-5.00000e+00	
			         2.89167	-3.00000e+00	
			         2.89333	-1.00000e+00	
			         2.89500	0.00000e+00	
			         2.89667	2.00000e+00	
			         2.89833	3.00000e+00	
			         2.90000	4.00000e+00	
			         2.90167	4.00000e+00	
			         2.90333	5.00000e+00	
			         2.90500	6.00000e+00	
			         2.90667	7.00000e+00	
			         2.90833	9.00000e+00	
			         2.91000	1.00000e+01	
			         2.91167	1.20000e+01	
			         2.91333	1.40000e+01	
			         2.91500	1.60000e+01	
			         2.91667	1.70000e+01	
			         2.91833	1.90000e+01	
			         2.92000	2.10000e+01	
			         2.92167	2.20000e+01	
			         2.92333	2.30000e+01	
			         2.92500	2.40000e+01	
			         2.92667	2.40000e+01	
			         2.92833	2.40000e+01	
			         2.93000	2.40000e+01	
			         2.93167	2.40000e+01	
			         2.93333	2.40000e+01	
			         2.93500	2.50000e+01	
			         2.93667	2.70000e+01	
			         2.93833	3.00000e+01	
			         2.94000	3.30000e+01	
			         2.94167	3.80000e+01	
			         2.94333	4.40000e+01	
			         2.94500	5.00000e+01	
			         2.94667	5.80000e+01	
			         2.94833	6.60000e+01	
			         2.95000	7.40000e+01	
			         2.95167	8.30000e+01	
			         2.95333	9.00000e+01	
			         2.95500	9.70000e+01	
			         2.95667	1.03000e+02	
			         2.95833	1.08000e+02	
			         2.96000	1.13000e+02	
			         2.96167	1.16000e+02	
			         2.96333	1.19000e+02	
			         2.96500	1.21000e+02	
			         2.96667	1.21000e+02	
			         2.96833	1.20000e+02	
			         2.97000	1.17000e+02	
			         2.97167	1.12000e+02	
			         2.97333	1.06000e+02	
			         2.97500	9.70000e+01	
			         2.97667	8.70000e+01	
			         2.97833	7.50000e+01	
			         2.98000	6.10000e+01	
			         2.98167	4.40000e+01	
			         2.98333	2.60000e+01	
			         2.98500	6.00000e+00	
			         2.98667	-1.50000e+01	
			         2.98833	-3.60000e+01	
			         2.99000	-5.70000e+01	
			         2.99167	-7.60000e+01	
			         2.99333	-9.40000e+01	
			         2.99500	-1.09000e+02	
			         2.99667	-1.21000e+02	
			         2.99833	-1.31000e+02	
			         3.00000	-1.37000e+02	
			         3.00167	-1.40000e+02	
			         3.00333	-1.39000e+02	
			         3.00500	-1.36000e+02	
			         3.00667	-1.29000e+02	
			         3.00833	-1.20000e+02	
			         3.01000	-1.10000e+02	
			         3.01167	-9.80000e+01	
			         3.01333	-8.50000e+01	
			         3.01500	-7.30000e+01	
			         3.01667	-6.00000e+01	
			         3.01833	-4.80000e+01	
			         3.02000	-3.60000e+01	
			         3.02167	-2.60000e+01	
			         3.02333	-1.70000e+01	
			         3.02500	-9.00000e+00	
			         3.02667	-2.00000e+00	
			         3.02833	4.00000e+00	
			         3.03000	9.00000e+00	
			         3.03167	1.40000e+01	
			         3.03333	1.80000e+01	
			         3.03500	2.20000e+01	
			         3.03667	2.40000e+01	
			         3.03833	2.60000e+01	
			         3.04000	2.80000e+01	
			         3.04167	2.90000e+01	
			         3.04333	3.00000e+01	
			         3.04500	3.00000e+01	
			         3.04667	3.00000e+01	
			         3.04833	3.00000e+01	
			         3.05000	2.90000e+01	
			         3.05167	2.80000e+01	
			         3.05333	2.70000e+01	
			         3.05500	2.60000e+01	
			         3.05667	2.40000e+01	
			         3.05833	2.30000e+01	
			         3.06000	2.20000e+01	
			         3.06167	2.10000e+01	
			         3.06333	1.90000e+01	
			         3.06500	1.80000e+01	
			         3.06667	1.70000e+01	
			         3.06833	1.70000e+01	
			         3.07000	1.60000e+01	
			         3.07167	1.60000e+01	
			         3.07333	1.50000e+01	
			         3.07500	1.40000e+01	
			         3.07667	1.40000e+01	
			         3.07833	1.30000e+01	
			         3.08000	1.20000e+01	
			         3.08167	1.20000e+01	
			         3.08333	1.10000e+01	
