Velocity (TVI), in cm/s

Time (s) :	Trace 1 : 		Ecg : 		
0.02531   	-3.53611e+00		         0.00000	-4.00000e+00	
0.03223   	-3.13769e+00		         0.00167	-2.00000e+00	
0.03888   	-2.91253e+00		         0.00333	0.00000e+00	
0.04552   	-1.71068e+00		         0.00500	3.00000e+00	
0.05216   	-1.56665e+00		         0.00667	6.00000e+00	
0.05938   	-2.18002e+00		         0.00833	1.00000e+01	
0.06572   	-2.25541e+00		         0.01000	1.40000e+01	
0.07236   	-2.10054e+00		         0.01167	1.90000e+01	
0.07901   	-1.63555e+00		         0.01333	2.50000e+01	
0.08592   	-6.50606e-01		         0.01500	3.20000e+01	
0.09256   	7.75620e-01		         0.01667	4.00000e+01	
0.09921   	2.53244e+00		         0.01833	5.00000e+01	
0.10585   	4.12956e+00		         0.02000	6.20000e+01	
0.11277   	5.30375e+00		         0.02167	7.60000e+01	
0.11941   	6.30701e+00		         0.02333	9.30000e+01	
0.12605   	7.08378e+00		         0.02500	1.12000e+02	
0.13270   	7.23868e+00		         0.02667	1.33000e+02	
0.13962   	7.24129e+00		         0.02833	1.56000e+02	
0.14626   	7.12680e+00		         0.03000	1.80000e+02	
0.15290   	6.84608e+00		         0.03167	2.04000e+02	
0.15955   	6.64048e+00		         0.03333	2.27000e+02	
0.16646   	6.43749e+00		         0.03500	2.47000e+02	
0.17310   	6.28150e+00		         0.03667	2.63000e+02	
0.17975   	6.12969e+00		         0.03833	2.73000e+02	
0.18639   	6.19346e+00		         0.04000	2.76000e+02	
0.19331   	6.15117e+00		         0.04167	2.72000e+02	
0.19995   	6.13045e+00		         0.04333	2.60000e+02	
0.20659   	6.12019e+00		         0.04500	2.41000e+02	
0.21324   	6.09036e+00		         0.04667	2.14000e+02	
0.22016   	6.00938e+00		         0.04833	1.80000e+02	
0.22680   	5.90079e+00		         0.05000	1.42000e+02	
0.23344   	5.72575e+00		         0.05167	1.00000e+02	
0.24008   	5.55277e+00		         0.05333	5.80000e+01	
0.24700   	5.34487e+00		         0.05500	1.50000e+01	
0.25364   	5.18209e+00		         0.05667	-2.40000e+01	
0.26029   	4.99694e+00		         0.05833	-6.00000e+01	
0.26693   	4.82253e+00		         0.06000	-9.10000e+01	
0.27385   	4.64437e+00		         0.06167	-1.16000e+02	
0.28049   	4.38542e+00		         0.06333	-1.35000e+02	
0.28713   	4.06984e+00		         0.06500	-1.48000e+02	
0.29378   	3.74924e+00		         0.06667	-1.55000e+02	
0.30069   	3.50985e+00		         0.06833	-1.57000e+02	
0.30733   	3.25443e+00		         0.07000	-1.54000e+02	
0.31398   	3.06020e+00		         0.07167	-1.48000e+02	
0.32062   	2.86047e+00		         0.07333	-1.39000e+02	
0.32754   	2.64551e+00		         0.07500	-1.28000e+02	
0.33418   	2.40659e+00		         0.07667	-1.16000e+02	
0.34082   	2.17437e+00		         0.07833	-1.03000e+02	
0.34750   	1.89708e+00		         0.08000	-9.10000e+01	
0.35439   	1.53524e+00		         0.08167	-8.00000e+01	
0.36103   	8.62944e-01		         0.08333	-7.00000e+01	
0.36767   	-7.12686e-02		         0.08500	-6.00000e+01	
0.37431   	-1.02012e+00		         0.08667	-5.20000e+01	
0.38123   	-1.52631e+00		         0.08833	-4.50000e+01	
0.38787   	-1.82029e+00		         0.09000	-3.90000e+01	
0.39452   	-1.87306e+00		         0.09167	-3.40000e+01	
0.40117   	-1.41922e+00		         0.09333	-2.90000e+01	
0.40808   	-9.89971e-01		         0.09500	-2.60000e+01	
0.41472   	-7.66096e-01		         0.09667	-2.30000e+01	
0.42136   	-7.99691e-01		         0.09833	-2.00000e+01	
0.42801   	-2.25676e-01		         0.10000	-1.80000e+01	
0.43492   	-2.20753e-02		         0.10167	-1.60000e+01	
0.44157   	-1.10253e-01		         0.10333	-1.40000e+01	
0.44822   	-9.49685e-01		         0.10500	-1.30000e+01	
0.45485   	-1.15096e+00		         0.10667	-1.20000e+01	
0.46177   	-2.05588e+00		         0.10833	-1.10000e+01	
0.46842   	-3.06736e+00		         0.11000	-1.10000e+01	
0.47506   	-3.80396e+00		         0.11167	-1.00000e+01	
0.48170   	-3.94467e+00		         0.11333	-1.00000e+01	
0.48862   	-4.55461e+00		         0.11500	-1.00000e+01	
0.49526   	-4.69549e+00		         0.11667	-9.00000e+00	
0.50190   	-4.53897e+00		         0.11833	-9.00000e+00	
0.50855   	-4.52860e+00		         0.12000	-8.00000e+00	
0.51546   	-4.42608e+00		         0.12167	-8.00000e+00	
0.52210   	-4.27976e+00		         0.12333	-7.00000e+00	
0.52875   	-4.50796e+00		         0.12500	-7.00000e+00	
0.53539   	-4.79344e+00		         0.12667	-6.00000e+00	
0.54231   	-4.79577e+00		         0.12833	-6.00000e+00	
0.54895   	-4.81797e+00		         0.13000	-6.00000e+00	
0.55560   	-4.84395e+00		         0.13167	-6.00000e+00	
0.56224   	-4.72255e+00		         0.13333	-6.00000e+00	
0.56916   	-4.59860e+00		         0.13500	-7.00000e+00	
0.57580   	-4.38166e+00		         0.13667	-7.00000e+00	
0.58244   	-4.06830e+00		         0.13833	-8.00000e+00	
0.58909   	-3.77776e+00		         0.14000	-9.00000e+00	
0.59600   	-3.43542e+00		         0.14167	-9.00000e+00	
0.60265   	-2.99864e+00		         0.14333	-1.00000e+01	
0.60929   	-2.63216e+00		         0.14500	-1.10000e+01	
0.61593   	-2.55126e+00		         0.14667	-1.10000e+01	
0.62285   	-2.28716e+00		         0.14833	-1.10000e+01	
0.62949   	-1.98999e+00		         0.15000	-1.10000e+01	
0.63614   	-1.74213e+00		         0.15167	-1.00000e+01	
0.64278   	-1.50585e+00		         0.15333	-9.00000e+00	
0.64970   	-1.13390e+00		         0.15500	-8.00000e+00	
0.65634   	-1.14444e+00		         0.15667	-7.00000e+00	
0.66298   	-1.10717e+00		         0.15833	-5.00000e+00	
0.66962   	-9.29960e-01		         0.16000	-4.00000e+00	
0.67654   	-8.05714e-01		         0.16167	-3.00000e+00	
0.68318   	-6.33641e-01		         0.16333	-1.00000e+00	
0.68983   	-2.49315e-01		         0.16500	0.00000e+00	
0.69647   	-1.17349e-02		         0.16667	1.00000e+00	
0.70339   	6.02480e-02		         0.16833	2.00000e+00	
0.71003   	9.02546e-02		         0.17000	2.00000e+00	
0.71667   	-3.78026e-02		         0.17167	3.00000e+00	
0.72344   	-3.92938e-01		         0.17333	3.00000e+00	
0.73023   	-8.69140e-01		         0.17500	3.00000e+00	
0.73687   	-1.54859e+00		         0.17667	3.00000e+00	
0.74352   	-2.45263e+00		         0.17833	3.00000e+00	
0.75017   	-3.62749e+00		         0.18000	3.00000e+00	
0.75708   	-4.79829e+00		         0.18167	4.00000e+00	
0.76372   	-6.55165e+00		         0.18333	4.00000e+00	
0.77036   	-8.09056e+00		         0.18500	5.00000e+00	
0.77701   	-9.28619e+00		         0.18667	5.00000e+00	
0.78393   	-1.03325e+01		         0.18833	6.00000e+00	
0.79057   	-1.11162e+01		         0.19000	7.00000e+00	
0.79722   	-1.09875e+01		         0.19167	8.00000e+00	
0.80386   	-1.07123e+01		         0.19333	9.00000e+00	
0.81077   	-1.01488e+01		         0.19500	1.10000e+01	
0.81742   	-9.08573e+00		         0.19667	1.20000e+01	
0.82406   	-7.94086e+00		         0.19833	1.40000e+01	
0.83070   	-6.57276e+00		         0.20000	1.50000e+01	
0.83762   	-5.27991e+00		         0.20167	1.60000e+01	
0.84426   	-3.93518e+00		         0.20333	1.80000e+01	
0.85091   	-2.96543e+00		         0.20500	2.00000e+01	
0.85755   	-2.34910e+00		         0.20667	2.10000e+01	
0.86447   	-1.89752e+00		         0.20833	2.30000e+01	
0.87111   	-1.18261e+00		         0.21000	2.40000e+01	
0.87775   	-7.36974e-01		         0.21167	2.60000e+01	
0.88440   	-1.45964e-01		         0.21333	2.80000e+01	
0.89131   	4.63671e-01		         0.21500	3.00000e+01	
0.89796   	1.95496e-01		         0.21667	3.30000e+01	
0.90460   	-7.92252e-01		         0.21833	3.50000e+01	
0.91124   	-1.30826e+00		         0.22000	3.80000e+01	
0.91816   	-1.49635e+00		         0.22167	4.00000e+01	
0.92480   	-1.76131e+00		         0.22333	4.30000e+01	
0.93144   	-9.30067e-01		         0.22500	4.60000e+01	
0.93809   	7.94825e-01		         0.22667	4.80000e+01	
0.94500   	2.26632e+00		         0.22833	5.10000e+01	
0.95165   	3.63715e+00		         0.23000	5.40000e+01	
0.95829   	5.38200e+00		         0.23167	5.60000e+01	
0.96493   	6.53362e+00		         0.23333	5.90000e+01	
0.97185   	7.13643e+00		         0.23500	6.20000e+01	
0.97849   	7.36510e+00		         0.23667	6.50000e+01	
0.98514   	7.27452e+00		         0.23833	6.80000e+01	
0.99178   	7.06970e+00		         0.24000	7.10000e+01	
0.99870   	6.92957e+00		         0.24167	7.40000e+01	
1.00534   	6.74271e+00		         0.24333	7.70000e+01	
1.01198   	6.64779e+00		         0.24500	8.10000e+01	
1.01863   	6.53492e+00		         0.24667	8.40000e+01	
1.02554   	6.48474e+00		         0.24833	8.80000e+01	
1.03219   	6.40921e+00		         0.25000	9.10000e+01	
1.03896   	6.39098e+00		         0.25167	9.40000e+01	
1.04547   	6.36575e+00		         0.25333	9.80000e+01	
1.05239   	6.36742e+00		         0.25500	1.01000e+02	
1.05932   	6.27403e+00		         0.25667	1.04000e+02	
1.06568   	6.26753e+00		         0.25833	1.07000e+02	
1.07232   	6.24004e+00		         0.26000	1.09000e+02	
1.07924   	6.07888e+00		         0.26167	1.12000e+02	
1.08588   	5.90897e+00		         0.26333	1.13000e+02	
1.09252   	5.68269e+00		         0.26500	1.15000e+02	
1.09917   	5.43864e+00		         0.26667	1.16000e+02	
1.10608   	5.14247e+00		         0.26833	1.17000e+02	
1.11273   	4.87985e+00		         0.27000	1.18000e+02	
1.11937   	4.68976e+00		         0.27167	1.19000e+02	
1.12601   	4.55105e+00		         0.27333	1.19000e+02	
1.13293   	4.29541e+00		         0.27500	1.19000e+02	
1.13957   	4.08129e+00		         0.27667	1.19000e+02	
1.14621   	3.91874e+00		         0.27833	1.18000e+02	
1.15286   	3.57919e+00		         0.28000	1.16000e+02	
1.15978   	3.29937e+00		         0.28167	1.15000e+02	
1.16642   	3.03384e+00		         0.28333	1.12000e+02	
1.17306   	2.85395e+00		         0.28500	1.10000e+02	
1.17970   	2.47645e+00		         0.28667	1.07000e+02	
1.18662   	2.27267e+00		         0.28833	1.03000e+02	
1.19326   	1.93769e+00		         0.29000	9.90000e+01	
1.19991   	1.45331e+00		         0.29167	9.50000e+01	
1.20655   	5.81428e-01		         0.29333	9.10000e+01	
1.21347   	-1.65833e-01		         0.29500	8.60000e+01	
1.22011   	-1.18040e+00		         0.29667	8.10000e+01	
1.22676   	-1.90412e+00		         0.29833	7.60000e+01	
1.23340   	-2.44672e+00		         0.30000	7.20000e+01	
1.24031   	-2.50748e+00		         0.30167	6.70000e+01	
1.24695   	-2.35039e+00		         0.30333	6.20000e+01	
1.25360   	-1.83558e+00		         0.30500	5.70000e+01	
1.26024   	-1.49010e+00		         0.30667	5.20000e+01	
1.26716   	-9.11460e-01		         0.30833	4.70000e+01	
1.27380   	4.42123e-04		         0.31000	4.20000e+01	
1.28045   	5.21483e-01		         0.31167	3.70000e+01	
1.28709   	7.37853e-01		         0.31333	3.20000e+01	
1.29400   	9.80971e-01		         0.31500	2.70000e+01	
1.30065   	7.97656e-01		         0.31667	2.20000e+01	
1.30729   	-3.55631e-01		         0.31833	1.60000e+01	
1.31394   	-1.25119e+00		         0.32000	1.10000e+01	
1.32102   	-2.07331e+00		         0.32167	5.00000e+00	
1.32750   	-2.77350e+00		         0.32333	0.00000e+00	
1.33414   	-3.31813e+00		         0.32500	-6.00000e+00	
1.34078   	-3.53131e+00		         0.32667	-1.20000e+01	
1.34770   	-3.74383e+00		         0.32833	-1.70000e+01	
1.35446   	-3.86851e+00		         0.33000	-2.20000e+01	
1.36098   	-4.25597e+00		         0.33167	-2.70000e+01	
1.36763   	-4.63201e+00		         0.33333	-3.20000e+01	
1.37454   	-4.74881e+00		         0.33500	-3.60000e+01	
1.38119   	-4.85089e+00		         0.33667	-4.00000e+01	
1.38783   	-4.91275e+00		         0.33833	-4.40000e+01	
1.39447   	-4.83940e+00		         0.34000	-4.80000e+01	
1.40139   	-4.67599e+00		         0.34167	-5.20000e+01	
1.40803   	-4.54569e+00		         0.34333	-5.60000e+01	
1.41468   	-4.44440e+00		         0.34500	-5.90000e+01	
1.42132   	-4.27094e+00		         0.34667	-6.20000e+01	
1.42823   	-4.03674e+00		         0.34833	-6.50000e+01	
1.43488   	-3.76921e+00		         0.35000	-6.80000e+01	
1.44152   	-3.47399e+00		         0.35167	-7.00000e+01	
1.44817   	-3.12271e+00		         0.35333	-7.20000e+01	
1.45508   	-2.69255e+00		         0.35500	-7.40000e+01	
1.46173   	-2.31523e+00		         0.35667	-7.50000e+01	
1.46837   	-1.96040e+00		         0.35833	-7.60000e+01	
1.47502   	-1.68747e+00		         0.36000	-7.60000e+01	
1.48193   	-1.40368e+00		         0.36167	-7.70000e+01	
1.48857   	-1.30756e+00		         0.36333	-7.70000e+01	
1.49522   	-1.08917e+00		         0.36500	-7.60000e+01	
1.50186   	-1.04282e+00		         0.36667	-7.60000e+01	
1.50878   	-8.61230e-01		         0.36833	-7.50000e+01	
1.51542   	-7.21338e-01		         0.37000	-7.50000e+01	
1.52206   	-4.94018e-01		         0.37167	-7.50000e+01	
1.52871   	-3.66427e-01		         0.37333	-7.40000e+01	
1.53562   	-4.24752e-02		         0.37500	-7.40000e+01	
1.54226   	1.51811e-01		         0.37667	-7.40000e+01	
1.54891   	2.87456e-01		         0.37833	-7.40000e+01	
1.55555   	3.36865e-01		         0.38000	-7.40000e+01	
1.56247   	2.95644e-01		         0.38167	-7.40000e+01	
1.56911   	1.70125e-01		         0.38333	-7.30000e+01	
1.57576   	-1.39034e-01		         0.38500	-7.30000e+01	
1.58240   	-7.67442e-01		         0.38667	-7.30000e+01	
1.58931   	-1.37283e+00		         0.38833	-7.20000e+01	
1.59596   	-2.34690e+00		         0.39000	-7.10000e+01	
1.60260   	-3.60176e+00		         0.39167	-7.10000e+01	
1.60925   	-5.11686e+00		         0.39333	-6.90000e+01	
1.61616   	-6.53606e+00		         0.39500	-6.80000e+01	
1.62280   	-8.10957e+00		         0.39667	-6.70000e+01	
1.62945   	-9.33425e+00		         0.39833	-6.50000e+01	
1.63609   	-1.02168e+01		         0.40000	-6.40000e+01	
1.64301   	-1.05072e+01		         0.40167	-6.20000e+01	
1.64965   	-1.06651e+01		         0.40333	-6.10000e+01	
1.65629   	-1.03212e+01		         0.40500	-5.90000e+01	
1.66294   	-9.63041e+00		         0.40667	-5.70000e+01	
1.66985   	-8.76240e+00		         0.40833	-5.60000e+01	
1.67650   	-7.64531e+00		         0.41000	-5.40000e+01	
1.68314   	-6.08867e+00		         0.41167	-5.20000e+01	
1.68978   	-4.82657e+00		         0.41333	-5.10000e+01	
1.69670   	-3.59365e+00		         0.41500	-4.90000e+01	
1.70334   	-2.71001e+00		         0.41667	-4.70000e+01	
1.70999   	-2.12838e+00		         0.41833	-4.60000e+01	
1.71663   	-1.63734e+00		         0.42000	-4.40000e+01	
1.72355   	-9.70426e-01		         0.42167	-4.30000e+01	
1.73019   	-4.33692e-01		         0.42333	-4.10000e+01	
1.73683   	1.16338e-01		         0.42500	-4.00000e+01	
1.74348   	7.58010e-01		         0.42667	-3.90000e+01	
1.75039   	4.20407e-01		         0.42833	-3.80000e+01	
1.75719   	-4.83421e-01		         0.43000	-3.70000e+01	
1.76368   	-9.83102e-01		         0.43167	-3.70000e+01	
1.77032   	-1.08743e+00		         0.43333	-3.60000e+01	
1.77723   	-1.10400e+00		         0.43500	-3.60000e+01	
1.78388   	-4.70903e-01		         0.43667	-3.50000e+01	
1.79053   	1.02139e+00		         0.43833	-3.50000e+01	
1.79717   	2.46371e+00		         0.44000	-3.40000e+01	
1.80408   	3.91050e+00		         0.44167	-3.40000e+01	
1.81073   	5.16460e+00		         0.44333	-3.30000e+01	
1.81737   	6.58263e+00		         0.44500	-3.30000e+01	
1.82402   	7.47080e+00		         0.44667	-3.20000e+01	
1.83093   	7.75897e+00		         0.44833	-3.10000e+01	
1.83757   	7.62982e+00		         0.45000	-3.00000e+01	
1.84422   	7.39304e+00		         0.45167	-2.90000e+01	
1.85086   	7.06461e+00		         0.45333	-2.80000e+01	
1.85778   	6.72478e+00		         0.45500	-2.70000e+01	
1.86442   	6.53579e+00		         0.45667	-2.60000e+01	
1.87106   	6.52130e+00		         0.45833	-2.60000e+01	
1.87771   	6.49754e+00		         0.46000	-2.50000e+01	
1.88462   	6.54146e+00		         0.46167	-2.50000e+01	
1.89127   	6.55570e+00		         0.46333	-2.40000e+01	
1.89791   	6.55381e+00		         0.46500	-2.40000e+01	
1.90455   	6.51938e+00		         0.46667	-2.30000e+01	
1.91147   	6.50018e+00		         0.46833	-2.30000e+01	
1.91811   	6.32000e+00		         0.47000	-2.30000e+01	
1.92476   	6.20001e+00		         0.47167	-2.30000e+01	
1.93140   	6.01197e+00		         0.47333	-2.30000e+01	
1.93831   	5.85812e+00		         0.47500	-2.20000e+01	
1.94496   	5.63120e+00		         0.47667	-2.20000e+01	
1.95160   	5.51714e+00		         0.47833	-2.20000e+01	
1.95825   	5.26961e+00		         0.48000	-2.10000e+01	
1.96516   	5.04168e+00		         0.48167	-2.10000e+01	
1.97180   	4.70189e+00		         0.48333	-2.10000e+01	
1.97845   	4.48371e+00		         0.48500	-2.10000e+01	
1.98538   	4.20034e+00		         0.48667	-2.00000e+01	
1.99201   	3.95126e+00		         0.48833	-2.00000e+01	
1.99865   	3.74922e+00		         0.49000	-2.00000e+01	
2.00529   	3.58883e+00		         0.49167	-2.00000e+01	
2.01194   	3.36376e+00		         0.49333	-2.00000e+01	
2.01885   	3.03515e+00		         0.49500	-2.10000e+01	
2.02550   	2.79706e+00		         0.49667	-2.10000e+01	
2.03214   	2.53956e+00		         0.49833	-2.10000e+01	
2.03878   	2.22277e+00		         0.50000	-2.10000e+01	
2.04570   	1.78191e+00		         0.50167	-2.10000e+01	
2.05234   	1.17851e+00		         0.50333	-2.10000e+01	
2.05899   	2.20991e-01		         0.50500	-2.10000e+01	
2.06563   	-8.85882e-01		         0.50667	-2.10000e+01	
2.07255   	-1.86214e+00		         0.50833	-2.20000e+01	
2.07919   	-2.52090e+00		         0.51000	-2.20000e+01	
2.08583   	-2.55940e+00		         0.51167	-2.20000e+01	
2.09248   	-1.99776e+00		         0.51333	-2.20000e+01	
2.09939   	-1.24142e+00		         0.51500	-2.20000e+01	
2.10604   	-6.00502e-01		         0.51667	-2.20000e+01	
2.11268   	4.29727e-01		         0.51833	-2.20000e+01	
2.11932   	1.24913e+00		         0.52000	-2.20000e+01	
2.12624   	1.88949e+00		         0.52167	-2.20000e+01	
2.13288   	2.15219e+00		         0.52333	-2.20000e+01	
2.13953   	2.69120e+00		         0.52500	-2.20000e+01	
2.14617   	1.63872e+00		         0.52667	-2.20000e+01	
2.15308   	8.68234e-01		         0.52833	-2.10000e+01	
2.15973   	-1.77132e+00		         0.53000	-2.10000e+01	
2.16637   	-3.16315e+00		         0.53167	-2.10000e+01	
2.17302   	-4.22823e+00		         0.53333	-2.00000e+01	
2.17993   	-4.82515e+00		         0.53500	-2.00000e+01	
2.18657   	-5.69065e+00		         0.53667	-1.90000e+01	
2.19322   	-4.88262e+00		         0.53833	-1.90000e+01	
2.19986   	-4.93533e+00		         0.54000	-1.80000e+01	
2.20678   	-5.39597e+00		         0.54167	-1.80000e+01	
2.21342   	-5.13190e+00		         0.54333	-1.80000e+01	
2.22006   	-5.00924e+00		         0.54500	-1.70000e+01	
2.22671   	-4.73298e+00		         0.54667	-1.70000e+01	
2.23362   	-4.31717e+00		         0.54833	-1.70000e+01	
2.24027   	-4.00011e+00		         0.55000	-1.70000e+01	
2.24691   	-3.69039e+00		         0.55167	-1.70000e+01	
2.25355   	-3.32805e+00		         0.55333	-1.70000e+01	
2.26047   	-2.94592e+00		         0.55500	-1.80000e+01	
2.26711   	-2.69109e+00		         0.55667	-1.80000e+01	
2.27376   	-2.40102e+00		         0.55833	-1.80000e+01	
2.28040   	-2.24696e+00		         0.56000	-1.80000e+01	
2.28732   	-2.08891e+00		         0.56167	-1.90000e+01	
2.29396   	-2.02879e+00		         0.56333	-1.90000e+01	
2.30089   	-1.98520e+00		         0.56500	-1.90000e+01	
2.30725   	-1.87721e+00		         0.56667	-1.90000e+01	
2.31416   	-1.80170e+00		         0.56833	-1.90000e+01	
2.32091   	-1.76594e+00		         0.57000	-1.90000e+01	
2.32745   	-1.61910e+00		         0.57167	-2.00000e+01	
2.33410   	-1.49678e+00		         0.57333	-2.00000e+01	
2.34101   	-1.47555e+00		         0.57500	-2.00000e+01	
2.34765   	-1.40151e+00		         0.57667	-2.00000e+01	
2.35429   	-1.33220e+00		         0.57833	-2.00000e+01	
2.36094   	-1.24572e+00		         0.58000	-2.00000e+01	
2.36785   	-1.14814e+00		         0.58167	-2.00000e+01	
2.37450   	-9.88126e-01		         0.58333	-1.90000e+01	
2.38114   	-8.36088e-01		         0.58500	-1.90000e+01	
2.38779   	-6.47764e-01		         0.58667	-1.90000e+01	
2.39470   	-5.56592e-01		         0.58833	-1.90000e+01	
2.40134   	-4.81581e-01		         0.59000	-1.90000e+01	
2.40799   	-4.56993e-01		         0.59167	-1.90000e+01	
2.41463   	-4.91895e-01		         0.59333	-1.90000e+01	
2.42155   	-5.92853e-01		         0.59500	-1.90000e+01	
2.42819   	-7.03551e-01		         0.59667	-1.80000e+01	
2.43483   	-9.71934e-01		         0.59833	-1.80000e+01	
2.44148   	-1.40223e+00		         0.60000	-1.80000e+01	
2.44839   	-1.97285e+00		         0.60167	-1.70000e+01	
2.45504   	-2.84328e+00		         0.60333	-1.70000e+01	
2.46168   	-3.89906e+00		         0.60500	-1.70000e+01	
2.46833   	-5.28045e+00		         0.60667	-1.60000e+01	
2.47524   	-6.57593e+00		         0.60833	-1.50000e+01	
2.48188   	-7.85885e+00		         0.61000	-1.50000e+01	
2.48853   	-8.81203e+00		         0.61167	-1.40000e+01	
2.49517   	-9.44215e+00		         0.61333	-1.30000e+01	
2.50209   	-9.51171e+00		         0.61500	-1.30000e+01	
2.50873   	-9.21902e+00		         0.61667	-1.20000e+01	
2.51537   	-8.64250e+00		         0.61833	-1.20000e+01	
2.52202   	-7.94509e+00		         0.62000	-1.20000e+01	
2.52893   	-7.23946e+00		         0.62167	-1.20000e+01	
2.53557   	-6.51094e+00		         0.62333	-1.20000e+01	
2.54222   	-5.66234e+00		         0.62500	-1.20000e+01	
2.54886   	-5.21763e+00		         0.62667	-1.30000e+01	
2.55578   	-4.57226e+00		         0.62833	-1.30000e+01	
2.56242   	-4.10970e+00		         0.63000	-1.30000e+01	
2.56907   	-3.83653e+00		         0.63167	-1.30000e+01	
2.57571   	-3.47297e+00		         0.63333	-1.40000e+01	
2.58274   	-2.58132e+00		         0.63500	-1.40000e+01	
2.58927   	-1.91789e+00		         0.63667	-1.30000e+01	
2.59591   	-2.01216e+00		         0.63833	-1.30000e+01	
2.60256   	-2.16879e+00		         0.64000	-1.20000e+01	
2.60947   	-2.32742e+00		         0.64167	-1.10000e+01	
2.61650   	-2.99897e+00		         0.64333	-1.10000e+01	
			         0.64500	-1.00000e+01	
			         0.64667	-9.00000e+00	
			         0.64833	-9.00000e+00	
			         0.65000	-9.00000e+00	
			         0.65167	-9.00000e+00	
			         0.65333	-9.00000e+00	
			         0.65500	-1.00000e+01	
			         0.65667	-1.00000e+01	
			         0.65833	-1.10000e+01	
			         0.66000	-1.10000e+01	
			         0.66167	-1.20000e+01	
			         0.66333	-1.20000e+01	
			         0.66500	-1.30000e+01	
			         0.66667	-1.30000e+01	
			         0.66833	-1.30000e+01	
			         0.67000	-1.20000e+01	
			         0.67167	-1.20000e+01	
			         0.67333	-1.10000e+01	
			         0.67500	-9.00000e+00	
			         0.67667	-8.00000e+00	
			         0.67833	-5.00000e+00	
			         0.68000	-2.00000e+00	
			         0.68167	1.00000e+00	
			         0.68333	4.00000e+00	
			         0.68500	8.00000e+00	
			         0.68667	1.10000e+01	
			         0.68833	1.50000e+01	
			         0.69000	1.90000e+01	
			         0.69167	2.20000e+01	
			         0.69333	2.50000e+01	
			         0.69500	2.70000e+01	
			         0.69667	2.90000e+01	
			         0.69833	3.10000e+01	
			         0.70000	3.20000e+01	
			         0.70167	3.20000e+01	
			         0.70333	3.30000e+01	
			         0.70500	3.30000e+01	
			         0.70667	3.20000e+01	
			         0.70833	3.20000e+01	
			         0.71000	3.20000e+01	
			         0.71167	3.20000e+01	
			         0.71333	3.10000e+01	
			         0.71500	3.00000e+01	
			         0.71667	2.90000e+01	
			         0.71833	2.80000e+01	
			         0.72000	2.60000e+01	
			         0.72167	2.40000e+01	
			         0.72333	2.20000e+01	
			         0.72500	2.00000e+01	
			         0.72667	1.80000e+01	
			         0.72833	1.60000e+01	
			         0.73000	1.30000e+01	
			         0.73167	1.10000e+01	
			         0.73333	1.00000e+01	
			         0.73500	8.00000e+00	
			         0.73667	7.00000e+00	
			         0.73833	6.00000e+00	
			         0.74000	4.00000e+00	
			         0.74167	3.00000e+00	
			         0.74333	2.00000e+00	
			         0.74500	0.00000e+00	
			         0.74667	-2.00000e+00	
			         0.74833	-5.00000e+00	
			         0.75000	-7.00000e+00	
			         0.75167	-1.00000e+01	
			         0.75333	-1.30000e+01	
			         0.75500	-1.60000e+01	
			         0.75667	-1.90000e+01	
			         0.75833	-2.10000e+01	
			         0.76000	-2.40000e+01	
			         0.76167	-2.60000e+01	
			         0.76333	-2.70000e+01	
			         0.76500	-2.90000e+01	
			         0.76667	-3.00000e+01	
			         0.76833	-3.10000e+01	
			         0.77000	-3.20000e+01	
			         0.77167	-3.30000e+01	
			         0.77333	-3.40000e+01	
			         0.77500	-3.50000e+01	
			         0.77667	-3.60000e+01	
			         0.77833	-3.70000e+01	
			         0.78000	-3.80000e+01	
			         0.78167	-3.90000e+01	
			         0.78333	-3.90000e+01	
			         0.78500	-3.90000e+01	
			         0.78667	-3.80000e+01	
			         0.78833	-3.80000e+01	
			         0.79000	-3.60000e+01	
			         0.79167	-3.50000e+01	
			         0.79333	-3.30000e+01	
			         0.79500	-3.20000e+01	
			         0.79667	-3.00000e+01	
			         0.79833	-2.80000e+01	
			         0.80000	-2.70000e+01	
			         0.80167	-2.50000e+01	
			         0.80333	-2.40000e+01	
			         0.80500	-2.30000e+01	
			         0.80667	-2.20000e+01	
			         0.80833	-2.10000e+01	
			         0.81000	-2.00000e+01	
			         0.81167	-2.00000e+01	
			         0.81333	-1.90000e+01	
			         0.81500	-1.90000e+01	
			         0.81667	-1.90000e+01	
			         0.81833	-1.90000e+01	
			         0.82000	-1.90000e+01	
			         0.82167	-1.90000e+01	
			         0.82333	-1.90000e+01	
			         0.82500	-1.90000e+01	
			         0.82667	-2.00000e+01	
			         0.82833	-2.00000e+01	
			         0.83000	-2.00000e+01	
			         0.83167	-2.00000e+01	
			         0.83333	-2.00000e+01	
			         0.83500	-2.00000e+01	
			         0.83667	-2.00000e+01	
			         0.83833	-1.90000e+01	
			         0.84000	-1.90000e+01	
			         0.84167	-1.90000e+01	
			         0.84333	-1.80000e+01	
			         0.84500	-1.80000e+01	
			         0.84667	-1.70000e+01	
			         0.84833	-1.50000e+01	
			         0.85000	-1.30000e+01	
			         0.85167	-1.10000e+01	
			         0.85333	-8.00000e+00	
			         0.85500	-4.00000e+00	
			         0.85667	0.00000e+00	
			         0.85833	6.00000e+00	
			         0.86000	1.20000e+01	
			         0.86167	1.90000e+01	
			         0.86333	2.80000e+01	
			         0.86500	3.70000e+01	
			         0.86667	4.90000e+01	
			         0.86833	6.20000e+01	
			         0.87000	7.80000e+01	
			         0.87167	9.60000e+01	
			         0.87333	1.15000e+02	
			         0.87500	1.37000e+02	
			         0.87667	1.60000e+02	
			         0.87833	1.83000e+02	
			         0.88000	2.06000e+02	
			         0.88167	2.27000e+02	
			         0.88333	2.44000e+02	
			         0.88500	2.56000e+02	
			         0.88667	2.62000e+02	
			         0.88833	2.62000e+02	
			         0.89000	2.54000e+02	
			         0.89167	2.38000e+02	
			         0.89333	2.15000e+02	
			         0.89500	1.85000e+02	
			         0.89667	1.49000e+02	
			         0.89833	1.09000e+02	
			         0.90000	6.80000e+01	
			         0.90167	2.60000e+01	
			         0.90333	-1.50000e+01	
			         0.90500	-5.10000e+01	
			         0.90667	-8.30000e+01	
			         0.90833	-1.10000e+02	
			         0.91000	-1.30000e+02	
			         0.91167	-1.45000e+02	
			         0.91333	-1.53000e+02	
			         0.91500	-1.56000e+02	
			         0.91667	-1.54000e+02	
			         0.91833	-1.48000e+02	
			         0.92000	-1.39000e+02	
			         0.92167	-1.28000e+02	
			         0.92333	-1.16000e+02	
			         0.92500	-1.04000e+02	
			         0.92667	-9.10000e+01	
			         0.92833	-8.00000e+01	
			         0.93000	-7.00000e+01	
			         0.93167	-6.10000e+01	
			         0.93333	-5.30000e+01	
			         0.93500	-4.60000e+01	
			         0.93667	-4.10000e+01	
			         0.93833	-3.60000e+01	
			         0.94000	-3.30000e+01	
			         0.94167	-3.10000e+01	
			         0.94333	-2.90000e+01	
			         0.94500	-2.70000e+01	
			         0.94667	-2.60000e+01	
			         0.94833	-2.50000e+01	
			         0.95000	-2.40000e+01	
			         0.95167	-2.30000e+01	
			         0.95333	-2.20000e+01	
			         0.95500	-2.00000e+01	
			         0.95667	-1.90000e+01	
			         0.95833	-1.80000e+01	
			         0.96000	-1.70000e+01	
			         0.96167	-1.50000e+01	
			         0.96333	-1.40000e+01	
			         0.96500	-1.30000e+01	
			         0.96667	-1.20000e+01	
			         0.96833	-1.10000e+01	
			         0.97000	-1.10000e+01	
			         0.97167	-1.00000e+01	
			         0.97333	-1.00000e+01	
			         0.97500	-1.00000e+01	
			         0.97667	-1.00000e+01	
			         0.97833	-1.00000e+01	
			         0.98000	-1.00000e+01	
			         0.98167	-1.00000e+01	
			         0.98333	-1.00000e+01	
			         0.98500	-1.00000e+01	
			         0.98667	-1.00000e+01	
			         0.98833	-1.00000e+01	
			         0.99000	-1.00000e+01	
			         0.99167	-9.00000e+00	
			         0.99333	-9.00000e+00	
			         0.99500	-8.00000e+00	
			         0.99667	-8.00000e+00	
			         0.99833	-7.00000e+00	
			         1.00000	-6.00000e+00	
			         1.00167	-6.00000e+00	
			         1.00333	-5.00000e+00	
			         1.00500	-4.00000e+00	
			         1.00667	-4.00000e+00	
			         1.00833	-3.00000e+00	
			         1.01000	-2.00000e+00	
			         1.01167	-2.00000e+00	
			         1.01333	-1.00000e+00	
			         1.01500	-1.00000e+00	
			         1.01667	0.00000e+00	
			         1.01833	0.00000e+00	
			         1.02000	0.00000e+00	
			         1.02167	1.00000e+00	
			         1.02333	1.00000e+00	
			         1.02500	2.00000e+00	
			         1.02667	3.00000e+00	
			         1.02833	3.00000e+00	
			         1.03000	4.00000e+00	
			         1.03167	5.00000e+00	
			         1.03333	5.00000e+00	
			         1.03500	6.00000e+00	
			         1.03667	7.00000e+00	
			         1.03833	8.00000e+00	
			         1.04000	9.00000e+00	
			         1.04167	1.00000e+01	
			         1.04333	1.10000e+01	
			         1.04500	1.20000e+01	
			         1.04667	1.30000e+01	
			         1.04833	1.40000e+01	
			         1.05000	1.60000e+01	
			         1.05167	1.70000e+01	
			         1.05333	1.90000e+01	
			         1.05500	2.10000e+01	
			         1.05667	2.40000e+01	
			         1.05833	2.60000e+01	
			         1.06000	2.90000e+01	
			         1.06167	3.20000e+01	
			         1.06333	3.40000e+01	
			         1.06500	3.70000e+01	
			         1.06667	4.00000e+01	
			         1.06833	4.30000e+01	
			         1.07000	4.50000e+01	
			         1.07167	4.80000e+01	
			         1.07333	5.10000e+01	
			         1.07500	5.30000e+01	
			         1.07667	5.60000e+01	
			         1.07833	5.80000e+01	
			         1.08000	6.10000e+01	
			         1.08167	6.40000e+01	
			         1.08333	6.70000e+01	
			         1.08500	7.00000e+01	
			         1.08667	7.40000e+01	
			         1.08833	7.70000e+01	
			         1.09000	8.00000e+01	
			         1.09167	8.40000e+01	
			         1.09333	8.70000e+01	
			         1.09500	9.00000e+01	
			         1.09667	9.40000e+01	
			         1.09833	9.70000e+01	
			         1.10000	1.00000e+02	
			         1.10167	1.03000e+02	
			         1.10333	1.05000e+02	
			         1.10500	1.08000e+02	
			         1.10667	1.10000e+02	
			         1.10833	1.11000e+02	
			         1.11000	1.13000e+02	
			         1.11167	1.14000e+02	
			         1.11333	1.15000e+02	
			         1.11500	1.15000e+02	
			         1.11667	1.15000e+02	
			         1.11833	1.16000e+02	
			         1.12000	1.15000e+02	
			         1.12167	1.15000e+02	
			         1.12333	1.14000e+02	
			         1.12500	1.14000e+02	
			         1.12667	1.13000e+02	
			         1.12833	1.11000e+02	
			         1.13000	1.10000e+02	
			         1.13167	1.09000e+02	
			         1.13333	1.07000e+02	
			         1.13500	1.05000e+02	
			         1.13667	1.02000e+02	
			         1.13833	9.90000e+01	
			         1.14000	9.60000e+01	
			         1.14167	9.30000e+01	
			         1.14333	8.90000e+01	
			         1.14500	8.50000e+01	
			         1.14667	8.10000e+01	
			         1.14833	7.70000e+01	
			         1.15000	7.30000e+01	
			         1.15167	6.90000e+01	
			         1.15333	6.50000e+01	
			         1.15500	6.00000e+01	
			         1.15667	5.60000e+01	
			         1.15833	5.10000e+01	
			         1.16000	4.60000e+01	
			         1.16167	4.10000e+01	
			         1.16333	3.50000e+01	
			         1.16500	2.90000e+01	
			         1.16667	2.30000e+01	
			         1.16833	1.70000e+01	
			         1.17000	1.10000e+01	
			         1.17167	5.00000e+00	
			         1.17333	-1.00000e+00	
			         1.17500	-7.00000e+00	
			         1.17667	-1.30000e+01	
			         1.17833	-1.90000e+01	
			         1.18000	-2.40000e+01	
			         1.18167	-2.90000e+01	
			         1.18333	-3.40000e+01	
			         1.18500	-3.80000e+01	
			         1.18667	-4.20000e+01	
			         1.18833	-4.50000e+01	
			         1.19000	-4.90000e+01	
			         1.19167	-5.20000e+01	
			         1.19333	-5.50000e+01	
			         1.19500	-5.80000e+01	
			         1.19667	-6.00000e+01	
			         1.19833	-6.30000e+01	
			         1.20000	-6.50000e+01	
			         1.20167	-6.70000e+01	
			         1.20333	-6.80000e+01	
			         1.20500	-7.00000e+01	
			         1.20667	-7.00000e+01	
			         1.20833	-7.10000e+01	
			         1.21000	-7.10000e+01	
			         1.21167	-7.10000e+01	
			         1.21333	-7.10000e+01	
			         1.21500	-7.10000e+01	
			         1.21667	-7.00000e+01	
			         1.21833	-6.90000e+01	
			         1.22000	-6.90000e+01	
			         1.22167	-6.80000e+01	
			         1.22333	-6.80000e+01	
			         1.22500	-6.80000e+01	
			         1.22667	-6.80000e+01	
			         1.22833	-6.80000e+01	
			         1.23000	-6.80000e+01	
			         1.23167	-6.80000e+01	
			         1.23333	-6.80000e+01	
			         1.23500	-6.90000e+01	
			         1.23667	-6.80000e+01	
			         1.23833	-6.80000e+01	
			         1.24000	-6.80000e+01	
			         1.24167	-6.70000e+01	
			         1.24333	-6.60000e+01	
			         1.24500	-6.50000e+01	
			         1.24667	-6.40000e+01	
			         1.24833	-6.20000e+01	
			         1.25000	-6.10000e+01	
			         1.25167	-5.90000e+01	
			         1.25333	-5.80000e+01	
			         1.25500	-5.60000e+01	
			         1.25667	-5.50000e+01	
			         1.25833	-5.30000e+01	
			         1.26000	-5.20000e+01	
			         1.26167	-5.00000e+01	
			         1.26333	-4.90000e+01	
			         1.26500	-4.70000e+01	
			         1.26667	-4.60000e+01	
			         1.26833	-4.40000e+01	
			         1.27000	-4.30000e+01	
			         1.27167	-4.10000e+01	
			         1.27333	-4.00000e+01	
			         1.27500	-3.90000e+01	
			         1.27667	-3.80000e+01	
			         1.27833	-3.70000e+01	
			         1.28000	-3.60000e+01	
			         1.28167	-3.50000e+01	
			         1.28333	-3.40000e+01	
			         1.28500	-3.40000e+01	
			         1.28667	-3.30000e+01	
			         1.28833	-3.30000e+01	
			         1.29000	-3.20000e+01	
			         1.29167	-3.20000e+01	
			         1.29333	-3.10000e+01	
			         1.29500	-3.00000e+01	
			         1.29667	-3.00000e+01	
			         1.29833	-2.90000e+01	
			         1.30000	-2.90000e+01	
			         1.30167	-2.80000e+01	
			         1.30333	-2.80000e+01	
			         1.30500	-2.70000e+01	
			         1.30667	-2.60000e+01	
			         1.30833	-2.50000e+01	
			         1.31000	-2.40000e+01	
			         1.31167	-2.20000e+01	
			         1.31333	-2.10000e+01	
			         1.31500	-1.90000e+01	
			         1.31667	-1.80000e+01	
			         1.31833	-1.60000e+01	
			         1.32000	-1.50000e+01	
			         1.32167	-1.30000e+01	
			         1.32333	-1.20000e+01	
			         1.32500	-1.10000e+01	
			         1.32667	-1.10000e+01	
			         1.32833	-1.00000e+01	
			         1.33000	-1.10000e+01	
			         1.33167	-1.10000e+01	
			         1.33333	-1.20000e+01	
			         1.33500	-1.20000e+01	
			         1.33667	-1.30000e+01	
			         1.33833	-1.40000e+01	
			         1.34000	-1.50000e+01	
			         1.34167	-1.60000e+01	
			         1.34333	-1.70000e+01	
			         1.34500	-1.70000e+01	
			         1.34667	-1.80000e+01	
			         1.34833	-1.80000e+01	
			         1.35000	-1.80000e+01	
			         1.35167	-1.80000e+01	
			         1.35333	-1.80000e+01	
			         1.35500	-1.70000e+01	
			         1.35667	-1.70000e+01	
			         1.35833	-1.70000e+01	
			         1.36000	-1.60000e+01	
			         1.36167	-1.60000e+01	
			         1.36333	-1.60000e+01	
			         1.36500	-1.60000e+01	
			         1.36667	-1.60000e+01	
			         1.36833	-1.60000e+01	
			         1.37000	-1.60000e+01	
			         1.37167	-1.60000e+01	
			         1.37333	-1.70000e+01	
			         1.37500	-1.70000e+01	
			         1.37667	-1.70000e+01	
			         1.37833	-1.70000e+01	
			         1.38000	-1.70000e+01	
			         1.38167	-1.60000e+01	
			         1.38333	-1.60000e+01	
			         1.38500	-1.60000e+01	
			         1.38667	-1.50000e+01	
			         1.38833	-1.50000e+01	
			         1.39000	-1.40000e+01	
			         1.39167	-1.30000e+01	
			         1.39333	-1.30000e+01	
			         1.39500	-1.30000e+01	
			         1.39667	-1.30000e+01	
			         1.39833	-1.30000e+01	
			         1.40000	-1.40000e+01	
			         1.40167	-1.50000e+01	
			         1.40333	-1.50000e+01	
			         1.40500	-1.60000e+01	
			         1.40667	-1.80000e+01	
			         1.40833	-1.90000e+01	
			         1.41000	-2.00000e+01	
			         1.41167	-2.10000e+01	
			         1.41333	-2.10000e+01	
			         1.41500	-2.20000e+01	
			         1.41667	-2.20000e+01	
			         1.41833	-2.20000e+01	
			         1.42000	-2.10000e+01	
			         1.42167	-2.10000e+01	
			         1.42333	-2.00000e+01	
			         1.42500	-1.90000e+01	
			         1.42667	-1.80000e+01	
			         1.42833	-1.60000e+01	
			         1.43000	-1.50000e+01	
			         1.43167	-1.40000e+01	
			         1.43333	-1.30000e+01	
			         1.43500	-1.20000e+01	
			         1.43667	-1.10000e+01	
			         1.43833	-1.00000e+01	
			         1.44000	-9.00000e+00	
			         1.44167	-9.00000e+00	
			         1.44333	-9.00000e+00	
			         1.44500	-9.00000e+00	
			         1.44667	-9.00000e+00	
			         1.44833	-1.00000e+01	
			         1.45000	-1.00000e+01	
			         1.45167	-1.10000e+01	
			         1.45333	-1.20000e+01	
			         1.45500	-1.20000e+01	
			         1.45667	-1.30000e+01	
			         1.45833	-1.40000e+01	
			         1.46000	-1.40000e+01	
			         1.46167	-1.40000e+01	
			         1.46333	-1.40000e+01	
			         1.46500	-1.40000e+01	
			         1.46667	-1.40000e+01	
			         1.46833	-1.40000e+01	
			         1.47000	-1.30000e+01	
			         1.47167	-1.30000e+01	
			         1.47333	-1.20000e+01	
			         1.47500	-1.20000e+01	
			         1.47667	-1.10000e+01	
			         1.47833	-1.10000e+01	
			         1.48000	-1.10000e+01	
			         1.48167	-1.00000e+01	
			         1.48333	-1.00000e+01	
			         1.48500	-9.00000e+00	
			         1.48667	-9.00000e+00	
			         1.48833	-8.00000e+00	
			         1.49000	-8.00000e+00	
			         1.49167	-7.00000e+00	
			         1.49333	-7.00000e+00	
			         1.49500	-6.00000e+00	
			         1.49667	-6.00000e+00	
			         1.49833	-6.00000e+00	
			         1.50000	-6.00000e+00	
			         1.50167	-6.00000e+00	
			         1.50333	-6.00000e+00	
			         1.50500	-6.00000e+00	
			         1.50667	-6.00000e+00	
			         1.50833	-6.00000e+00	
			         1.51000	-6.00000e+00	
			         1.51167	-6.00000e+00	
			         1.51333	-6.00000e+00	
			         1.51500	-6.00000e+00	
			         1.51667	-5.00000e+00	
			         1.51833	-4.00000e+00	
			         1.52000	-3.00000e+00	
			         1.52167	-2.00000e+00	
			         1.52333	-1.00000e+00	
			         1.52500	0.00000e+00	
			         1.52667	2.00000e+00	
			         1.52833	3.00000e+00	
			         1.53000	5.00000e+00	
			         1.53167	7.00000e+00	
			         1.53333	9.00000e+00	
			         1.53500	1.20000e+01	
			         1.53667	1.40000e+01	
			         1.53833	1.70000e+01	
			         1.54000	1.90000e+01	
			         1.54167	2.20000e+01	
			         1.54333	2.40000e+01	
			         1.54500	2.60000e+01	
			         1.54667	2.80000e+01	
			         1.54833	3.00000e+01	
			         1.55000	3.20000e+01	
			         1.55167	3.30000e+01	
			         1.55333	3.40000e+01	
			         1.55500	3.50000e+01	
			         1.55667	3.60000e+01	
			         1.55833	3.70000e+01	
			         1.56000	3.70000e+01	
			         1.56167	3.80000e+01	
			         1.56333	3.80000e+01	
			         1.56500	3.80000e+01	
			         1.56667	3.70000e+01	
			         1.56833	3.60000e+01	
			         1.57000	3.50000e+01	
			         1.57167	3.30000e+01	
			         1.57333	3.10000e+01	
			         1.57500	2.80000e+01	
			         1.57667	2.50000e+01	
			         1.57833	2.20000e+01	
			         1.58000	2.00000e+01	
			         1.58167	1.70000e+01	
			         1.58333	1.50000e+01	
			         1.58500	1.20000e+01	
			         1.58667	1.10000e+01	
			         1.58833	9.00000e+00	
			         1.59000	8.00000e+00	
			         1.59167	7.00000e+00	
			         1.59333	6.00000e+00	
			         1.59500	5.00000e+00	
			         1.59667	3.00000e+00	
			         1.59833	1.00000e+00	
			         1.60000	-1.00000e+00	
			         1.60167	-4.00000e+00	
			         1.60333	-7.00000e+00	
			         1.60500	-1.10000e+01	
			         1.60667	-1.50000e+01	
			         1.60833	-1.80000e+01	
			         1.61000	-2.20000e+01	
			         1.61167	-2.60000e+01	
			         1.61333	-2.90000e+01	
			         1.61500	-3.20000e+01	
			         1.61667	-3.40000e+01	
			         1.61833	-3.60000e+01	
			         1.62000	-3.80000e+01	
			         1.62167	-3.90000e+01	
			         1.62333	-4.10000e+01	
			         1.62500	-4.20000e+01	
			         1.62667	-4.30000e+01	
			         1.62833	-4.40000e+01	
			         1.63000	-4.50000e+01	
			         1.63167	-4.60000e+01	
			         1.63333	-4.60000e+01	
			         1.63500	-4.60000e+01	
			         1.63667	-4.60000e+01	
			         1.63833	-4.50000e+01	
			         1.64000	-4.40000e+01	
			         1.64167	-4.30000e+01	
			         1.64333	-4.10000e+01	
			         1.64500	-3.90000e+01	
			         1.64667	-3.70000e+01	
			         1.64833	-3.50000e+01	
			         1.65000	-3.30000e+01	
			         1.65167	-3.10000e+01	
			         1.65333	-3.00000e+01	
			         1.65500	-2.90000e+01	
			         1.65667	-2.80000e+01	
			         1.65833	-2.80000e+01	
			         1.66000	-2.80000e+01	
			         1.66167	-2.80000e+01	
			         1.66333	-2.80000e+01	
			         1.66500	-2.80000e+01	
			         1.66667	-2.90000e+01	
			         1.66833	-2.90000e+01	
			         1.67000	-2.90000e+01	
			         1.67167	-2.90000e+01	
			         1.67333	-2.80000e+01	
			         1.67500	-2.70000e+01	
			         1.67667	-2.60000e+01	
			         1.67833	-2.50000e+01	
			         1.68000	-2.40000e+01	
			         1.68167	-2.20000e+01	
			         1.68333	-2.10000e+01	
			         1.68500	-1.90000e+01	
			         1.68667	-1.80000e+01	
			         1.68833	-1.60000e+01	
			         1.69000	-1.50000e+01	
			         1.69167	-1.30000e+01	
			         1.69333	-1.20000e+01	
			         1.69500	-1.10000e+01	
			         1.69667	-1.00000e+01	
			         1.69833	-9.00000e+00	
			         1.70000	-8.00000e+00	
			         1.70167	-6.00000e+00	
			         1.70333	-5.00000e+00	
			         1.70500	-3.00000e+00	
			         1.70667	0.00000e+00	
			         1.70833	2.00000e+00	
			         1.71000	6.00000e+00	
			         1.71167	1.00000e+01	
			         1.71333	1.50000e+01	
			         1.71500	2.20000e+01	
			         1.71667	2.90000e+01	
			         1.71833	3.90000e+01	
			         1.72000	5.00000e+01	
			         1.72167	6.40000e+01	
			         1.72333	8.00000e+01	
			         1.72500	9.90000e+01	
			         1.72667	1.19000e+02	
			         1.72833	1.42000e+02	
			         1.73000	1.65000e+02	
			         1.73167	1.89000e+02	
			         1.73333	2.11000e+02	
			         1.73500	2.30000e+02	
			         1.73667	2.45000e+02	
			         1.73833	2.55000e+02	
			         1.74000	2.58000e+02	
			         1.74167	2.53000e+02	
			         1.74333	2.42000e+02	
			         1.74500	2.23000e+02	
			         1.74667	1.97000e+02	
			         1.74833	1.64000e+02	
			         1.75000	1.27000e+02	
			         1.75167	8.70000e+01	
			         1.75333	4.60000e+01	
			         1.75500	5.00000e+00	
			         1.75667	-3.20000e+01	
			         1.75833	-6.60000e+01	
			         1.76000	-9.40000e+01	
			         1.76167	-1.17000e+02	
			         1.76333	-1.34000e+02	
			         1.76500	-1.45000e+02	
			         1.76667	-1.51000e+02	
			         1.76833	-1.51000e+02	
			         1.77000	-1.47000e+02	
			         1.77167	-1.40000e+02	
			         1.77333	-1.30000e+02	
			         1.77500	-1.18000e+02	
			         1.77667	-1.06000e+02	
			         1.77833	-9.30000e+01	
			         1.78000	-8.10000e+01	
			         1.78167	-7.00000e+01	
			         1.78333	-6.00000e+01	
			         1.78500	-5.10000e+01	
			         1.78667	-4.30000e+01	
			         1.78833	-3.70000e+01	
			         1.79000	-3.30000e+01	
			         1.79167	-2.90000e+01	
			         1.79333	-2.70000e+01	
			         1.79500	-2.60000e+01	
			         1.79667	-2.50000e+01	
			         1.79833	-2.50000e+01	
			         1.80000	-2.50000e+01	
			         1.80167	-2.60000e+01	
			         1.80333	-2.60000e+01	
			         1.80500	-2.60000e+01	
			         1.80667	-2.60000e+01	
			         1.80833	-2.60000e+01	
			         1.81000	-2.60000e+01	
			         1.81167	-2.50000e+01	
			         1.81333	-2.40000e+01	
			         1.81500	-2.30000e+01	
			         1.81667	-2.20000e+01	
			         1.81833	-2.10000e+01	
			         1.82000	-1.90000e+01	
			         1.82167	-1.80000e+01	
			         1.82333	-1.60000e+01	
			         1.82500	-1.40000e+01	
			         1.82667	-1.20000e+01	
			         1.82833	-1.10000e+01	
			         1.83000	-9.00000e+00	
			         1.83167	-8.00000e+00	
			         1.83333	-7.00000e+00	
			         1.83500	-6.00000e+00	
			         1.83667	-5.00000e+00	
			         1.83833	-4.00000e+00	
			         1.84000	-4.00000e+00	
			         1.84167	-4.00000e+00	
			         1.84333	-4.00000e+00	
			         1.84500	-4.00000e+00	
			         1.84667	-4.00000e+00	
			         1.84833	-4.00000e+00	
			         1.85000	-5.00000e+00	
			         1.85167	-5.00000e+00	
			         1.85333	-5.00000e+00	
			         1.85500	-5.00000e+00	
			         1.85667	-5.00000e+00	
			         1.85833	-4.00000e+00	
			         1.86000	-3.00000e+00	
			         1.86167	-2.00000e+00	
			         1.86333	-2.00000e+00	
			         1.86500	-1.00000e+00	
			         1.86667	0.00000e+00	
			         1.86833	1.00000e+00	
			         1.87000	1.00000e+00	
			         1.87167	2.00000e+00	
			         1.87333	2.00000e+00	
			         1.87500	2.00000e+00	
			         1.87667	1.00000e+00	
			         1.87833	1.00000e+00	
			         1.88000	0.00000e+00	
			         1.88167	-1.00000e+00	
			         1.88333	-2.00000e+00	
			         1.88500	-2.00000e+00	
			         1.88667	-3.00000e+00	
			         1.88833	-4.00000e+00	
			         1.89000	-3.00000e+00	
			         1.89167	-3.00000e+00	
			         1.89333	-2.00000e+00	
			         1.89500	-1.00000e+00	
			         1.89667	1.00000e+00	
			         1.89833	3.00000e+00	
			         1.90000	6.00000e+00	
			         1.90167	9.00000e+00	
			         1.90333	1.20000e+01	
			         1.90500	1.50000e+01	
			         1.90667	1.80000e+01	
			         1.90833	2.00000e+01	
			         1.91000	2.30000e+01	
			         1.91167	2.50000e+01	
			         1.91333	2.70000e+01	
			         1.91500	2.90000e+01	
			         1.91667	3.00000e+01	
			         1.91833	3.10000e+01	
			         1.92000	3.20000e+01	
			         1.92167	3.30000e+01	
			         1.92333	3.50000e+01	
			         1.92500	3.60000e+01	
			         1.92667	3.80000e+01	
			         1.92833	4.00000e+01	
			         1.93000	4.30000e+01	
			         1.93167	4.60000e+01	
			         1.93333	5.00000e+01	
			         1.93500	5.30000e+01	
			         1.93667	5.70000e+01	
			         1.93833	6.10000e+01	
			         1.94000	6.50000e+01	
			         1.94167	7.00000e+01	
			         1.94333	7.40000e+01	
			         1.94500	7.80000e+01	
			         1.94667	8.20000e+01	
			         1.94833	8.60000e+01	
			         1.95000	8.90000e+01	
			         1.95167	9.20000e+01	
			         1.95333	9.60000e+01	
			         1.95500	9.90000e+01	
			         1.95667	1.02000e+02	
			         1.95833	1.04000e+02	
			         1.96000	1.07000e+02	
			         1.96167	1.09000e+02	
			         1.96333	1.11000e+02	
			         1.96500	1.12000e+02	
			         1.96667	1.13000e+02	
			         1.96833	1.14000e+02	
			         1.97000	1.14000e+02	
			         1.97167	1.14000e+02	
			         1.97333	1.13000e+02	
			         1.97500	1.12000e+02	
			         1.97667	1.10000e+02	
			         1.97833	1.08000e+02	
			         1.98000	1.06000e+02	
			         1.98167	1.03000e+02	
			         1.98333	1.01000e+02	
			         1.98500	9.80000e+01	
			         1.98667	9.60000e+01	
			         1.98833	9.40000e+01	
			         1.99000	9.20000e+01	
			         1.99167	9.00000e+01	
			         1.99333	8.70000e+01	
			         1.99500	8.50000e+01	
			         1.99667	8.30000e+01	
			         1.99833	8.00000e+01	
			         2.00000	7.70000e+01	
			         2.00167	7.40000e+01	
			         2.00333	7.00000e+01	
			         2.00500	6.50000e+01	
			         2.00667	6.00000e+01	
			         2.00833	5.50000e+01	
			         2.01000	5.00000e+01	
			         2.01167	4.40000e+01	
			         2.01333	3.80000e+01	
			         2.01500	3.30000e+01	
			         2.01667	2.70000e+01	
			         2.01833	2.10000e+01	
			         2.02000	1.60000e+01	
			         2.02167	1.00000e+01	
			         2.02333	5.00000e+00	
			         2.02500	0.00000e+00	
			         2.02667	-5.00000e+00	
			         2.02833	-9.00000e+00	
			         2.03000	-1.40000e+01	
			         2.03167	-1.90000e+01	
			         2.03333	-2.40000e+01	
			         2.03500	-2.80000e+01	
			         2.03667	-3.30000e+01	
			         2.03833	-3.70000e+01	
			         2.04000	-4.10000e+01	
			         2.04167	-4.50000e+01	
			         2.04333	-4.80000e+01	
			         2.04500	-5.10000e+01	
			         2.04667	-5.40000e+01	
			         2.04833	-5.60000e+01	
			         2.05000	-5.80000e+01	
			         2.05167	-6.00000e+01	
			         2.05333	-6.20000e+01	
			         2.05500	-6.40000e+01	
			         2.05667	-6.60000e+01	
			         2.05833	-6.80000e+01	
			         2.06000	-7.00000e+01	
			         2.06167	-7.10000e+01	
			         2.06333	-7.20000e+01	
			         2.06500	-7.40000e+01	
			         2.06667	-7.50000e+01	
			         2.06833	-7.60000e+01	
			         2.07000	-7.60000e+01	
			         2.07167	-7.70000e+01	
			         2.07333	-7.70000e+01	
			         2.07500	-7.60000e+01	
			         2.07667	-7.60000e+01	
			         2.07833	-7.50000e+01	
			         2.08000	-7.40000e+01	
			         2.08167	-7.30000e+01	
			         2.08333	-7.20000e+01	
			         2.08500	-7.10000e+01	
			         2.08667	-7.00000e+01	
			         2.08833	-6.90000e+01	
			         2.09000	-6.80000e+01	
			         2.09167	-6.60000e+01	
			         2.09333	-6.50000e+01	
			         2.09500	-6.40000e+01	
			         2.09667	-6.30000e+01	
			         2.09833	-6.10000e+01	
			         2.10000	-6.00000e+01	
			         2.10167	-5.80000e+01	
			         2.10333	-5.70000e+01	
			         2.10500	-5.50000e+01	
			         2.10667	-5.40000e+01	
			         2.10833	-5.20000e+01	
			         2.11000	-5.10000e+01	
			         2.11167	-5.00000e+01	
			         2.11333	-4.90000e+01	
			         2.11500	-4.80000e+01	
			         2.11667	-4.70000e+01	
			         2.11833	-4.60000e+01	
			         2.12000	-4.50000e+01	
			         2.12167	-4.40000e+01	
			         2.12333	-4.30000e+01	
			         2.12500	-4.20000e+01	
			         2.12667	-4.00000e+01	
			         2.12833	-3.80000e+01	
			         2.13000	-3.60000e+01	
			         2.13167	-3.50000e+01	
			         2.13333	-3.30000e+01	
			         2.13500	-3.10000e+01	
			         2.13667	-2.90000e+01	
			         2.13833	-2.80000e+01	
			         2.14000	-2.60000e+01	
			         2.14167	-2.50000e+01	
			         2.14333	-2.40000e+01	
			         2.14500	-2.20000e+01	
			         2.14667	-2.10000e+01	
			         2.14833	-2.00000e+01	
			         2.15000	-1.90000e+01	
			         2.15167	-1.70000e+01	
			         2.15333	-1.60000e+01	
			         2.15500	-1.40000e+01	
			         2.15667	-1.20000e+01	
			         2.15833	-1.10000e+01	
			         2.16000	-9.00000e+00	
			         2.16167	-8.00000e+00	
			         2.16333	-7.00000e+00	
			         2.16500	-6.00000e+00	
			         2.16667	-5.00000e+00	
			         2.16833	-5.00000e+00	
			         2.17000	-5.00000e+00	
			         2.17167	-5.00000e+00	
			         2.17333	-6.00000e+00	
			         2.17500	-7.00000e+00	
			         2.17667	-8.00000e+00	
			         2.17833	-8.00000e+00	
			         2.18000	-9.00000e+00	
			         2.18167	-1.00000e+01	
			         2.18333	-1.00000e+01	
			         2.18500	-1.10000e+01	
			         2.18667	-1.10000e+01	
			         2.18833	-1.00000e+01	
			         2.19000	-9.00000e+00	
			         2.19167	-9.00000e+00	
			         2.19333	-7.00000e+00	
			         2.19500	-6.00000e+00	
			         2.19667	-5.00000e+00	
			         2.19833	-4.00000e+00	
			         2.20000	-3.00000e+00	
			         2.20167	-3.00000e+00	
			         2.20333	-3.00000e+00	
			         2.20500	-3.00000e+00	
			         2.20667	-3.00000e+00	
			         2.20833	-4.00000e+00	
			         2.21000	-5.00000e+00	
			         2.21167	-6.00000e+00	
			         2.21333	-7.00000e+00	
			         2.21500	-8.00000e+00	
			         2.21667	-9.00000e+00	
			         2.21833	-1.00000e+01	
			         2.22000	-1.00000e+01	
			         2.22167	-1.00000e+01	
			         2.22333	-1.00000e+01	
			         2.22500	-9.00000e+00	
			         2.22667	-8.00000e+00	
			         2.22833	-7.00000e+00	
			         2.23000	-6.00000e+00	
			         2.23167	-5.00000e+00	
			         2.23333	-5.00000e+00	
			         2.23500	-4.00000e+00	
			         2.23667	-4.00000e+00	
			         2.23833	-3.00000e+00	
			         2.24000	-4.00000e+00	
			         2.24167	-4.00000e+00	
			         2.24333	-4.00000e+00	
			         2.24500	-5.00000e+00	
			         2.24667	-5.00000e+00	
			         2.24833	-6.00000e+00	
			         2.25000	-6.00000e+00	
			         2.25167	-7.00000e+00	
			         2.25333	-7.00000e+00	
			         2.25500	-7.00000e+00	
			         2.25667	-7.00000e+00	
			         2.25833	-7.00000e+00	
			         2.26000	-7.00000e+00	
			         2.26167	-7.00000e+00	
			         2.26333	-7.00000e+00	
			         2.26500	-7.00000e+00	
			         2.26667	-8.00000e+00	
			         2.26833	-8.00000e+00	
			         2.27000	-8.00000e+00	
			         2.27167	-8.00000e+00	
			         2.27333	-8.00000e+00	
			         2.27500	-8.00000e+00	
			         2.27667	-8.00000e+00	
			         2.27833	-7.00000e+00	
			         2.28000	-7.00000e+00	
			         2.28167	-7.00000e+00	
			         2.28333	-7.00000e+00	
			         2.28500	-6.00000e+00	
			         2.28667	-7.00000e+00	
			         2.28833	-7.00000e+00	
			         2.29000	-7.00000e+00	
			         2.29167	-8.00000e+00	
			         2.29333	-8.00000e+00	
			         2.29500	-9.00000e+00	
			         2.29667	-1.00000e+01	
			         2.29833	-1.10000e+01	
			         2.30000	-1.10000e+01	
			         2.30167	-1.20000e+01	
			         2.30333	-1.20000e+01	
			         2.30500	-1.30000e+01	
			         2.30667	-1.30000e+01	
			         2.30833	-1.30000e+01	
			         2.31000	-1.30000e+01	
			         2.31167	-1.30000e+01	
			         2.31333	-1.20000e+01	
			         2.31500	-1.20000e+01	
			         2.31667	-1.10000e+01	
			         2.31833	-1.00000e+01	
			         2.32000	-1.00000e+01	
			         2.32167	-9.00000e+00	
			         2.32333	-8.00000e+00	
			         2.32500	-8.00000e+00	
			         2.32667	-7.00000e+00	
			         2.32833	-6.00000e+00	
			         2.33000	-6.00000e+00	
			         2.33167	-5.00000e+00	
			         2.33333	-5.00000e+00	
			         2.33500	-4.00000e+00	
			         2.33667	-4.00000e+00	
			         2.33833	-4.00000e+00	
			         2.34000	-3.00000e+00	
			         2.34167	-3.00000e+00	
			         2.34333	-3.00000e+00	
			         2.34500	-3.00000e+00	
			         2.34667	-3.00000e+00	
			         2.34833	-4.00000e+00	
			         2.35000	-4.00000e+00	
			         2.35167	-4.00000e+00	
			         2.35333	-5.00000e+00	
			         2.35500	-5.00000e+00	
			         2.35667	-5.00000e+00	
			         2.35833	-5.00000e+00	
			         2.36000	-5.00000e+00	
			         2.36167	-5.00000e+00	
			         2.36333	-5.00000e+00	
			         2.36500	-4.00000e+00	
			         2.36667	-3.00000e+00	
			         2.36833	-2.00000e+00	
			         2.37000	-1.00000e+00	
			         2.37167	0.00000e+00	
			         2.37333	1.00000e+00	
			         2.37500	2.00000e+00	
			         2.37667	3.00000e+00	
			         2.37833	5.00000e+00	
			         2.38000	6.00000e+00	
			         2.38167	7.00000e+00	
			         2.38333	9.00000e+00	
			         2.38500	1.10000e+01	
			         2.38667	1.30000e+01	
			         2.38833	1.60000e+01	
			         2.39000	1.80000e+01	
			         2.39167	2.10000e+01	
			         2.39333	2.30000e+01	
			         2.39500	2.50000e+01	
			         2.39667	2.80000e+01	
			         2.39833	2.90000e+01	
			         2.40000	3.10000e+01	
			         2.40167	3.20000e+01	
			         2.40333	3.20000e+01	
			         2.40500	3.20000e+01	
			         2.40667	3.10000e+01	
			         2.40833	3.10000e+01	
			         2.41000	3.00000e+01	
			         2.41167	2.80000e+01	
			         2.41333	2.70000e+01	
			         2.41500	2.70000e+01	
			         2.41667	2.60000e+01	
			         2.41833	2.60000e+01	
			         2.42000	2.60000e+01	
			         2.42167	2.60000e+01	
			         2.42333	2.60000e+01	
			         2.42500	2.50000e+01	
			         2.42667	2.50000e+01	
			         2.42833	2.50000e+01	
			         2.43000	2.40000e+01	
			         2.43167	2.40000e+01	
			         2.43333	2.30000e+01	
			         2.43500	2.20000e+01	
			         2.43667	2.10000e+01	
			         2.43833	1.90000e+01	
			         2.44000	1.80000e+01	
			         2.44167	1.60000e+01	
			         2.44333	1.40000e+01	
			         2.44500	1.30000e+01	
			         2.44667	1.10000e+01	
			         2.44833	9.00000e+00	
			         2.45000	7.00000e+00	
			         2.45167	5.00000e+00	
			         2.45333	3.00000e+00	
			         2.45500	0.00000e+00	
			         2.45667	-3.00000e+00	
			         2.45833	-6.00000e+00	
			         2.46000	-9.00000e+00	
			         2.46167	-1.20000e+01	
			         2.46333	-1.50000e+01	
			         2.46500	-1.80000e+01	
			         2.46667	-2.10000e+01	
			         2.46833	-2.40000e+01	
			         2.47000	-2.70000e+01	
			         2.47167	-2.90000e+01	
			         2.47333	-3.20000e+01	
			         2.47500	-3.40000e+01	
			         2.47667	-3.70000e+01	
			         2.47833	-3.80000e+01	
			         2.48000	-4.00000e+01	
			         2.48167	-4.10000e+01	
			         2.48333	-4.20000e+01	
			         2.48500	-4.20000e+01	
			         2.48667	-4.20000e+01	
			         2.48833	-4.20000e+01	
			         2.49000	-4.10000e+01	
			         2.49167	-4.00000e+01	
			         2.49333	-3.80000e+01	
			         2.49500	-3.70000e+01	
			         2.49667	-3.50000e+01	
			         2.49833	-3.30000e+01	
			         2.50000	-3.10000e+01	
			         2.50167	-2.90000e+01	
			         2.50333	-2.80000e+01	
			         2.50500	-2.60000e+01	
			         2.50667	-2.60000e+01	
			         2.50833	-2.50000e+01	
			         2.51000	-2.50000e+01	
			         2.51167	-2.40000e+01	
			         2.51333	-2.40000e+01	
			         2.51500	-2.40000e+01	
			         2.51667	-2.40000e+01	
			         2.51833	-2.40000e+01	
			         2.52000	-2.40000e+01	
			         2.52167	-2.30000e+01	
			         2.52333	-2.30000e+01	
			         2.52500	-2.20000e+01	
			         2.52667	-2.10000e+01	
			         2.52833	-1.90000e+01	
			         2.53000	-1.80000e+01	
			         2.53167	-1.70000e+01	
			         2.53333	-1.60000e+01	
			         2.53500	-1.50000e+01	
			         2.53667	-1.40000e+01	
			         2.53833	-1.40000e+01	
			         2.54000	-1.30000e+01	
			         2.54167	-1.30000e+01	
			         2.54333	-1.20000e+01	
			         2.54500	-1.20000e+01	
			         2.54667	-1.20000e+01	
			         2.54833	-1.20000e+01	
			         2.55000	-1.10000e+01	
			         2.55167	-1.10000e+01	
			         2.55333	-1.00000e+01	
			         2.55500	-9.00000e+00	
			         2.55667	-7.00000e+00	
			         2.55833	-5.00000e+00	
			         2.56000	-2.00000e+00	
			         2.56167	0.00000e+00	
			         2.56333	4.00000e+00	
			         2.56500	8.00000e+00	
			         2.56667	1.30000e+01	
			         2.56833	1.90000e+01	
			         2.57000	2.70000e+01	
			         2.57167	3.60000e+01	
			         2.57333	4.80000e+01	
			         2.57500	6.10000e+01	
			         2.57667	7.80000e+01	
			         2.57833	9.70000e+01	
			         2.58000	1.18000e+02	
			         2.58167	1.42000e+02	
			         2.58333	1.67000e+02	
			         2.58500	1.92000e+02	
			         2.58667	2.16000e+02	
			         2.58833	2.37000e+02	
			         2.59000	2.53000e+02	
			         2.59167	2.63000e+02	
			         2.59333	2.66000e+02	
			         2.59500	2.61000e+02	
			         2.59667	2.48000e+02	
			         2.59833	2.27000e+02	
			         2.60000	1.97000e+02	
			         2.60167	1.61000e+02	
			         2.60333	1.20000e+02	
			         2.60500	7.50000e+01	
			         2.60667	2.90000e+01	
			         2.60833	-1.50000e+01	
			         2.61000	-5.60000e+01	
			         2.61167	-9.30000e+01	
			         2.61333	-1.22000e+02	
			         2.61500	-1.46000e+02	
			         2.61667	-1.62000e+02	
			         2.61833	-1.70000e+02	
			         2.62000	-1.73000e+02	
			         2.62167	-1.69000e+02	
			         2.62333	-1.60000e+02	
			         2.62500	-1.48000e+02	
			         2.62667	-1.33000e+02	
			         2.62833	-1.16000e+02	
			         2.63000	-1.00000e+02	
			         2.63167	-8.40000e+01	
			         2.63333	-6.90000e+01	
			         2.63500	-5.60000e+01	
			         2.63667	-4.40000e+01	
			         2.63833	-3.50000e+01	
			         2.64000	-2.70000e+01	
			         2.64167	-2.10000e+01	
			         2.64333	-1.70000e+01	
			         2.64500	-1.40000e+01	
			         2.64667	-1.20000e+01	
			         2.64833	-1.10000e+01	
			         2.65000	-1.00000e+01	
			         2.65167	-1.00000e+01	
			         2.65333	-1.00000e+01	
			         2.65500	-1.00000e+01	
			         2.65667	-1.00000e+01	
			         2.65833	-9.00000e+00	
