Velocity (TVI), in cm/s

Time (s) :	Trace 1 : 		Ecg : 		
0.00567   	7.71290e-01		         0.00000	5.10000e+01	
0.01179   	1.03255e+00		         0.00167	6.20000e+01	
0.01791   	1.39023e+00		         0.00333	7.40000e+01	
0.02403   	1.68778e+00		         0.00500	8.90000e+01	
0.03042   	2.75624e+00		         0.00667	1.05000e+02	
0.03655   	2.82681e+00		         0.00833	1.23000e+02	
0.04266   	2.06907e+00		         0.01000	1.41000e+02	
0.04879   	1.45601e+00		         0.01167	1.58000e+02	
0.05518   	1.03688e+00		         0.01333	1.76000e+02	
0.06130   	8.82066e-01		         0.01500	1.92000e+02	
0.06742   	1.33692e+00		         0.01667	2.08000e+02	
0.07354   	2.68226e+00		         0.01833	2.21000e+02	
0.07993   	3.87289e+00		         0.02000	2.32000e+02	
0.08606   	4.68243e+00		         0.02167	2.41000e+02	
0.09218   	5.15503e+00		         0.02333	2.46000e+02	
0.09830   	5.43980e+00		         0.02500	2.49000e+02	
0.10469   	5.50233e+00		         0.02667	2.48000e+02	
0.11081   	5.36490e+00		         0.02833	2.43000e+02	
0.11693   	5.24523e+00		         0.03000	2.36000e+02	
0.12305   	5.24687e+00		         0.03167	2.25000e+02	
0.12945   	5.32170e+00		         0.03333	2.12000e+02	
0.13557   	5.41402e+00		         0.03500	1.96000e+02	
0.14169   	5.45693e+00		         0.03667	1.79000e+02	
0.14781   	5.32146e+00		         0.03833	1.60000e+02	
0.15420   	5.27154e+00		         0.04000	1.40000e+02	
0.16043   	5.15277e+00		         0.04167	1.20000e+02	
0.16645   	5.07405e+00		         0.04333	9.90000e+01	
0.17257   	5.02378e+00		         0.04500	7.80000e+01	
0.17896   	5.07374e+00		         0.04667	5.70000e+01	
0.18508   	5.09992e+00		         0.04833	3.80000e+01	
0.19120   	5.19375e+00		         0.05000	2.00000e+01	
0.19733   	5.26359e+00		         0.05167	2.00000e+00	
0.20372   	5.37817e+00		         0.05333	-1.30000e+01	
0.20983   	5.43169e+00		         0.05500	-2.80000e+01	
0.21596   	5.45532e+00		         0.05667	-4.00000e+01	
0.22208   	5.23191e+00		         0.05833	-5.20000e+01	
0.22847   	5.12904e+00		         0.06000	-6.20000e+01	
0.23459   	4.96983e+00		         0.06167	-7.10000e+01	
0.24071   	4.80654e+00		         0.06333	-7.90000e+01	
0.24683   	4.63079e+00		         0.06500	-8.50000e+01	
0.25323   	4.53022e+00		         0.06667	-9.00000e+01	
0.25935   	4.25557e+00		         0.06833	-9.40000e+01	
0.26547   	3.99030e+00		         0.07000	-9.60000e+01	
0.27159   	3.72384e+00		         0.07167	-9.80000e+01	
0.27798   	3.49562e+00		         0.07333	-9.80000e+01	
0.28411   	3.26267e+00		         0.07500	-9.80000e+01	
0.29022   	3.05169e+00		         0.07667	-9.80000e+01	
0.29635   	2.86837e+00		         0.07833	-9.70000e+01	
0.30274   	2.68059e+00		         0.08000	-9.50000e+01	
0.30886   	2.45557e+00		         0.08167	-9.40000e+01	
0.31498   	2.32244e+00		         0.08333	-9.30000e+01	
0.32110   	2.17792e+00		         0.08500	-9.10000e+01	
0.32749   	1.96884e+00		         0.08667	-8.90000e+01	
0.33362   	1.78048e+00		         0.08833	-8.80000e+01	
0.33974   	1.58541e+00		         0.09000	-8.60000e+01	
0.34586   	1.25073e+00		         0.09167	-8.50000e+01	
0.35225   	8.74373e-01		         0.09333	-8.40000e+01	
0.35837   	4.15475e-01		         0.09500	-8.30000e+01	
0.36450   	-1.58063e-01		         0.09667	-8.20000e+01	
0.37062   	-5.72009e-01		         0.09833	-8.10000e+01	
0.37701   	-1.15218e+00		         0.10000	-8.00000e+01	
0.38313   	-1.47102e+00		         0.10167	-7.90000e+01	
0.38925   	-1.74807e+00		         0.10333	-7.80000e+01	
0.39537   	-1.95565e+00		         0.10500	-7.60000e+01	
0.40176   	-2.18982e+00		         0.10667	-7.50000e+01	
0.40788   	-2.17302e+00		         0.10833	-7.40000e+01	
0.41401   	-2.24766e+00		         0.11000	-7.20000e+01	
0.42013   	-2.17561e+00		         0.11167	-7.10000e+01	
0.42652   	-2.18733e+00		         0.11333	-7.00000e+01	
0.43264   	-2.31259e+00		         0.11500	-6.80000e+01	
0.43876   	-2.47655e+00		         0.11667	-6.70000e+01	
0.44488   	-2.91369e+00		         0.11833	-6.60000e+01	
0.45128   	-3.66312e+00		         0.12000	-6.50000e+01	
0.45740   	-4.38907e+00		         0.12167	-6.40000e+01	
0.46352   	-5.08648e+00		         0.12333	-6.30000e+01	
0.46964   	-5.77134e+00		         0.12500	-6.20000e+01	
0.47603   	-6.37010e+00		         0.12667	-6.20000e+01	
0.48215   	-6.56782e+00		         0.12833	-6.10000e+01	
0.48827   	-6.66921e+00		         0.13000	-6.00000e+01	
0.49439   	-6.63747e+00		         0.13167	-5.90000e+01	
0.50079   	-6.47235e+00		         0.13333	-5.80000e+01	
0.50691   	-6.14910e+00		         0.13500	-5.70000e+01	
0.51303   	-6.00790e+00		         0.13667	-5.60000e+01	
0.51915   	-5.78344e+00		         0.13833	-5.50000e+01	
0.52554   	-5.58696e+00		         0.14000	-5.50000e+01	
0.53166   	-5.41192e+00		         0.14167	-5.40000e+01	
0.53779   	-5.29625e+00		         0.14333	-5.30000e+01	
0.54390   	-4.97758e+00		         0.14500	-5.20000e+01	
0.55030   	-4.78398e+00		         0.14667	-5.20000e+01	
0.55642   	-4.45340e+00		         0.14833	-5.10000e+01	
0.56254   	-4.15062e+00		         0.15000	-5.00000e+01	
0.56866   	-4.14467e+00		         0.15167	-5.00000e+01	
0.57505   	-4.34747e+00		         0.15333	-4.90000e+01	
0.58118   	-4.48371e+00		         0.15500	-4.80000e+01	
0.58730   	-4.96080e+00		         0.15667	-4.70000e+01	
0.59342   	-5.76001e+00		         0.15833	-4.60000e+01	
0.59981   	-5.96859e+00		         0.16000	-4.50000e+01	
0.60593   	-6.17221e+00		         0.16167	-4.50000e+01	
0.61205   	-6.42622e+00		         0.16333	-4.40000e+01	
0.61817   	-6.86919e+00		         0.16500	-4.30000e+01	
0.62472   	-6.73947e+00		         0.16667	-4.20000e+01	
0.63069   	-6.73467e+00		         0.16833	-4.20000e+01	
0.63681   	-6.63386e+00		         0.17000	-4.10000e+01	
0.64293   	-6.25296e+00		         0.17167	-4.10000e+01	
0.64932   	-5.37911e+00		         0.17333	-4.10000e+01	
0.65544   	-4.65563e+00		         0.17500	-4.00000e+01	
0.66156   	-4.00400e+00		         0.17667	-4.00000e+01	
0.66769   	-3.26775e+00		         0.17833	-4.00000e+01	
0.67408   	-2.93218e+00		         0.18000	-4.00000e+01	
0.68020   	-3.08794e+00		         0.18167	-4.00000e+01	
0.68632   	-2.77322e+00		         0.18333	-3.90000e+01	
0.69244   	-2.33671e+00		         0.18500	-3.90000e+01	
0.69883   	-1.81800e+00		         0.18667	-3.90000e+01	
0.70495   	-1.04920e+00		         0.18833	-3.80000e+01	
0.71108   	2.94953e-01		         0.19000	-3.80000e+01	
0.71720   	1.25889e+00		         0.19167	-3.80000e+01	
0.72359   	2.17362e+00		         0.19333	-3.70000e+01	
0.72971   	2.70740e+00		         0.19500	-3.70000e+01	
0.73584   	2.42902e+00		         0.19667	-3.70000e+01	
0.74195   	1.47766e+00		         0.19833	-3.60000e+01	
0.74835   	7.18342e-01		         0.20000	-3.60000e+01	
0.75447   	2.71884e-01		         0.20167	-3.60000e+01	
0.76059   	2.16780e-01		         0.20333	-3.60000e+01	
0.76671   	1.17721e+00		         0.20500	-3.60000e+01	
0.77310   	2.74676e+00		         0.20667	-3.60000e+01	
0.77923   	4.03091e+00		         0.20833	-3.60000e+01	
0.78535   	4.86814e+00		         0.21000	-3.60000e+01	
0.79147   	5.40383e+00		         0.21167	-3.60000e+01	
0.79786   	5.69355e+00		         0.21333	-3.70000e+01	
0.80398   	5.71217e+00		         0.21500	-3.70000e+01	
0.81010   	5.51863e+00		         0.21667	-3.70000e+01	
0.81622   	5.31746e+00		         0.21833	-3.80000e+01	
0.82261   	5.22400e+00		         0.22000	-3.80000e+01	
0.82874   	5.18007e+00		         0.22167	-3.90000e+01	
0.83486   	5.05265e+00		         0.22333	-3.90000e+01	
0.84098   	4.98042e+00		         0.22500	-4.00000e+01	
0.84737   	5.03602e+00		         0.22667	-4.00000e+01	
0.85349   	4.94533e+00		         0.22833	-4.00000e+01	
0.85961   	4.87032e+00		         0.23000	-4.00000e+01	
0.86574   	4.93913e+00		         0.23167	-4.10000e+01	
0.87213   	5.05648e+00		         0.23333	-4.10000e+01	
0.87825   	5.12774e+00		         0.23500	-4.10000e+01	
0.88437   	5.35759e+00		         0.23667	-4.00000e+01	
0.89057   	5.48510e+00		         0.23833	-4.00000e+01	
0.89688   	5.54663e+00		         0.24000	-4.00000e+01	
0.90301   	5.62585e+00		         0.24167	-3.90000e+01	
0.90912   	5.59619e+00		         0.24333	-3.90000e+01	
0.91525   	5.51001e+00		         0.24500	-3.80000e+01	
0.92164   	5.36947e+00		         0.24667	-3.80000e+01	
0.92776   	5.16952e+00		         0.24833	-3.70000e+01	
0.93388   	4.94247e+00		         0.25000	-3.70000e+01	
0.94036   	4.83241e+00		         0.25167	-3.60000e+01	
0.94640   	4.67488e+00		         0.25333	-3.60000e+01	
0.95252   	4.56866e+00		         0.25500	-3.50000e+01	
0.95864   	4.48751e+00		         0.25667	-3.50000e+01	
0.96476   	4.31705e+00		         0.25833	-3.40000e+01	
0.97115   	3.98642e+00		         0.26000	-3.40000e+01	
0.97727   	3.74471e+00		         0.26167	-3.30000e+01	
0.98339   	3.42909e+00		         0.26333	-3.30000e+01	
0.98951   	3.15103e+00		         0.26500	-3.20000e+01	
0.99591   	2.97462e+00		         0.26667	-3.10000e+01	
1.00203   	2.78664e+00		         0.26833	-3.00000e+01	
1.00815   	2.59333e+00		         0.27000	-2.90000e+01	
1.01427   	2.42176e+00		         0.27167	-2.80000e+01	
1.02066   	2.23551e+00		         0.27333	-2.70000e+01	
1.02678   	2.02192e+00		         0.27500	-2.50000e+01	
1.03291   	1.85107e+00		         0.27667	-2.40000e+01	
1.03903   	1.64342e+00		         0.27833	-2.30000e+01	
1.04542   	1.30520e+00		         0.28000	-2.10000e+01	
1.05154   	8.61242e-01		         0.28167	-2.00000e+01	
1.05766   	3.79394e-01		         0.28333	-1.90000e+01	
1.06378   	-3.01184e-01		         0.28500	-1.70000e+01	
1.07017   	-8.55981e-01		         0.28667	-1.60000e+01	
1.07630   	-1.19111e+00		         0.28833	-1.40000e+01	
1.08242   	-1.34188e+00		         0.29000	-1.30000e+01	
1.08854   	-1.58143e+00		         0.29167	-1.10000e+01	
1.09493   	-1.57960e+00		         0.29333	-1.00000e+01	
1.10105   	-1.72019e+00		         0.29500	-8.00000e+00	
1.10717   	-1.88501e+00		         0.29667	-6.00000e+00	
1.11330   	-2.06461e+00		         0.29833	-5.00000e+00	
1.11969   	-2.03981e+00		         0.30000	-3.00000e+00	
1.12581   	-2.10865e+00		         0.30167	-2.00000e+00	
1.13193   	-2.28557e+00		         0.30333	0.00000e+00	
1.13805   	-2.63386e+00		         0.30500	1.00000e+00	
1.14444   	-3.24512e+00		         0.30667	2.00000e+00	
1.15056   	-4.03454e+00		         0.30833	4.00000e+00	
1.15668   	-4.74110e+00		         0.31000	5.00000e+00	
1.16281   	-5.39800e+00		         0.31167	6.00000e+00	
1.16920   	-5.96836e+00		         0.31333	7.00000e+00	
1.17532   	-6.27599e+00		         0.31500	8.00000e+00	
1.18144   	-6.43021e+00		         0.31667	9.00000e+00	
1.18756   	-6.48081e+00		         0.31833	9.00000e+00	
1.19396   	-6.44428e+00		         0.32000	1.00000e+01	
1.20008   	-6.30561e+00		         0.32167	1.10000e+01	
1.20620   	-6.09292e+00		         0.32333	1.10000e+01	
1.21232   	-5.86715e+00		         0.32500	1.20000e+01	
1.21871   	-5.79774e+00		         0.32667	1.20000e+01	
1.22483   	-5.63952e+00		         0.32833	1.20000e+01	
1.23095   	-5.30867e+00		         0.33000	1.30000e+01	
1.23707   	-5.23513e+00		         0.33167	1.30000e+01	
1.24347   	-4.94095e+00		         0.33333	1.30000e+01	
1.24959   	-4.57906e+00		         0.33500	1.30000e+01	
1.25570   	-4.21245e+00		         0.33667	1.30000e+01	
1.26183   	-4.13914e+00		         0.33833	1.30000e+01	
1.26822   	-3.77447e+00		         0.34000	1.30000e+01	
1.27434   	-3.88783e+00		         0.34167	1.20000e+01	
1.28047   	-3.94660e+00		         0.34333	1.20000e+01	
1.28659   	-4.27649e+00		         0.34500	1.20000e+01	
1.29298   	-4.60532e+00		         0.34667	1.20000e+01	
1.29910   	-5.09821e+00		         0.34833	1.20000e+01	
1.30556   	-5.63948e+00		         0.35000	1.20000e+01	
1.31134   	-6.08472e+00		         0.35167	1.20000e+01	
1.31774   	-6.41115e+00		         0.35333	1.20000e+01	
1.32386   	-6.68952e+00		         0.35500	1.20000e+01	
1.32998   	-7.00057e+00		         0.35667	1.10000e+01	
1.33610   	-6.92753e+00		         0.35833	1.10000e+01	
1.34249   	-6.73231e+00		         0.36000	1.10000e+01	
1.34861   	-6.28371e+00		         0.36167	1.10000e+01	
1.35473   	-5.54609e+00		         0.36333	1.10000e+01	
1.36086   	-4.69300e+00		         0.36500	1.10000e+01	
1.36725   	-3.82451e+00		         0.36667	1.10000e+01	
1.37337   	-3.18124e+00		         0.36833	1.10000e+01	
1.37950   	-2.75817e+00		         0.37000	1.10000e+01	
1.38561   	-3.12849e+00		         0.37167	1.10000e+01	
1.39200   	-3.13641e+00		         0.37333	1.10000e+01	
1.39813   	-2.99892e+00		         0.37500	1.10000e+01	
1.40425   	-2.47861e+00		         0.37667	1.00000e+01	
1.41037   	-1.64232e+00		         0.37833	1.00000e+01	
1.41676   	-1.49192e-01		         0.38000	1.00000e+01	
1.42288   	1.25615e+00		         0.38167	9.00000e+00	
1.42900   	2.36218e+00		         0.38333	9.00000e+00	
1.43512   	2.96958e+00		         0.38500	8.00000e+00	
1.44151   	3.27403e+00		         0.38667	7.00000e+00	
1.44764   	3.61988e+00		         0.38833	7.00000e+00	
			         0.39000	6.00000e+00	
			         0.39167	6.00000e+00	
			         0.39333	6.00000e+00	
			         0.39500	5.00000e+00	
			         0.39667	5.00000e+00	
			         0.39833	5.00000e+00	
			         0.40000	5.00000e+00	
			         0.40167	5.00000e+00	
			         0.40333	5.00000e+00	
			         0.40500	6.00000e+00	
			         0.40667	6.00000e+00	
			         0.40833	6.00000e+00	
			         0.41000	6.00000e+00	
			         0.41167	6.00000e+00	
			         0.41333	5.00000e+00	
			         0.41500	5.00000e+00	
			         0.41667	4.00000e+00	
			         0.41833	4.00000e+00	
			         0.42000	4.00000e+00	
			         0.42167	3.00000e+00	
			         0.42333	3.00000e+00	
			         0.42500	2.00000e+00	
			         0.42667	2.00000e+00	
			         0.42833	1.00000e+00	
			         0.43000	1.00000e+00	
			         0.43167	1.00000e+00	
			         0.43333	1.00000e+00	
			         0.43500	1.00000e+00	
			         0.43667	1.00000e+00	
			         0.43833	1.00000e+00	
			         0.44000	1.00000e+00	
			         0.44167	1.00000e+00	
			         0.44333	1.00000e+00	
			         0.44500	1.00000e+00	
			         0.44667	1.00000e+00	
			         0.44833	0.00000e+00	
			         0.45000	0.00000e+00	
			         0.45167	0.00000e+00	
			         0.45333	0.00000e+00	
			         0.45500	0.00000e+00	
			         0.45667	-1.00000e+00	
			         0.45833	-1.00000e+00	
			         0.46000	-1.00000e+00	
			         0.46167	-1.00000e+00	
			         0.46333	-1.00000e+00	
			         0.46500	0.00000e+00	
			         0.46667	0.00000e+00	
			         0.46833	1.00000e+00	
			         0.47000	2.00000e+00	
			         0.47167	3.00000e+00	
			         0.47333	3.00000e+00	
			         0.47500	4.00000e+00	
			         0.47667	5.00000e+00	
			         0.47833	5.00000e+00	
			         0.48000	5.00000e+00	
			         0.48167	6.00000e+00	
			         0.48333	6.00000e+00	
			         0.48500	6.00000e+00	
			         0.48667	6.00000e+00	
			         0.48833	6.00000e+00	
			         0.49000	6.00000e+00	
			         0.49167	6.00000e+00	
			         0.49333	5.00000e+00	
			         0.49500	5.00000e+00	
			         0.49667	5.00000e+00	
			         0.49833	5.00000e+00	
			         0.50000	5.00000e+00	
			         0.50167	5.00000e+00	
			         0.50333	4.00000e+00	
			         0.50500	3.00000e+00	
			         0.50667	2.00000e+00	
			         0.50833	1.00000e+00	
			         0.51000	-1.00000e+00	
			         0.51167	-4.00000e+00	
			         0.51333	-7.00000e+00	
			         0.51500	-1.00000e+01	
			         0.51667	-1.40000e+01	
			         0.51833	-1.90000e+01	
			         0.52000	-2.30000e+01	
			         0.52167	-2.80000e+01	
			         0.52333	-3.20000e+01	
			         0.52500	-3.70000e+01	
			         0.52667	-4.10000e+01	
			         0.52833	-4.50000e+01	
			         0.53000	-4.80000e+01	
			         0.53167	-5.10000e+01	
			         0.53333	-5.40000e+01	
			         0.53500	-5.70000e+01	
			         0.53667	-5.90000e+01	
			         0.53833	-6.10000e+01	
			         0.54000	-6.20000e+01	
			         0.54167	-6.30000e+01	
			         0.54333	-6.40000e+01	
			         0.54500	-6.50000e+01	
			         0.54667	-6.50000e+01	
			         0.54833	-6.60000e+01	
			         0.55000	-6.60000e+01	
			         0.55167	-6.60000e+01	
			         0.55333	-6.60000e+01	
			         0.55500	-6.50000e+01	
			         0.55667	-6.50000e+01	
			         0.55833	-6.40000e+01	
			         0.56000	-6.20000e+01	
			         0.56167	-6.10000e+01	
			         0.56333	-5.90000e+01	
			         0.56500	-5.70000e+01	
			         0.56667	-5.40000e+01	
			         0.56833	-5.10000e+01	
			         0.57000	-4.70000e+01	
			         0.57167	-4.30000e+01	
			         0.57333	-3.80000e+01	
			         0.57500	-3.30000e+01	
			         0.57667	-2.70000e+01	
			         0.57833	-2.00000e+01	
			         0.58000	-1.30000e+01	
			         0.58167	-5.00000e+00	
			         0.58333	3.00000e+00	
			         0.58500	1.10000e+01	
			         0.58667	1.80000e+01	
			         0.58833	2.60000e+01	
			         0.59000	3.30000e+01	
			         0.59167	4.00000e+01	
			         0.59333	4.70000e+01	
			         0.59500	5.20000e+01	
			         0.59667	5.70000e+01	
			         0.59833	6.10000e+01	
			         0.60000	6.30000e+01	
			         0.60167	6.50000e+01	
			         0.60333	6.70000e+01	
			         0.60500	6.80000e+01	
			         0.60667	6.80000e+01	
			         0.60833	6.80000e+01	
			         0.61000	6.80000e+01	
			         0.61167	6.70000e+01	
			         0.61333	6.60000e+01	
			         0.61500	6.50000e+01	
			         0.61667	6.50000e+01	
			         0.61833	6.40000e+01	
			         0.62000	6.30000e+01	
			         0.62167	6.20000e+01	
			         0.62333	6.20000e+01	
			         0.62500	6.10000e+01	
			         0.62667	6.10000e+01	
			         0.62833	6.00000e+01	
			         0.63000	6.00000e+01	
			         0.63167	6.00000e+01	
			         0.63333	5.90000e+01	
			         0.63500	5.80000e+01	
			         0.63667	5.80000e+01	
			         0.63833	5.70000e+01	
			         0.64000	5.60000e+01	
			         0.64167	5.50000e+01	
			         0.64333	5.40000e+01	
			         0.64500	5.30000e+01	
			         0.64667	5.20000e+01	
			         0.64833	5.10000e+01	
			         0.65000	5.00000e+01	
			         0.65167	4.90000e+01	
			         0.65333	4.80000e+01	
			         0.65500	4.70000e+01	
			         0.65667	4.60000e+01	
			         0.65833	4.50000e+01	
			         0.66000	4.40000e+01	
			         0.66167	4.40000e+01	
			         0.66333	4.30000e+01	
			         0.66500	4.20000e+01	
			         0.66667	4.00000e+01	
			         0.66833	3.90000e+01	
			         0.67000	3.80000e+01	
			         0.67167	3.70000e+01	
			         0.67333	3.60000e+01	
			         0.67500	3.50000e+01	
			         0.67667	3.40000e+01	
			         0.67833	3.30000e+01	
			         0.68000	3.20000e+01	
			         0.68167	3.00000e+01	
			         0.68333	2.80000e+01	
			         0.68500	2.70000e+01	
			         0.68667	2.60000e+01	
			         0.68833	2.60000e+01	
			         0.69000	2.70000e+01	
			         0.69167	2.90000e+01	
			         0.69333	3.30000e+01	
			         0.69500	3.80000e+01	
			         0.69667	4.50000e+01	
			         0.69833	5.50000e+01	
			         0.70000	6.70000e+01	
			         0.70167	8.10000e+01	
			         0.70333	9.70000e+01	
			         0.70500	1.15000e+02	
			         0.70667	1.33000e+02	
			         0.70833	1.52000e+02	
			         0.71000	1.71000e+02	
			         0.71167	1.90000e+02	
			         0.71333	2.08000e+02	
			         0.71500	2.24000e+02	
			         0.71667	2.38000e+02	
			         0.71833	2.50000e+02	
			         0.72000	2.58000e+02	
			         0.72167	2.64000e+02	
			         0.72333	2.66000e+02	
			         0.72500	2.64000e+02	
			         0.72667	2.59000e+02	
			         0.72833	2.50000e+02	
			         0.73000	2.38000e+02	
			         0.73167	2.23000e+02	
			         0.73333	2.06000e+02	
			         0.73500	1.87000e+02	
			         0.73667	1.67000e+02	
			         0.73833	1.45000e+02	
			         0.74000	1.23000e+02	
			         0.74167	1.00000e+02	
			         0.74333	7.80000e+01	
			         0.74500	5.60000e+01	
			         0.74667	3.60000e+01	
			         0.74833	1.60000e+01	
			         0.75000	-1.00000e+00	
			         0.75167	-1.80000e+01	
			         0.75333	-3.20000e+01	
			         0.75500	-4.60000e+01	
			         0.75667	-5.70000e+01	
			         0.75833	-6.70000e+01	
			         0.76000	-7.60000e+01	
			         0.76167	-8.30000e+01	
			         0.76333	-8.80000e+01	
			         0.76500	-9.20000e+01	
			         0.76667	-9.50000e+01	
			         0.76833	-9.70000e+01	
			         0.77000	-9.80000e+01	
			         0.77167	-9.90000e+01	
			         0.77333	-9.90000e+01	
			         0.77500	-9.80000e+01	
			         0.77667	-9.70000e+01	
			         0.77833	-9.60000e+01	
			         0.78000	-9.50000e+01	
			         0.78167	-9.30000e+01	
			         0.78333	-9.20000e+01	
			         0.78500	-9.00000e+01	
			         0.78667	-8.90000e+01	
			         0.78833	-8.70000e+01	
			         0.79000	-8.60000e+01	
			         0.79167	-8.40000e+01	
			         0.79333	-8.20000e+01	
			         0.79500	-8.10000e+01	
			         0.79667	-7.90000e+01	
			         0.79833	-7.70000e+01	
			         0.80000	-7.60000e+01	
			         0.80167	-7.40000e+01	
			         0.80333	-7.30000e+01	
			         0.80500	-7.20000e+01	
			         0.80667	-7.10000e+01	
			         0.80833	-7.00000e+01	
			         0.81000	-7.00000e+01	
			         0.81167	-6.90000e+01	
			         0.81333	-6.80000e+01	
			         0.81500	-6.80000e+01	
			         0.81667	-6.70000e+01	
			         0.81833	-6.60000e+01	
			         0.82000	-6.60000e+01	
			         0.82167	-6.50000e+01	
			         0.82333	-6.40000e+01	
			         0.82500	-6.30000e+01	
			         0.82667	-6.10000e+01	
			         0.82833	-6.00000e+01	
			         0.83000	-5.90000e+01	
			         0.83167	-5.80000e+01	
			         0.83333	-5.70000e+01	
			         0.83500	-5.60000e+01	
			         0.83667	-5.50000e+01	
			         0.83833	-5.40000e+01	
			         0.84000	-5.30000e+01	
			         0.84167	-5.30000e+01	
			         0.84333	-5.20000e+01	
			         0.84500	-5.10000e+01	
			         0.84667	-5.00000e+01	
			         0.84833	-5.00000e+01	
			         0.85000	-4.90000e+01	
			         0.85167	-4.80000e+01	
			         0.85333	-4.80000e+01	
			         0.85500	-4.70000e+01	
			         0.85667	-4.70000e+01	
			         0.85833	-4.60000e+01	
			         0.86000	-4.60000e+01	
			         0.86167	-4.60000e+01	
			         0.86333	-4.60000e+01	
			         0.86500	-4.50000e+01	
			         0.86667	-4.50000e+01	
			         0.86833	-4.50000e+01	
			         0.87000	-4.50000e+01	
			         0.87167	-4.40000e+01	
			         0.87333	-4.40000e+01	
			         0.87500	-4.40000e+01	
			         0.87667	-4.40000e+01	
			         0.87833	-4.30000e+01	
			         0.88000	-4.30000e+01	
			         0.88167	-4.30000e+01	
			         0.88333	-4.30000e+01	
			         0.88500	-4.30000e+01	
			         0.88667	-4.30000e+01	
			         0.88833	-4.30000e+01	
			         0.89000	-4.30000e+01	
			         0.89167	-4.30000e+01	
			         0.89333	-4.30000e+01	
			         0.89500	-4.30000e+01	
			         0.89667	-4.30000e+01	
			         0.89833	-4.30000e+01	
			         0.90000	-4.30000e+01	
			         0.90167	-4.30000e+01	
			         0.90333	-4.30000e+01	
			         0.90500	-4.30000e+01	
			         0.90667	-4.40000e+01	
			         0.90833	-4.40000e+01	
			         0.91000	-4.40000e+01	
			         0.91167	-4.30000e+01	
			         0.91333	-4.30000e+01	
			         0.91500	-4.40000e+01	
			         0.91667	-4.40000e+01	
			         0.91833	-4.40000e+01	
			         0.92000	-4.40000e+01	
			         0.92167	-4.50000e+01	
			         0.92333	-4.50000e+01	
			         0.92500	-4.50000e+01	
			         0.92667	-4.60000e+01	
			         0.92833	-4.60000e+01	
			         0.93000	-4.70000e+01	
			         0.93167	-4.70000e+01	
			         0.93333	-4.70000e+01	
			         0.93500	-4.80000e+01	
			         0.93667	-4.80000e+01	
			         0.93833	-4.80000e+01	
			         0.94000	-4.80000e+01	
			         0.94167	-4.80000e+01	
			         0.94333	-4.70000e+01	
			         0.94500	-4.70000e+01	
			         0.94667	-4.60000e+01	
			         0.94833	-4.50000e+01	
			         0.95000	-4.50000e+01	
			         0.95167	-4.40000e+01	
			         0.95333	-4.30000e+01	
			         0.95500	-4.20000e+01	
			         0.95667	-4.10000e+01	
			         0.95833	-4.00000e+01	
			         0.96000	-3.90000e+01	
			         0.96167	-3.80000e+01	
			         0.96333	-3.70000e+01	
			         0.96500	-3.60000e+01	
			         0.96667	-3.40000e+01	
			         0.96833	-3.30000e+01	
			         0.97000	-3.20000e+01	
			         0.97167	-3.10000e+01	
			         0.97333	-3.00000e+01	
			         0.97500	-2.80000e+01	
			         0.97667	-2.70000e+01	
			         0.97833	-2.60000e+01	
			         0.98000	-2.40000e+01	
			         0.98167	-2.30000e+01	
			         0.98333	-2.10000e+01	
			         0.98500	-1.90000e+01	
			         0.98667	-1.80000e+01	
			         0.98833	-1.60000e+01	
			         0.99000	-1.40000e+01	
			         0.99167	-1.20000e+01	
			         0.99333	-1.10000e+01	
			         0.99500	-9.00000e+00	
			         0.99667	-7.00000e+00	
			         0.99833	-6.00000e+00	
			         1.00000	-4.00000e+00	
			         1.00167	-3.00000e+00	
			         1.00333	-1.00000e+00	
			         1.00500	0.00000e+00	
			         1.00667	1.00000e+00	
			         1.00833	2.00000e+00	
			         1.01000	3.00000e+00	
			         1.01167	5.00000e+00	
			         1.01333	6.00000e+00	
			         1.01500	7.00000e+00	
			         1.01667	8.00000e+00	
			         1.01833	9.00000e+00	
			         1.02000	1.00000e+01	
			         1.02167	1.10000e+01	
			         1.02333	1.20000e+01	
			         1.02500	1.30000e+01	
			         1.02667	1.40000e+01	
			         1.02833	1.40000e+01	
			         1.03000	1.50000e+01	
			         1.03167	1.60000e+01	
			         1.03333	1.60000e+01	
			         1.03500	1.70000e+01	
			         1.03667	1.80000e+01	
			         1.03833	1.80000e+01	
			         1.04000	1.80000e+01	
			         1.04167	1.90000e+01	
			         1.04333	1.90000e+01	
			         1.04500	1.90000e+01	
			         1.04667	1.80000e+01	
			         1.04833	1.80000e+01	
			         1.05000	1.80000e+01	
			         1.05167	1.70000e+01	
			         1.05333	1.60000e+01	
			         1.05500	1.60000e+01	
			         1.05667	1.50000e+01	
			         1.05833	1.40000e+01	
			         1.06000	1.30000e+01	
			         1.06167	1.30000e+01	
			         1.06333	1.20000e+01	
			         1.06500	1.10000e+01	
			         1.06667	1.10000e+01	
			         1.06833	1.00000e+01	
			         1.07000	1.00000e+01	
			         1.07167	1.00000e+01	
			         1.07333	1.00000e+01	
			         1.07500	1.00000e+01	
			         1.07667	1.00000e+01	
			         1.07833	1.00000e+01	
			         1.08000	1.10000e+01	
			         1.08167	1.10000e+01	
			         1.08333	1.10000e+01	
			         1.08500	1.20000e+01	
			         1.08667	1.20000e+01	
			         1.08833	1.20000e+01	
			         1.09000	1.20000e+01	
			         1.09167	1.20000e+01	
			         1.09333	1.20000e+01	
			         1.09500	1.20000e+01	
			         1.09667	1.20000e+01	
			         1.09833	1.10000e+01	
			         1.10000	1.10000e+01	
			         1.10167	1.00000e+01	
			         1.10333	1.00000e+01	
			         1.10500	1.00000e+01	
			         1.10667	9.00000e+00	
			         1.10833	9.00000e+00	
			         1.11000	8.00000e+00	
			         1.11167	8.00000e+00	
			         1.11333	8.00000e+00	
			         1.11500	7.00000e+00	
			         1.11667	7.00000e+00	
			         1.11833	7.00000e+00	
			         1.12000	7.00000e+00	
			         1.12167	6.00000e+00	
			         1.12333	6.00000e+00	
			         1.12500	5.00000e+00	
			         1.12667	5.00000e+00	
			         1.12833	4.00000e+00	
			         1.13000	3.00000e+00	
			         1.13167	3.00000e+00	
			         1.13333	2.00000e+00	
			         1.13500	1.00000e+00	
			         1.13667	0.00000e+00	
			         1.13833	-1.00000e+00	
			         1.14000	-1.00000e+00	
			         1.14167	-2.00000e+00	
			         1.14333	-2.00000e+00	
			         1.14500	-2.00000e+00	
			         1.14667	-2.00000e+00	
			         1.14833	-2.00000e+00	
			         1.15000	-2.00000e+00	
			         1.15167	-1.00000e+00	
			         1.15333	0.00000e+00	
			         1.15500	0.00000e+00	
			         1.15667	1.00000e+00	
			         1.15833	1.00000e+00	
			         1.16000	2.00000e+00	
			         1.16167	2.00000e+00	
			         1.16333	2.00000e+00	
			         1.16500	2.00000e+00	
			         1.16667	2.00000e+00	
			         1.16833	3.00000e+00	
			         1.17000	3.00000e+00	
			         1.17167	3.00000e+00	
			         1.17333	2.00000e+00	
			         1.17500	2.00000e+00	
			         1.17667	2.00000e+00	
			         1.17833	2.00000e+00	
			         1.18000	2.00000e+00	
			         1.18167	2.00000e+00	
			         1.18333	2.00000e+00	
			         1.18500	1.00000e+00	
			         1.18667	1.00000e+00	
			         1.18833	1.00000e+00	
			         1.19000	1.00000e+00	
			         1.19167	1.00000e+00	
			         1.19333	1.00000e+00	
			         1.19500	1.00000e+00	
			         1.19667	1.00000e+00	
			         1.19833	1.00000e+00	
			         1.20000	1.00000e+00	
			         1.20167	1.00000e+00	
			         1.20333	1.00000e+00	
			         1.20500	0.00000e+00	
			         1.20667	0.00000e+00	
			         1.20833	-1.00000e+00	
			         1.21000	-3.00000e+00	
			         1.21167	-5.00000e+00	
			         1.21333	-7.00000e+00	
			         1.21500	-9.00000e+00	
			         1.21667	-1.30000e+01	
			         1.21833	-1.60000e+01	
			         1.22000	-2.00000e+01	
			         1.22167	-2.40000e+01	
			         1.22333	-2.90000e+01	
			         1.22500	-3.30000e+01	
			         1.22667	-3.70000e+01	
			         1.22833	-4.20000e+01	
			         1.23000	-4.60000e+01	
			         1.23167	-4.90000e+01	
			         1.23333	-5.30000e+01	
			         1.23500	-5.60000e+01	
			         1.23667	-5.80000e+01	
			         1.23833	-6.10000e+01	
			         1.24000	-6.30000e+01	
			         1.24167	-6.50000e+01	
			         1.24333	-6.60000e+01	
			         1.24500	-6.80000e+01	
			         1.24667	-7.00000e+01	
			         1.24833	-7.10000e+01	
			         1.25000	-7.20000e+01	
			         1.25167	-7.30000e+01	
			         1.25333	-7.40000e+01	
			         1.25500	-7.50000e+01	
			         1.25667	-7.50000e+01	
			         1.25833	-7.60000e+01	
			         1.26000	-7.50000e+01	
			         1.26167	-7.50000e+01	
			         1.26333	-7.40000e+01	
			         1.26500	-7.30000e+01	
			         1.26667	-7.10000e+01	
			         1.26833	-6.90000e+01	
			         1.27000	-6.60000e+01	
			         1.27167	-6.30000e+01	
			         1.27333	-5.90000e+01	
			         1.27500	-5.50000e+01	
			         1.27667	-5.00000e+01	
			         1.27833	-4.50000e+01	
			         1.28000	-3.90000e+01	
			         1.28167	-3.20000e+01	
			         1.28333	-2.50000e+01	
			         1.28500	-1.70000e+01	
			         1.28667	-1.00000e+01	
			         1.28833	-2.00000e+00	
			         1.29000	6.00000e+00	
			         1.29167	1.30000e+01	
			         1.29333	2.10000e+01	
			         1.29500	2.80000e+01	
			         1.29667	3.40000e+01	
			         1.29833	4.00000e+01	
			         1.30000	4.50000e+01	
			         1.30167	5.00000e+01	
			         1.30333	5.30000e+01	
			         1.30500	5.60000e+01	
			         1.30667	5.80000e+01	
			         1.30833	6.00000e+01	
			         1.31000	6.10000e+01	
			         1.31167	6.20000e+01	
			         1.31333	6.20000e+01	
			         1.31500	6.30000e+01	
			         1.31667	6.30000e+01	
			         1.31833	6.30000e+01	
			         1.32000	6.20000e+01	
			         1.32167	6.20000e+01	
			         1.32333	6.20000e+01	
			         1.32500	6.20000e+01	
			         1.32667	6.20000e+01	
			         1.32833	6.10000e+01	
			         1.33000	6.10000e+01	
			         1.33167	6.00000e+01	
			         1.33333	5.90000e+01	
			         1.33500	5.90000e+01	
			         1.33667	5.80000e+01	
			         1.33833	5.70000e+01	
			         1.34000	5.70000e+01	
			         1.34167	5.60000e+01	
			         1.34333	5.50000e+01	
			         1.34500	5.40000e+01	
			         1.34667	5.30000e+01	
			         1.34833	5.20000e+01	
			         1.35000	5.10000e+01	
			         1.35167	5.00000e+01	
			         1.35333	4.90000e+01	
			         1.35500	4.80000e+01	
			         1.35667	4.70000e+01	
			         1.35833	4.60000e+01	
			         1.36000	4.50000e+01	
			         1.36167	4.30000e+01	
			         1.36333	4.20000e+01	
			         1.36500	4.10000e+01	
			         1.36667	4.00000e+01	
			         1.36833	3.90000e+01	
			         1.37000	3.80000e+01	
			         1.37167	3.80000e+01	
			         1.37333	3.70000e+01	
			         1.37500	3.60000e+01	
			         1.37667	3.50000e+01	
			         1.37833	3.50000e+01	
			         1.38000	3.40000e+01	
			         1.38167	3.40000e+01	
			         1.38333	3.30000e+01	
			         1.38500	3.20000e+01	
			         1.38667	3.10000e+01	
			         1.38833	2.90000e+01	
			         1.39000	2.80000e+01	
			         1.39167	2.70000e+01	
			         1.39333	2.70000e+01	
			         1.39500	2.70000e+01	
			         1.39667	2.90000e+01	
			         1.39833	3.30000e+01	
			         1.40000	3.80000e+01	
			         1.40167	4.50000e+01	
			         1.40333	5.40000e+01	
			         1.40500	6.60000e+01	
			         1.40667	8.00000e+01	
			         1.40833	9.70000e+01	
			         1.41000	1.15000e+02	
			         1.41167	1.35000e+02	
			         1.41333	1.54000e+02	
			         1.41500	1.74000e+02	
			         1.41667	1.93000e+02	
			         1.41833	2.11000e+02	
			         1.42000	2.28000e+02	
			         1.42167	2.42000e+02	
			         1.42333	2.53000e+02	
			         1.42500	2.62000e+02	
			         1.42667	2.67000e+02	
			         1.42833	2.68000e+02	
			         1.43000	2.66000e+02	
			         1.43167	2.60000e+02	
			         1.43333	2.51000e+02	
			         1.43500	2.38000e+02	
			         1.43667	2.23000e+02	
			         1.43833	2.05000e+02	
			         1.44000	1.86000e+02	
			         1.44167	1.65000e+02	
			         1.44333	1.43000e+02	
			         1.44500	1.20000e+02	
			         1.44667	9.70000e+01	
			         1.44833	7.40000e+01	
			         1.45000	5.20000e+01	
			         1.45167	3.20000e+01	
			         1.45333	1.20000e+01	
			         1.45500	-6.00000e+00	
			         1.45667	-2.20000e+01	
			         1.45833	-3.70000e+01	
			         1.46000	-5.00000e+01	
			         1.46167	-6.20000e+01	
			         1.46333	-7.20000e+01	
			         1.46500	-8.00000e+01	
			         1.46667	-8.70000e+01	
			         1.46833	-9.20000e+01	
			         1.47000	-9.60000e+01	
			         1.47167	-9.90000e+01	
			         1.47333	-1.01000e+02	
			         1.47500	-1.02000e+02	
			         1.47667	-1.02000e+02	
			         1.47833	-1.02000e+02	
			         1.48000	-1.01000e+02	
			         1.48167	-9.90000e+01	
			         1.48333	-9.80000e+01	
			         1.48500	-9.60000e+01	
			         1.48667	-9.50000e+01	
