Velocity (TVI), in cm/s

Time (s) :	Trace 1 : 		Ecg : 		
0.01781   	2.65540e-01		         0.00000	2.00000e+01	
0.02394   	9.09943e-01		         0.00167	4.00000e+01	
0.03035   	1.23878e+00		         0.00333	6.20000e+01	
0.03649   	1.74704e+00		         0.00500	8.60000e+01	
0.04263   	1.53749e+00		         0.00667	1.12000e+02	
0.04876   	8.68368e-01		         0.00833	1.38000e+02	
0.05518   	9.51610e-02		         0.01000	1.65000e+02	
0.06131   	-4.77583e-01		         0.01167	1.90000e+02	
0.06745   	-1.08738e+00		         0.01333	2.14000e+02	
0.07359   	-8.04207e-01		         0.01500	2.35000e+02	
0.07999   	-1.99482e-01		         0.01667	2.51000e+02	
0.08613   	4.10108e-01		         0.01833	2.63000e+02	
0.09227   	1.18891e+00		         0.02000	2.69000e+02	
0.09841   	2.18427e+00		         0.02167	2.69000e+02	
0.10482   	3.01754e+00		         0.02333	2.62000e+02	
0.11095   	3.68422e+00		         0.02500	2.49000e+02	
0.11709   	4.13730e+00		         0.02667	2.29000e+02	
0.12323   	4.29070e+00		         0.02833	2.04000e+02	
0.12964   	4.32991e+00		         0.03000	1.75000e+02	
0.13578   	4.38014e+00		         0.03167	1.43000e+02	
0.14192   	4.35113e+00		         0.03333	1.09000e+02	
0.14805   	4.38865e+00		         0.03500	7.30000e+01	
0.15446   	4.45276e+00		         0.03667	3.80000e+01	
0.16060   	4.53817e+00		         0.03833	3.00000e+00	
0.16674   	4.57307e+00		         0.04000	-2.80000e+01	
0.17287   	4.71022e+00		         0.04167	-5.70000e+01	
0.17928   	4.72019e+00		         0.04333	-8.20000e+01	
0.18542   	4.80064e+00		         0.04500	-1.03000e+02	
0.19156   	4.85072e+00		         0.04667	-1.19000e+02	
0.19769   	4.84528e+00		         0.04833	-1.32000e+02	
0.20411   	4.83578e+00		         0.05000	-1.41000e+02	
0.21024   	4.93617e+00		         0.05167	-1.48000e+02	
0.21638   	4.88031e+00		         0.05333	-1.51000e+02	
0.22252   	4.74086e+00		         0.05500	-1.53000e+02	
0.22893   	4.67400e+00		         0.05667	-1.54000e+02	
0.23507   	4.63625e+00		         0.05833	-1.53000e+02	
0.24120   	4.45245e+00		         0.06000	-1.52000e+02	
0.24734   	4.41211e+00		         0.06167	-1.50000e+02	
0.25375   	4.41007e+00		         0.06333	-1.49000e+02	
0.25988   	4.38079e+00		         0.06500	-1.47000e+02	
0.26603   	4.24325e+00		         0.06667	-1.45000e+02	
0.27216   	4.16741e+00		         0.06833	-1.44000e+02	
0.27857   	4.04108e+00		         0.07000	-1.43000e+02	
0.28471   	3.96525e+00		         0.07167	-1.42000e+02	
0.29085   	3.81379e+00		         0.07333	-1.41000e+02	
0.29698   	3.69706e+00		         0.07500	-1.40000e+02	
0.30339   	3.59436e+00		         0.07667	-1.39000e+02	
0.30953   	3.42967e+00		         0.07833	-1.37000e+02	
0.31567   	3.27269e+00		         0.08000	-1.35000e+02	
0.32181   	3.11489e+00		         0.08167	-1.32000e+02	
0.32845   	2.95461e+00		         0.08333	-1.29000e+02	
0.33435   	2.86713e+00		         0.08500	-1.25000e+02	
0.34049   	2.66915e+00		         0.08667	-1.20000e+02	
0.34663   	2.50332e+00		         0.08833	-1.14000e+02	
0.35304   	2.34035e+00		         0.09000	-1.08000e+02	
0.35917   	2.09490e+00		         0.09167	-1.02000e+02	
0.36531   	1.73978e+00		         0.09333	-9.50000e+01	
0.37145   	1.44882e+00		         0.09500	-8.80000e+01	
0.37805   	1.01661e+00		         0.09667	-8.10000e+01	
0.38400   	5.65099e-01		         0.09833	-7.30000e+01	
0.39013   	5.54330e-02		         0.10000	-6.50000e+01	
0.39627   	-4.54197e-01		         0.10167	-5.80000e+01	
0.40268   	-5.99336e-01		         0.10333	-5.00000e+01	
0.40882   	-3.47521e-01		         0.10500	-4.30000e+01	
0.41496   	-7.67554e-02		         0.10667	-3.60000e+01	
0.42109   	1.90721e-01		         0.10833	-2.80000e+01	
0.42780   	4.43027e-01		         0.11000	-2.20000e+01	
0.43364   	4.16450e-01		         0.11167	-1.50000e+01	
0.43978   	-6.94062e-02		         0.11333	-9.00000e+00	
0.44592   	-3.11344e-01		         0.11500	-3.00000e+00	
0.45232   	-4.18476e-01		         0.11667	2.00000e+00	
0.45846   	-5.30873e-01		         0.11833	7.00000e+00	
0.46460   	-4.39711e-01		         0.12000	1.20000e+01	
0.47074   	-4.64455e-01		         0.12167	1.60000e+01	
0.47715   	-2.76485e-01		         0.12333	1.90000e+01	
0.48328   	-5.16978e-01		         0.12500	2.20000e+01	
0.48942   	-5.24885e-01		         0.12667	2.40000e+01	
0.49556   	-8.92371e-01		         0.12833	2.60000e+01	
0.50197   	-1.42264e+00		         0.13000	2.80000e+01	
0.50811   	-2.08346e+00		         0.13167	3.00000e+01	
0.51424   	-2.45375e+00		         0.13333	3.10000e+01	
0.52038   	-2.86060e+00		         0.13500	3.20000e+01	
0.52679   	-3.28242e+00		         0.13667	3.30000e+01	
0.53293   	-3.23109e+00		         0.13833	3.40000e+01	
0.53907   	-3.36076e+00		         0.14000	3.50000e+01	
0.54520   	-3.38315e+00		         0.14167	3.60000e+01	
0.55161   	-3.53185e+00		         0.14333	3.70000e+01	
0.55775   	-3.49033e+00		         0.14500	3.80000e+01	
0.56389   	-3.50827e+00		         0.14667	3.80000e+01	
0.57003   	-3.52848e+00		         0.14833	3.90000e+01	
0.57643   	-3.57678e+00		         0.15000	3.90000e+01	
0.58257   	-3.55368e+00		         0.15167	3.90000e+01	
0.58871   	-3.47439e+00		         0.15333	3.90000e+01	
0.59485   	-3.39235e+00		         0.15500	3.90000e+01	
0.60126   	-3.26574e+00		         0.15667	3.80000e+01	
0.60740   	-2.99591e+00		         0.15833	3.70000e+01	
0.61353   	-2.84828e+00		         0.16000	3.60000e+01	
0.61967   	-2.71547e+00		         0.16167	3.50000e+01	
0.62608   	-2.55277e+00		         0.16333	3.40000e+01	
0.63221   	-2.40374e+00		         0.16500	3.30000e+01	
0.63835   	-2.32968e+00		         0.16667	3.10000e+01	
0.64449   	-2.14458e+00		         0.16833	3.00000e+01	
0.65090   	-1.93867e+00		         0.17000	2.90000e+01	
0.65704   	-1.72431e+00		         0.17167	2.80000e+01	
0.66317   	-1.53843e+00		         0.17333	2.80000e+01	
0.66931   	-1.36835e+00		         0.17500	2.70000e+01	
0.67572   	-1.09956e+00		         0.17667	2.80000e+01	
0.68186   	-9.30864e-01		         0.17833	2.80000e+01	
0.68800   	-7.53879e-01		         0.18000	2.90000e+01	
0.69414   	-6.70701e-01		         0.18167	3.00000e+01	
0.70055   	-6.08052e-01		         0.18333	3.10000e+01	
0.70668   	-6.23061e-01		         0.18500	3.20000e+01	
0.71282   	-6.32248e-01		         0.18667	3.30000e+01	
0.71896   	-7.55543e-01		         0.18833	3.40000e+01	
0.72536   	-8.70725e-01		         0.19000	3.50000e+01	
0.73150   	-8.01034e-01		         0.19167	3.70000e+01	
0.73764   	-8.23251e-01		         0.19333	3.80000e+01	
0.74378   	-8.38660e-01		         0.19500	3.90000e+01	
0.75019   	-6.48656e-01		         0.19667	3.90000e+01	
0.75633   	-4.35497e-01		         0.19833	4.00000e+01	
0.76246   	-4.01945e-01		         0.20000	4.00000e+01	
0.76860   	-3.84505e-01		         0.20167	4.10000e+01	
0.77501   	-4.92384e-01		         0.20333	4.10000e+01	
0.78115   	-8.77492e-01		         0.20500	4.20000e+01	
0.78728   	-1.27063e+00		         0.20667	4.20000e+01	
0.79342   	-1.87247e+00		         0.20833	4.20000e+01	
0.79983   	-2.64475e+00		         0.21000	4.30000e+01	
0.80597   	-3.65071e+00		         0.21167	4.30000e+01	
0.81211   	-4.47662e+00		         0.21333	4.40000e+01	
0.81825   	-5.46144e+00		         0.21500	4.40000e+01	
0.82465   	-6.24171e+00		         0.21667	4.40000e+01	
0.83079   	-6.80476e+00		         0.21833	4.40000e+01	
0.83693   	-6.98045e+00		         0.22000	4.50000e+01	
0.84315   	-7.25051e+00		         0.22167	4.50000e+01	
0.84948   	-7.27771e+00		         0.22333	4.60000e+01	
0.85561   	-7.37592e+00		         0.22500	4.60000e+01	
0.86175   	-7.39704e+00		         0.22667	4.70000e+01	
0.86789   	-7.29349e+00		         0.22833	4.80000e+01	
0.87430   	-6.93746e+00		         0.23000	5.00000e+01	
0.88043   	-6.26242e+00		         0.23167	5.10000e+01	
0.88657   	-5.25082e+00		         0.23333	5.30000e+01	
0.89305   	-4.30458e+00		         0.23500	5.50000e+01	
0.89912   	-3.73277e+00		         0.23667	5.70000e+01	
0.90526   	-3.40635e+00		         0.23833	6.00000e+01	
0.91139   	-3.23734e+00		         0.24000	6.20000e+01	
0.91753   	-2.84646e+00		         0.24167	6.50000e+01	
0.92394   	-2.31760e+00		         0.24333	6.70000e+01	
0.93008   	-1.61156e+00		         0.24500	7.00000e+01	
0.93621   	-4.82086e-01		         0.24667	7.20000e+01	
0.94235   	5.64510e-01		         0.24833	7.30000e+01	
0.94876   	1.32440e+00		         0.25000	7.50000e+01	
0.95490   	7.50325e-01		         0.25167	7.60000e+01	
0.96104   	3.76954e-01		         0.25333	7.70000e+01	
0.96718   	-3.98368e-01		         0.25500	7.80000e+01	
0.97358   	-1.11502e+00		         0.25667	8.00000e+01	
0.97972   	-1.99049e+00		         0.25833	8.10000e+01	
0.98586   	-1.60814e+00		         0.26000	8.20000e+01	
0.99200   	-1.11895e+00		         0.26167	8.30000e+01	
0.99841   	-3.94378e-01		         0.26333	8.40000e+01	
1.00455   	3.70956e-01		         0.26500	8.50000e+01	
1.01068   	1.29107e+00		         0.26667	8.70000e+01	
1.01682   	2.33308e+00		         0.26833	8.90000e+01	
1.02323   	3.09766e+00		         0.27000	9.10000e+01	
1.02936   	3.72707e+00		         0.27167	9.40000e+01	
1.03550   	4.17611e+00		         0.27333	9.60000e+01	
1.04164   	4.38911e+00		         0.27500	9.90000e+01	
1.04805   	4.52413e+00		         0.27667	1.01000e+02	
1.05419   	4.58250e+00		         0.27833	1.03000e+02	
1.06033   	4.58151e+00		         0.28000	1.06000e+02	
1.06646   	4.61113e+00		         0.28167	1.08000e+02	
1.07287   	4.65515e+00		         0.28333	1.09000e+02	
1.07901   	4.59492e+00		         0.28500	1.10000e+02	
1.08515   	4.67114e+00		         0.28667	1.11000e+02	
1.09128   	4.77761e+00		         0.28833	1.11000e+02	
1.09770   	4.84598e+00		         0.29000	1.11000e+02	
1.10383   	4.85771e+00		         0.29167	1.10000e+02	
1.10997   	4.86505e+00		         0.29333	1.09000e+02	
1.11611   	4.95623e+00		         0.29500	1.07000e+02	
1.12252   	4.92819e+00		         0.29667	1.06000e+02	
1.12865   	4.90902e+00		         0.29833	1.04000e+02	
1.13479   	4.97691e+00		         0.30000	1.01000e+02	
1.14093   	5.03347e+00		         0.30167	9.90000e+01	
1.14734   	4.83377e+00		         0.30333	9.60000e+01	
1.15347   	4.64470e+00		         0.30500	9.30000e+01	
1.15961   	4.57615e+00		         0.30667	9.00000e+01	
1.16575   	4.44365e+00		         0.30833	8.70000e+01	
1.17216   	4.26909e+00		         0.31000	8.40000e+01	
1.17830   	4.25286e+00		         0.31167	8.10000e+01	
1.18444   	4.33699e+00		         0.31333	7.70000e+01	
1.19057   	4.25267e+00		         0.31500	7.30000e+01	
1.19698   	4.17527e+00		         0.31667	6.90000e+01	
1.20312   	4.06293e+00		         0.31833	6.50000e+01	
1.20926   	3.91413e+00		         0.32000	6.10000e+01	
1.21540   	3.67443e+00		         0.32167	5.60000e+01	
1.22180   	3.48492e+00		         0.32333	5.10000e+01	
1.22794   	3.24668e+00		         0.32500	4.60000e+01	
1.23408   	3.10211e+00		         0.32667	4.00000e+01	
1.24022   	2.99654e+00		         0.32833	3.50000e+01	
1.24663   	2.93446e+00		         0.33000	2.90000e+01	
1.25276   	2.72672e+00		         0.33167	2.30000e+01	
1.25890   	2.62637e+00		         0.33333	1.60000e+01	
1.26504   	2.44711e+00		         0.33500	1.00000e+01	
1.27145   	2.14898e+00		         0.33667	4.00000e+00	
1.27758   	1.86359e+00		         0.33833	-2.00000e+00	
1.28372   	1.58696e+00		         0.34000	-8.00000e+00	
1.28986   	1.20317e+00		         0.34167	-1.50000e+01	
1.29627   	7.02847e-01		         0.34333	-2.10000e+01	
1.30241   	1.17301e-01		         0.34500	-2.70000e+01	
1.30854   	-6.17106e-01		         0.34667	-3.30000e+01	
1.31468   	-1.01358e+00		         0.34833	-3.80000e+01	
1.32109   	-1.22242e+00		         0.35000	-4.40000e+01	
1.32723   	-1.14822e+00		         0.35167	-4.90000e+01	
1.33337   	-8.36746e-01		         0.35333	-5.40000e+01	
1.33950   	-4.65054e-01		         0.35500	-5.80000e+01	
1.34591   	-4.03221e-01		         0.35667	-6.20000e+01	
1.35205   	-3.32968e-01		         0.35833	-6.50000e+01	
1.35819   	-4.28662e-01		         0.36000	-6.80000e+01	
1.36433   	-4.35647e-01		         0.36167	-7.10000e+01	
1.37074   	-3.43420e-01		         0.36333	-7.30000e+01	
1.37687   	-2.88394e-01		         0.36500	-7.40000e+01	
1.38301   	-2.45435e-01		         0.36667	-7.50000e+01	
1.38915   	-1.36209e-01		         0.36833	-7.60000e+01	
1.39556   	-1.56726e-01		         0.37000	-7.60000e+01	
1.40170   	-2.01180e-01		         0.37167	-7.60000e+01	
1.40783   	-1.96758e-01		         0.37333	-7.60000e+01	
1.41397   	-5.95560e-01		         0.37500	-7.50000e+01	
1.42038   	-1.05819e+00		         0.37667	-7.40000e+01	
1.42652   	-1.79517e+00		         0.37833	-7.40000e+01	
1.43265   	-2.51750e+00		         0.38000	-7.30000e+01	
1.43879   	-3.14805e+00		         0.38167	-7.30000e+01	
1.44520   	-3.35544e+00		         0.38333	-7.20000e+01	
1.45134   	-3.65807e+00		         0.38500	-7.20000e+01	
1.45748   	-3.62708e+00		         0.38667	-7.10000e+01	
1.46362   	-3.54298e+00		         0.38833	-7.00000e+01	
1.47002   	-3.52463e+00		         0.39000	-7.00000e+01	
1.47616   	-3.73620e+00		         0.39167	-6.90000e+01	
1.48230   	-3.65149e+00		         0.39333	-6.90000e+01	
1.48844   	-3.74782e+00		         0.39500	-6.90000e+01	
1.49485   	-3.77777e+00		         0.39667	-6.80000e+01	
1.50098   	-3.75809e+00		         0.39833	-6.80000e+01	
1.50712   	-3.45714e+00		         0.40000	-6.80000e+01	
1.51326   	-3.36597e+00		         0.40167	-6.80000e+01	
1.51967   	-3.08597e+00		         0.40333	-6.80000e+01	
1.52580   	-2.91645e+00		         0.40500	-6.70000e+01	
1.53194   	-2.73977e+00		         0.40667	-6.70000e+01	
1.53808   	-2.67863e+00		         0.40833	-6.70000e+01	
1.54449   	-2.50112e+00		         0.41000	-6.70000e+01	
1.55063   	-2.38459e+00		         0.41167	-6.70000e+01	
1.55698   	-2.23960e+00		         0.41333	-6.70000e+01	
1.56290   	-2.09217e+00		         0.41500	-6.60000e+01	
1.56931   	-2.00519e+00		         0.41667	-6.60000e+01	
1.57545   	-1.82323e+00		         0.41833	-6.60000e+01	
1.58159   	-1.60019e+00		         0.42000	-6.50000e+01	
1.58772   	-1.41142e+00		         0.42167	-6.40000e+01	
1.59413   	-1.20610e+00		         0.42333	-6.30000e+01	
1.60027   	-9.46424e-01		         0.42500	-6.20000e+01	
1.60641   	-8.29844e-01		         0.42667	-6.10000e+01	
1.61255   	-7.49302e-01		         0.42833	-6.00000e+01	
1.61896   	-6.38904e-01		         0.43000	-5.80000e+01	
1.62509   	-5.40753e-01		         0.43167	-5.70000e+01	
1.63123   	-5.45660e-01		         0.43333	-5.50000e+01	
1.63737   	-4.94986e-01		         0.43500	-5.40000e+01	
1.64378   	-5.25614e-01		         0.43667	-5.30000e+01	
1.64991   	-5.63998e-01		         0.43833	-5.10000e+01	
1.65605   	-6.37477e-01		         0.44000	-4.90000e+01	
1.66219   	-6.04800e-01		         0.44167	-4.80000e+01	
1.66860   	-5.53975e-01		         0.44333	-4.60000e+01	
1.67473   	-4.94185e-01		         0.44500	-4.40000e+01	
1.68087   	-4.58984e-01		         0.44667	-4.30000e+01	
1.68701   	-5.72252e-01		         0.44833	-4.10000e+01	
1.69342   	-9.05727e-01		         0.45000	-4.00000e+01	
1.69956   	-1.43674e+00		         0.45167	-3.90000e+01	
1.70569   	-2.02932e+00		         0.45333	-3.80000e+01	
1.71183   	-2.66905e+00		         0.45500	-3.70000e+01	
1.71824   	-3.59115e+00		         0.45667	-3.70000e+01	
1.72438   	-4.40883e+00		         0.45833	-3.60000e+01	
1.73052   	-5.02914e+00		         0.46000	-3.50000e+01	
1.73665   	-5.90905e+00		         0.46167	-3.40000e+01	
1.74307   	-6.55328e+00		         0.46333	-3.30000e+01	
1.74920   	-6.85511e+00		         0.46500	-3.10000e+01	
1.75534   	-6.98038e+00		         0.46667	-3.00000e+01	
1.76148   	-7.18901e+00		         0.46833	-2.90000e+01	
1.76789   	-7.07374e+00		         0.47000	-2.70000e+01	
1.77402   	-7.08714e+00		         0.47167	-2.60000e+01	
1.78016   	-6.71459e+00		         0.47333	-2.40000e+01	
1.78630   	-6.44030e+00		         0.47500	-2.30000e+01	
1.79271   	-6.07054e+00		         0.47667	-2.10000e+01	
1.79885   	-5.41356e+00		         0.47833	-2.00000e+01	
1.80498   	-4.67393e+00		         0.48000	-1.90000e+01	
1.81112   	-4.08901e+00		         0.48167	-1.90000e+01	
1.81753   	-3.62544e+00		         0.48333	-1.90000e+01	
1.82367   	-3.33701e+00		         0.48500	-1.90000e+01	
1.82981   	-2.96319e+00		         0.48667	-1.90000e+01	
1.83595   	-2.56825e+00		         0.48833	-1.90000e+01	
1.84235   	-2.27469e+00		         0.49000	-1.90000e+01	
1.84849   	-1.52827e+00		         0.49167	-1.90000e+01	
1.85463   	-4.61375e-01		         0.49333	-1.90000e+01	
1.86077   	4.91930e-02		         0.49500	-1.90000e+01	
1.86717   	1.29535e-01		         0.49667	-1.80000e+01	
1.87331   	1.12746e-01		         0.49833	-1.80000e+01	
1.87945   	-3.52270e-01		         0.50000	-1.70000e+01	
1.88559   	-8.60335e-01		         0.50167	-1.70000e+01	
1.89200   	-1.07095e+00		         0.50333	-1.60000e+01	
1.89813   	-8.70949e-01		         0.50500	-1.50000e+01	
1.90427   	-4.88534e-01		         0.50667	-1.40000e+01	
1.91041   	2.39814e-01		         0.50833	-1.30000e+01	
1.91682   	8.93800e-01		         0.51000	-1.20000e+01	
1.92296   	1.71416e+00		         0.51167	-1.20000e+01	
1.92909   	2.57998e+00		         0.51333	-1.10000e+01	
1.93523   	3.38768e+00		         0.51500	-1.10000e+01	
1.94164   	3.90156e+00		         0.51667	-1.00000e+01	
1.94778   	4.30255e+00		         0.51833	-9.00000e+00	
1.95391   	4.52960e+00		         0.52000	-8.00000e+00	
1.96005   	4.47914e+00		         0.52167	-8.00000e+00	
1.96646   	4.41225e+00		         0.52333	-7.00000e+00	
1.97260   	4.47576e+00		         0.52500	-6.00000e+00	
1.97874   	4.61248e+00		         0.52667	-5.00000e+00	
1.98488   	4.61224e+00		         0.52833	-4.00000e+00	
1.99128   	4.80247e+00		         0.53000	-3.00000e+00	
1.99742   	4.92598e+00		         0.53167	-2.00000e+00	
2.00356   	4.92677e+00		         0.53333	-1.00000e+00	
2.00970   	5.00624e+00		         0.53500	-1.00000e+00	
2.01611   	5.06087e+00		         0.53667	0.00000e+00	
2.02224   	5.08314e+00		         0.53833	0.00000e+00	
2.02838   	5.04362e+00		         0.54000	0.00000e+00	
2.03452   	5.06207e+00		         0.54167	0.00000e+00	
2.04093   	4.91263e+00		         0.54333	-1.00000e+00	
2.04707   	4.85623e+00		         0.54500	-2.00000e+00	
2.05320   	4.79330e+00		         0.54667	-3.00000e+00	
2.05934   	4.76068e+00		         0.54833	-4.00000e+00	
2.06575   	4.70172e+00		         0.55000	-5.00000e+00	
2.07190   	4.68981e+00		         0.55167	-6.00000e+00	
2.07803   	4.69533e+00		         0.55333	-7.00000e+00	
2.08416   	4.64759e+00		         0.55500	-8.00000e+00	
2.09057   	4.45004e+00		         0.55667	-8.00000e+00	
2.09671   	4.35418e+00		         0.55833	-9.00000e+00	
2.10285   	4.15409e+00		         0.56000	-8.00000e+00	
2.10899   	3.92940e+00		         0.56167	-8.00000e+00	
2.11539   	3.67530e+00		         0.56333	-7.00000e+00	
2.12155   	3.57483e+00		         0.56500	-5.00000e+00	
2.12767   	3.48495e+00		         0.56667	-4.00000e+00	
2.13381   	3.40226e+00		         0.56833	-3.00000e+00	
2.14022   	3.25415e+00		         0.57000	-1.00000e+00	
2.14635   	3.16223e+00		         0.57167	0.00000e+00	
2.15249   	3.07052e+00		         0.57333	2.00000e+00	
2.15863   	2.90324e+00		         0.57500	3.00000e+00	
2.16504   	2.72290e+00		         0.57667	3.00000e+00	
2.17144   	2.54564e+00		         0.57833	4.00000e+00	
2.17731   	2.27155e+00		         0.58000	3.00000e+00	
2.18345   	2.08243e+00		         0.58167	3.00000e+00	
2.18986   	1.74036e+00		         0.58333	2.00000e+00	
2.19600   	1.42936e+00		         0.58500	1.00000e+00	
2.20213   	1.05134e+00		         0.58667	0.00000e+00	
2.20828   	6.77539e-01		         0.58833	-2.00000e+00	
2.21468   	7.52362e-02		         0.59000	-3.00000e+00	
2.22082   	-7.43339e-01		         0.59167	-4.00000e+00	
2.22696   	-8.33577e-01		         0.59333	-5.00000e+00	
2.23309   	-4.25524e-01		         0.59500	-6.00000e+00	
2.23950   	-8.45905e-03		         0.59667	-7.00000e+00	
2.24564   	3.68473e-01		         0.59833	-7.00000e+00	
2.25178   	1.16177e+00		         0.60000	-7.00000e+00	
2.25792   	1.27511e+00		         0.60167	-7.00000e+00	
2.26433   	8.89193e-01		         0.60333	-7.00000e+00	
2.27046   	6.55390e-01		         0.60500	-6.00000e+00	
2.27660   	4.93309e-01		         0.60667	-5.00000e+00	
2.28274   	4.18341e-01		         0.60833	-4.00000e+00	
2.28915   	3.28660e-01		         0.61000	-2.00000e+00	
2.29528   	3.65498e-01		         0.61167	-1.00000e+00	
2.30142   	1.04213e-01		         0.61333	0.00000e+00	
2.30756   	-9.17626e-02		         0.61500	1.00000e+00	
2.31397   	-3.82714e-01		         0.61667	1.00000e+00	
2.32011   	-5.46089e-01		         0.61833	1.00000e+00	
2.32625   	-9.93265e-01		         0.62000	1.00000e+00	
2.33238   	-1.53296e+00		         0.62167	1.00000e+00	
2.33879   	-1.74351e+00		         0.62333	0.00000e+00	
2.34493   	-2.02453e+00		         0.62500	0.00000e+00	
2.35107   	-2.48158e+00		         0.62667	-1.00000e+00	
2.35721   	-2.74222e+00		         0.62833	-2.00000e+00	
2.36361   	-2.71616e+00		         0.63000	-3.00000e+00	
2.36975   	-2.87257e+00		         0.63167	-4.00000e+00	
2.37589   	-3.07412e+00		         0.63333	-5.00000e+00	
2.38203   	-3.23600e+00		         0.63500	-5.00000e+00	
2.38843   	-3.31912e+00		         0.63667	-6.00000e+00	
2.39457   	-3.38254e+00		         0.63833	-6.00000e+00	
2.40071   	-3.49613e+00		         0.64000	-6.00000e+00	
2.40685   	-3.46857e+00		         0.64167	-6.00000e+00	
2.41326   	-3.45263e+00		         0.64333	-5.00000e+00	
2.41939   	-3.30875e+00		         0.64500	-5.00000e+00	
2.42553   	-3.21516e+00		         0.64667	-4.00000e+00	
2.43167   	-3.05874e+00		         0.64833	-3.00000e+00	
2.43808   	-2.93769e+00		         0.65000	-2.00000e+00	
2.44422   	-2.65434e+00		         0.65167	-2.00000e+00	
2.45035   	-2.50345e+00		         0.65333	-1.00000e+00	
2.45649   	-2.32964e+00		         0.65500	-1.00000e+00	
2.46290   	-2.16900e+00		         0.65667	0.00000e+00	
2.46904   	-2.00864e+00		         0.65833	0.00000e+00	
2.47518   	-1.91799e+00		         0.66000	0.00000e+00	
2.48131   	-1.81634e+00		         0.66167	0.00000e+00	
2.48772   	-1.59020e+00		         0.66333	0.00000e+00	
2.49386   	-1.44800e+00		         0.66500	0.00000e+00	
2.50000   	-1.30178e+00		         0.66667	0.00000e+00	
2.50614   	-1.12906e+00		         0.66833	0.00000e+00	
2.51255   	-9.48792e-01		         0.67000	-1.00000e+00	
2.51868   	-8.69628e-01		         0.67167	-1.00000e+00	
2.52482   	-7.24983e-01		         0.67333	-1.00000e+00	
2.53096   	-5.73840e-01		         0.67500	-2.00000e+00	
2.53737   	-5.06811e-01		         0.67667	-2.00000e+00	
2.54351   	-4.11321e-01		         0.67833	-3.00000e+00	
2.54964   	-3.20178e-01		         0.68000	-4.00000e+00	
2.55578   	-3.05611e-01		         0.68167	-4.00000e+00	
2.56219   	-3.18783e-01		         0.68333	-5.00000e+00	
2.56832   	-2.99056e-01		         0.68500	-6.00000e+00	
2.57446   	-2.90586e-01		         0.68667	-6.00000e+00	
2.58060   	-2.62958e-01		         0.68833	-7.00000e+00	
2.58701   	-2.38697e-01		         0.69000	-6.00000e+00	
2.59315   	-2.55520e-01		         0.69167	-6.00000e+00	
2.59928   	-4.24901e-01		         0.69333	-6.00000e+00	
2.60542   	-7.93717e-01		         0.69500	-5.00000e+00	
2.61183   	-1.21115e+00		         0.69667	-4.00000e+00	
2.61797   	-1.84734e+00		         0.69833	-3.00000e+00	
2.62411   	-2.60307e+00		         0.70000	-2.00000e+00	
2.63025   	-3.31505e+00		         0.70167	-2.00000e+00	
2.63665   	-4.06472e+00		         0.70333	-1.00000e+00	
2.64279   	-5.13716e+00		         0.70500	0.00000e+00	
2.64893   	-5.87031e+00		         0.70667	0.00000e+00	
2.65507   	-6.69096e+00		         0.70833	0.00000e+00	
2.66148   	-7.36527e+00		         0.71000	0.00000e+00	
2.66761   	-7.78279e+00		         0.71167	-1.00000e+00	
2.67376   	-7.68214e+00		         0.71333	-1.00000e+00	
2.67989   	-7.59499e+00		         0.71500	-2.00000e+00	
2.68630   	-7.20747e+00		         0.71667	-3.00000e+00	
2.69244   	-6.58719e+00		         0.71833	-3.00000e+00	
2.69857   	-5.96784e+00		         0.72000	-4.00000e+00	
2.70471   	-5.23182e+00		         0.72167	-4.00000e+00	
2.71112   	-4.40955e+00		         0.72333	-5.00000e+00	
2.71726   	-3.63318e+00		         0.72500	-5.00000e+00	
2.72340   	-3.10269e+00		         0.72667	-5.00000e+00	
2.72953   	-2.44386e+00		         0.72833	-4.00000e+00	
2.73594   	-2.07521e+00		         0.73000	-4.00000e+00	
2.74208   	-1.67276e+00		         0.73167	-3.00000e+00	
2.74822   	-1.11631e+00		         0.73333	-1.00000e+00	
2.75435   	-3.11219e-01		         0.73500	0.00000e+00	
2.76076   	3.72355e-01		         0.73667	2.00000e+00	
2.76690   	1.16425e+00		         0.73833	4.00000e+00	
2.77304   	1.59724e+00		         0.74000	6.00000e+00	
2.77918   	2.03381e+00		         0.74167	8.00000e+00	
			         0.74333	1.00000e+01	
			         0.74500	1.10000e+01	
			         0.74667	1.30000e+01	
			         0.74833	1.50000e+01	
			         0.75000	1.70000e+01	
			         0.75167	1.80000e+01	
			         0.75333	1.90000e+01	
			         0.75500	2.00000e+01	
			         0.75667	2.10000e+01	
			         0.75833	2.10000e+01	
			         0.76000	2.10000e+01	
			         0.76167	2.20000e+01	
			         0.76333	2.20000e+01	
			         0.76500	2.10000e+01	
			         0.76667	2.10000e+01	
			         0.76833	2.00000e+01	
			         0.77000	1.90000e+01	
			         0.77167	1.80000e+01	
			         0.77333	1.70000e+01	
			         0.77500	1.70000e+01	
			         0.77667	1.60000e+01	
			         0.77833	1.50000e+01	
			         0.78000	1.50000e+01	
			         0.78167	1.40000e+01	
			         0.78333	1.40000e+01	
			         0.78500	1.30000e+01	
			         0.78667	1.30000e+01	
			         0.78833	1.30000e+01	
			         0.79000	1.30000e+01	
			         0.79167	1.40000e+01	
			         0.79333	1.40000e+01	
			         0.79500	1.40000e+01	
			         0.79667	1.40000e+01	
			         0.79833	1.40000e+01	
			         0.80000	1.40000e+01	
			         0.80167	1.40000e+01	
			         0.80333	1.40000e+01	
			         0.80500	1.40000e+01	
			         0.80667	1.40000e+01	
			         0.80833	1.30000e+01	
			         0.81000	1.30000e+01	
			         0.81167	1.20000e+01	
			         0.81333	1.00000e+01	
			         0.81500	9.00000e+00	
			         0.81667	7.00000e+00	
			         0.81833	5.00000e+00	
			         0.82000	3.00000e+00	
			         0.82167	1.00000e+00	
			         0.82333	-1.00000e+00	
			         0.82500	-4.00000e+00	
			         0.82667	-6.00000e+00	
			         0.82833	-9.00000e+00	
			         0.83000	-1.10000e+01	
			         0.83167	-1.30000e+01	
			         0.83333	-1.50000e+01	
			         0.83500	-1.70000e+01	
			         0.83667	-1.80000e+01	
			         0.83833	-2.00000e+01	
			         0.84000	-2.10000e+01	
			         0.84167	-2.10000e+01	
			         0.84333	-2.20000e+01	
			         0.84500	-2.30000e+01	
			         0.84667	-2.30000e+01	
			         0.84833	-2.40000e+01	
			         0.85000	-2.50000e+01	
			         0.85167	-2.50000e+01	
			         0.85333	-2.60000e+01	
			         0.85500	-2.60000e+01	
			         0.85667	-2.70000e+01	
			         0.85833	-2.70000e+01	
			         0.86000	-2.70000e+01	
			         0.86167	-2.70000e+01	
			         0.86333	-2.70000e+01	
			         0.86500	-2.70000e+01	
			         0.86667	-2.70000e+01	
			         0.86833	-2.60000e+01	
			         0.87000	-2.60000e+01	
			         0.87167	-2.50000e+01	
			         0.87333	-2.40000e+01	
			         0.87500	-2.40000e+01	
			         0.87667	-2.30000e+01	
			         0.87833	-2.30000e+01	
			         0.88000	-2.30000e+01	
			         0.88167	-2.30000e+01	
			         0.88333	-2.20000e+01	
			         0.88500	-2.20000e+01	
			         0.88667	-2.30000e+01	
			         0.88833	-2.30000e+01	
			         0.89000	-2.40000e+01	
			         0.89167	-2.50000e+01	
			         0.89333	-2.70000e+01	
			         0.89500	-2.90000e+01	
			         0.89667	-3.10000e+01	
			         0.89833	-3.20000e+01	
			         0.90000	-3.40000e+01	
			         0.90167	-3.60000e+01	
			         0.90333	-3.70000e+01	
			         0.90500	-3.70000e+01	
			         0.90667	-3.70000e+01	
			         0.90833	-3.40000e+01	
			         0.91000	-2.90000e+01	
			         0.91167	-2.20000e+01	
			         0.91333	-1.10000e+01	
			         0.91500	2.00000e+00	
			         0.91667	1.80000e+01	
			         0.91833	3.70000e+01	
			         0.92000	5.80000e+01	
			         0.92167	8.20000e+01	
			         0.92333	1.08000e+02	
			         0.92500	1.34000e+02	
			         0.92667	1.60000e+02	
			         0.92833	1.86000e+02	
			         0.93000	2.10000e+02	
			         0.93167	2.31000e+02	
			         0.93333	2.48000e+02	
			         0.93500	2.59000e+02	
			         0.93667	2.65000e+02	
			         0.93833	2.64000e+02	
			         0.94000	2.56000e+02	
			         0.94167	2.42000e+02	
			         0.94333	2.22000e+02	
			         0.94500	1.96000e+02	
			         0.94667	1.67000e+02	
			         0.94833	1.34000e+02	
			         0.95000	9.90000e+01	
			         0.95167	6.30000e+01	
			         0.95333	2.70000e+01	
			         0.95500	-6.00000e+00	
			         0.95667	-3.70000e+01	
			         0.95833	-6.50000e+01	
			         0.96000	-8.90000e+01	
			         0.96167	-1.09000e+02	
			         0.96333	-1.25000e+02	
			         0.96500	-1.38000e+02	
			         0.96667	-1.47000e+02	
			         0.96833	-1.53000e+02	
			         0.97000	-1.57000e+02	
			         0.97167	-1.60000e+02	
			         0.97333	-1.61000e+02	
			         0.97500	-1.61000e+02	
			         0.97667	-1.59000e+02	
			         0.97833	-1.58000e+02	
			         0.98000	-1.56000e+02	
			         0.98167	-1.53000e+02	
			         0.98333	-1.51000e+02	
			         0.98500	-1.48000e+02	
			         0.98667	-1.46000e+02	
			         0.98833	-1.43000e+02	
			         0.99000	-1.41000e+02	
			         0.99167	-1.39000e+02	
			         0.99333	-1.37000e+02	
			         0.99500	-1.34000e+02	
			         0.99667	-1.32000e+02	
			         0.99833	-1.30000e+02	
			         1.00000	-1.27000e+02	
			         1.00167	-1.24000e+02	
			         1.00333	-1.20000e+02	
			         1.00500	-1.16000e+02	
			         1.00667	-1.12000e+02	
			         1.00833	-1.07000e+02	
			         1.01000	-1.01000e+02	
			         1.01167	-9.40000e+01	
			         1.01333	-8.70000e+01	
			         1.01500	-8.00000e+01	
			         1.01667	-7.20000e+01	
			         1.01833	-6.30000e+01	
			         1.02000	-5.50000e+01	
			         1.02167	-4.60000e+01	
			         1.02333	-3.70000e+01	
			         1.02500	-2.90000e+01	
			         1.02667	-2.00000e+01	
			         1.02833	-1.20000e+01	
			         1.03000	-5.00000e+00	
			         1.03167	2.00000e+00	
			         1.03333	8.00000e+00	
			         1.03500	1.40000e+01	
			         1.03667	1.80000e+01	
			         1.03833	2.20000e+01	
			         1.04000	2.50000e+01	
			         1.04167	2.70000e+01	
			         1.04333	2.90000e+01	
			         1.04500	3.10000e+01	
			         1.04667	3.10000e+01	
			         1.04833	3.20000e+01	
			         1.05000	3.30000e+01	
			         1.05167	3.30000e+01	
			         1.05333	3.30000e+01	
			         1.05500	3.40000e+01	
			         1.05667	3.50000e+01	
			         1.05833	3.60000e+01	
			         1.06000	3.60000e+01	
			         1.06167	3.70000e+01	
			         1.06333	3.80000e+01	
			         1.06500	3.90000e+01	
			         1.06667	3.90000e+01	
			         1.06833	4.00000e+01	
			         1.07000	4.10000e+01	
			         1.07167	4.20000e+01	
			         1.07333	4.30000e+01	
			         1.07500	4.30000e+01	
			         1.07667	4.40000e+01	
			         1.07833	4.40000e+01	
			         1.08000	4.40000e+01	
			         1.08167	4.40000e+01	
			         1.08333	4.40000e+01	
			         1.08500	4.40000e+01	
			         1.08667	4.30000e+01	
			         1.08833	4.20000e+01	
			         1.09000	4.10000e+01	
			         1.09167	4.00000e+01	
			         1.09333	4.00000e+01	
			         1.09500	3.90000e+01	
			         1.09667	3.80000e+01	
			         1.09833	3.80000e+01	
			         1.10000	3.80000e+01	
			         1.10167	3.90000e+01	
			         1.10333	3.90000e+01	
			         1.10500	4.00000e+01	
			         1.10667	4.10000e+01	
			         1.10833	4.30000e+01	
			         1.11000	4.40000e+01	
			         1.11167	4.60000e+01	
			         1.11333	4.70000e+01	
			         1.11500	4.80000e+01	
			         1.11667	5.00000e+01	
			         1.11833	5.10000e+01	
			         1.12000	5.10000e+01	
			         1.12167	5.20000e+01	
			         1.12333	5.20000e+01	
			         1.12500	5.30000e+01	
			         1.12667	5.30000e+01	
			         1.12833	5.30000e+01	
			         1.13000	5.40000e+01	
			         1.13167	5.40000e+01	
			         1.13333	5.50000e+01	
			         1.13500	5.50000e+01	
			         1.13667	5.60000e+01	
			         1.13833	5.70000e+01	
			         1.14000	5.90000e+01	
			         1.14167	6.00000e+01	
			         1.14333	6.10000e+01	
			         1.14500	6.30000e+01	
			         1.14667	6.40000e+01	
			         1.14833	6.60000e+01	
			         1.15000	6.70000e+01	
			         1.15167	6.80000e+01	
			         1.15333	6.90000e+01	
			         1.15500	7.00000e+01	
			         1.15667	7.10000e+01	
			         1.15833	7.30000e+01	
			         1.16000	7.40000e+01	
			         1.16167	7.60000e+01	
			         1.16333	7.70000e+01	
			         1.16500	7.90000e+01	
			         1.16667	8.00000e+01	
			         1.16833	8.20000e+01	
			         1.17000	8.40000e+01	
			         1.17167	8.50000e+01	
			         1.17333	8.70000e+01	
			         1.17500	8.90000e+01	
			         1.17667	9.10000e+01	
			         1.17833	9.30000e+01	
			         1.18000	9.40000e+01	
			         1.18167	9.60000e+01	
			         1.18333	9.80000e+01	
			         1.18500	9.90000e+01	
			         1.18667	1.01000e+02	
			         1.18833	1.03000e+02	
			         1.19000	1.06000e+02	
			         1.19167	1.08000e+02	
			         1.19333	1.10000e+02	
			         1.19500	1.13000e+02	
			         1.19667	1.15000e+02	
			         1.19833	1.16000e+02	
			         1.20000	1.18000e+02	
			         1.20167	1.19000e+02	
			         1.20333	1.20000e+02	
			         1.20500	1.20000e+02	
			         1.20667	1.20000e+02	
			         1.20833	1.19000e+02	
			         1.21000	1.18000e+02	
			         1.21167	1.17000e+02	
			         1.21333	1.15000e+02	
			         1.21500	1.12000e+02	
			         1.21667	1.10000e+02	
			         1.21833	1.06000e+02	
			         1.22000	1.03000e+02	
			         1.22167	9.90000e+01	
			         1.22333	9.50000e+01	
			         1.22500	9.10000e+01	
			         1.22667	8.70000e+01	
			         1.22833	8.20000e+01	
			         1.23000	7.80000e+01	
			         1.23167	7.30000e+01	
			         1.23333	6.80000e+01	
			         1.23500	6.30000e+01	
			         1.23667	5.70000e+01	
			         1.23833	5.20000e+01	
			         1.24000	4.60000e+01	
			         1.24167	4.10000e+01	
			         1.24333	3.50000e+01	
			         1.24500	2.90000e+01	
			         1.24667	2.20000e+01	
			         1.24833	1.60000e+01	
			         1.25000	9.00000e+00	
			         1.25167	2.00000e+00	
			         1.25333	-4.00000e+00	
			         1.25500	-1.10000e+01	
			         1.25667	-1.80000e+01	
			         1.25833	-2.40000e+01	
			         1.26000	-3.10000e+01	
			         1.26167	-3.70000e+01	
			         1.26333	-4.30000e+01	
			         1.26500	-4.80000e+01	
			         1.26667	-5.30000e+01	
			         1.26833	-5.60000e+01	
			         1.27000	-6.00000e+01	
			         1.27167	-6.20000e+01	
			         1.27333	-6.50000e+01	
			         1.27500	-6.70000e+01	
			         1.27667	-6.80000e+01	
			         1.27833	-6.90000e+01	
			         1.28000	-6.90000e+01	
			         1.28167	-6.90000e+01	
			         1.28333	-6.90000e+01	
			         1.28500	-6.90000e+01	
			         1.28667	-6.90000e+01	
			         1.28833	-6.90000e+01	
			         1.29000	-7.00000e+01	
			         1.29167	-7.00000e+01	
			         1.29333	-7.00000e+01	
			         1.29500	-7.00000e+01	
			         1.29667	-7.10000e+01	
			         1.29833	-7.10000e+01	
			         1.30000	-7.20000e+01	
			         1.30167	-7.20000e+01	
			         1.30333	-7.20000e+01	
			         1.30500	-7.30000e+01	
			         1.30667	-7.30000e+01	
			         1.30833	-7.30000e+01	
			         1.31000	-7.20000e+01	
			         1.31167	-7.20000e+01	
			         1.31333	-7.10000e+01	
			         1.31500	-7.00000e+01	
			         1.31667	-6.90000e+01	
			         1.31833	-6.70000e+01	
			         1.32000	-6.60000e+01	
			         1.32167	-6.40000e+01	
			         1.32333	-6.30000e+01	
			         1.32500	-6.10000e+01	
			         1.32667	-6.00000e+01	
			         1.32833	-5.90000e+01	
			         1.33000	-5.80000e+01	
			         1.33167	-5.80000e+01	
			         1.33333	-5.70000e+01	
			         1.33500	-5.70000e+01	
			         1.33667	-5.70000e+01	
			         1.33833	-5.70000e+01	
			         1.34000	-5.70000e+01	
			         1.34167	-5.70000e+01	
			         1.34333	-5.70000e+01	
			         1.34500	-5.70000e+01	
			         1.34667	-5.70000e+01	
			         1.34833	-5.60000e+01	
			         1.35000	-5.50000e+01	
			         1.35167	-5.50000e+01	
			         1.35333	-5.40000e+01	
			         1.35500	-5.30000e+01	
			         1.35667	-5.20000e+01	
			         1.35833	-5.10000e+01	
			         1.36000	-5.00000e+01	
			         1.36167	-4.80000e+01	
			         1.36333	-4.70000e+01	
			         1.36500	-4.50000e+01	
			         1.36667	-4.40000e+01	
			         1.36833	-4.20000e+01	
			         1.37000	-4.00000e+01	
			         1.37167	-3.90000e+01	
			         1.37333	-3.70000e+01	
			         1.37500	-3.60000e+01	
			         1.37667	-3.40000e+01	
			         1.37833	-3.20000e+01	
			         1.38000	-3.10000e+01	
			         1.38167	-2.90000e+01	
			         1.38333	-2.80000e+01	
			         1.38500	-2.70000e+01	
			         1.38667	-2.60000e+01	
			         1.38833	-2.60000e+01	
			         1.39000	-2.50000e+01	
			         1.39167	-2.40000e+01	
			         1.39333	-2.40000e+01	
			         1.39500	-2.40000e+01	
			         1.39667	-2.30000e+01	
			         1.39833	-2.30000e+01	
			         1.40000	-2.30000e+01	
			         1.40167	-2.20000e+01	
			         1.40333	-2.20000e+01	
			         1.40500	-2.20000e+01	
			         1.40667	-2.10000e+01	
			         1.40833	-2.00000e+01	
			         1.41000	-2.00000e+01	
			         1.41167	-1.90000e+01	
			         1.41333	-1.80000e+01	
			         1.41500	-1.80000e+01	
			         1.41667	-1.70000e+01	
			         1.41833	-1.60000e+01	
			         1.42000	-1.60000e+01	
			         1.42167	-1.50000e+01	
			         1.42333	-1.50000e+01	
			         1.42500	-1.50000e+01	
			         1.42667	-1.50000e+01	
			         1.42833	-1.50000e+01	
			         1.43000	-1.50000e+01	
			         1.43167	-1.50000e+01	
			         1.43333	-1.50000e+01	
			         1.43500	-1.50000e+01	
			         1.43667	-1.50000e+01	
			         1.43833	-1.50000e+01	
			         1.44000	-1.50000e+01	
			         1.44167	-1.50000e+01	
			         1.44333	-1.40000e+01	
			         1.44500	-1.40000e+01	
			         1.44667	-1.40000e+01	
			         1.44833	-1.40000e+01	
			         1.45000	-1.40000e+01	
			         1.45167	-1.40000e+01	
			         1.45333	-1.40000e+01	
			         1.45500	-1.40000e+01	
			         1.45667	-1.50000e+01	
			         1.45833	-1.50000e+01	
			         1.46000	-1.60000e+01	
			         1.46167	-1.70000e+01	
			         1.46333	-1.70000e+01	
			         1.46500	-1.80000e+01	
			         1.46667	-1.80000e+01	
			         1.46833	-1.80000e+01	
			         1.47000	-1.80000e+01	
			         1.47167	-1.70000e+01	
			         1.47333	-1.70000e+01	
			         1.47500	-1.60000e+01	
			         1.47667	-1.50000e+01	
			         1.47833	-1.40000e+01	
			         1.48000	-1.30000e+01	
			         1.48167	-1.20000e+01	
			         1.48333	-1.10000e+01	
			         1.48500	-1.00000e+01	
			         1.48667	-1.00000e+01	
			         1.48833	-9.00000e+00	
			         1.49000	-9.00000e+00	
			         1.49167	-9.00000e+00	
			         1.49333	-9.00000e+00	
			         1.49500	-1.00000e+01	
			         1.49667	-1.00000e+01	
			         1.49833	-1.10000e+01	
			         1.50000	-1.20000e+01	
			         1.50167	-1.30000e+01	
			         1.50333	-1.40000e+01	
			         1.50500	-1.40000e+01	
			         1.50667	-1.50000e+01	
			         1.50833	-1.60000e+01	
			         1.51000	-1.60000e+01	
			         1.51167	-1.60000e+01	
			         1.51333	-1.60000e+01	
			         1.51500	-1.60000e+01	
			         1.51667	-1.60000e+01	
			         1.51833	-1.50000e+01	
			         1.52000	-1.40000e+01	
			         1.52167	-1.30000e+01	
			         1.52333	-1.30000e+01	
			         1.52500	-1.20000e+01	
			         1.52667	-1.10000e+01	
			         1.52833	-1.00000e+01	
			         1.53000	-1.00000e+01	
			         1.53167	-1.00000e+01	
			         1.53333	-1.00000e+01	
			         1.53500	-1.00000e+01	
			         1.53667	-1.00000e+01	
			         1.53833	-1.10000e+01	
			         1.54000	-1.10000e+01	
			         1.54167	-1.10000e+01	
			         1.54333	-1.10000e+01	
			         1.54500	-1.20000e+01	
			         1.54667	-1.20000e+01	
			         1.54833	-1.10000e+01	
			         1.55000	-1.10000e+01	
			         1.55167	-1.10000e+01	
			         1.55333	-1.00000e+01	
			         1.55500	-1.00000e+01	
			         1.55667	-9.00000e+00	
			         1.55833	-9.00000e+00	
			         1.56000	-8.00000e+00	
			         1.56167	-8.00000e+00	
			         1.56333	-8.00000e+00	
			         1.56500	-8.00000e+00	
			         1.56667	-7.00000e+00	
			         1.56833	-7.00000e+00	
			         1.57000	-7.00000e+00	
			         1.57167	-6.00000e+00	
			         1.57333	-6.00000e+00	
			         1.57500	-6.00000e+00	
			         1.57667	-5.00000e+00	
			         1.57833	-4.00000e+00	
			         1.58000	-4.00000e+00	
			         1.58167	-3.00000e+00	
			         1.58333	-2.00000e+00	
			         1.58500	-2.00000e+00	
			         1.58667	-2.00000e+00	
			         1.58833	-2.00000e+00	
			         1.59000	-3.00000e+00	
			         1.59167	-4.00000e+00	
			         1.59333	-6.00000e+00	
			         1.59500	-7.00000e+00	
			         1.59667	-9.00000e+00	
			         1.59833	-1.00000e+01	
			         1.60000	-1.10000e+01	
			         1.60167	-1.20000e+01	
			         1.60333	-1.20000e+01	
			         1.60500	-1.20000e+01	
			         1.60667	-1.20000e+01	
			         1.60833	-1.10000e+01	
			         1.61000	-1.00000e+01	
			         1.61167	-9.00000e+00	
			         1.61333	-8.00000e+00	
			         1.61500	-6.00000e+00	
			         1.61667	-5.00000e+00	
			         1.61833	-4.00000e+00	
			         1.62000	-3.00000e+00	
			         1.62167	-3.00000e+00	
			         1.62333	-3.00000e+00	
			         1.62500	-3.00000e+00	
			         1.62667	-3.00000e+00	
			         1.62833	-3.00000e+00	
			         1.63000	-3.00000e+00	
			         1.63167	-4.00000e+00	
			         1.63333	-3.00000e+00	
			         1.63500	-3.00000e+00	
			         1.63667	-3.00000e+00	
			         1.63833	-3.00000e+00	
			         1.64000	-3.00000e+00	
			         1.64167	-3.00000e+00	
			         1.64333	-2.00000e+00	
			         1.64500	-2.00000e+00	
			         1.64667	-1.00000e+00	
			         1.64833	0.00000e+00	
			         1.65000	1.00000e+00	
			         1.65167	2.00000e+00	
			         1.65333	3.00000e+00	
			         1.65500	4.00000e+00	
			         1.65667	6.00000e+00	
			         1.65833	8.00000e+00	
			         1.66000	9.00000e+00	
			         1.66167	1.10000e+01	
			         1.66333	1.30000e+01	
			         1.66500	1.50000e+01	
			         1.66667	1.70000e+01	
			         1.66833	1.90000e+01	
			         1.67000	2.00000e+01	
			         1.67167	2.20000e+01	
			         1.67333	2.30000e+01	
			         1.67500	2.40000e+01	
			         1.67667	2.40000e+01	
			         1.67833	2.50000e+01	
			         1.68000	2.50000e+01	
			         1.68167	2.50000e+01	
			         1.68333	2.50000e+01	
			         1.68500	2.40000e+01	
			         1.68667	2.30000e+01	
			         1.68833	2.20000e+01	
			         1.69000	2.00000e+01	
			         1.69167	1.80000e+01	
			         1.69333	1.60000e+01	
			         1.69500	1.40000e+01	
			         1.69667	1.30000e+01	
			         1.69833	1.20000e+01	
			         1.70000	1.10000e+01	
			         1.70167	1.00000e+01	
			         1.70333	1.00000e+01	
			         1.70500	1.10000e+01	
			         1.70667	1.20000e+01	
			         1.70833	1.30000e+01	
			         1.71000	1.50000e+01	
			         1.71167	1.70000e+01	
			         1.71333	1.90000e+01	
			         1.71500	2.10000e+01	
			         1.71667	2.20000e+01	
			         1.71833	2.30000e+01	
			         1.72000	2.30000e+01	
			         1.72167	2.20000e+01	
			         1.72333	2.20000e+01	
			         1.72500	2.00000e+01	
			         1.72667	1.80000e+01	
			         1.72833	1.60000e+01	
			         1.73000	1.40000e+01	
			         1.73167	1.10000e+01	
			         1.73333	8.00000e+00	
			         1.73500	5.00000e+00	
			         1.73667	2.00000e+00	
			         1.73833	-1.00000e+00	
			         1.74000	-4.00000e+00	
			         1.74167	-7.00000e+00	
			         1.74333	-9.00000e+00	
			         1.74500	-1.10000e+01	
			         1.74667	-1.30000e+01	
			         1.74833	-1.50000e+01	
			         1.75000	-1.60000e+01	
			         1.75167	-1.70000e+01	
			         1.75333	-1.90000e+01	
			         1.75500	-1.90000e+01	
			         1.75667	-2.00000e+01	
			         1.75833	-2.10000e+01	
			         1.76000	-2.20000e+01	
			         1.76167	-2.20000e+01	
			         1.76333	-2.30000e+01	
			         1.76500	-2.40000e+01	
			         1.76667	-2.40000e+01	
			         1.76833	-2.50000e+01	
			         1.77000	-2.60000e+01	
			         1.77167	-2.60000e+01	
			         1.77333	-2.60000e+01	
			         1.77500	-2.60000e+01	
			         1.77667	-2.60000e+01	
			         1.77833	-2.60000e+01	
			         1.78000	-2.60000e+01	
			         1.78167	-2.60000e+01	
			         1.78333	-2.60000e+01	
			         1.78500	-2.60000e+01	
			         1.78667	-2.50000e+01	
			         1.78833	-2.50000e+01	
			         1.79000	-2.50000e+01	
			         1.79167	-2.40000e+01	
			         1.79333	-2.40000e+01	
			         1.79500	-2.30000e+01	
			         1.79667	-2.20000e+01	
			         1.79833	-2.20000e+01	
			         1.80000	-2.10000e+01	
			         1.80167	-2.10000e+01	
			         1.80333	-2.10000e+01	
			         1.80500	-2.10000e+01	
			         1.80667	-2.20000e+01	
			         1.80833	-2.30000e+01	
			         1.81000	-2.50000e+01	
			         1.81167	-2.70000e+01	
			         1.81333	-2.90000e+01	
			         1.81500	-3.00000e+01	
			         1.81667	-3.10000e+01	
			         1.81833	-3.10000e+01	
			         1.82000	-2.90000e+01	
			         1.82167	-2.60000e+01	
			         1.82333	-1.90000e+01	
			         1.82500	-1.00000e+01	
			         1.82667	2.00000e+00	
			         1.82833	1.70000e+01	
			         1.83000	3.60000e+01	
			         1.83167	5.70000e+01	
			         1.83333	8.10000e+01	
			         1.83500	1.07000e+02	
			         1.83667	1.34000e+02	
			         1.83833	1.61000e+02	
			         1.84000	1.88000e+02	
			         1.84167	2.13000e+02	
			         1.84333	2.35000e+02	
			         1.84500	2.53000e+02	
			         1.84667	2.67000e+02	
			         1.84833	2.74000e+02	
			         1.85000	2.76000e+02	
			         1.85167	2.70000e+02	
			         1.85333	2.59000e+02	
			         1.85500	2.40000e+02	
			         1.85667	2.17000e+02	
			         1.85833	1.88000e+02	
			         1.86000	1.56000e+02	
			         1.86167	1.22000e+02	
			         1.86333	8.60000e+01	
			         1.86500	5.00000e+01	
			         1.86667	1.50000e+01	
			         1.86833	-1.70000e+01	
			         1.87000	-4.70000e+01	
			         1.87167	-7.20000e+01	
			         1.87333	-9.40000e+01	
			         1.87500	-1.12000e+02	
			         1.87667	-1.26000e+02	
			         1.87833	-1.36000e+02	
			         1.88000	-1.44000e+02	
			         1.88167	-1.49000e+02	
			         1.88333	-1.52000e+02	
			         1.88500	-1.54000e+02	
			         1.88667	-1.55000e+02	
			         1.88833	-1.55000e+02	
			         1.89000	-1.54000e+02	
			         1.89167	-1.53000e+02	
			         1.89333	-1.52000e+02	
			         1.89500	-1.50000e+02	
			         1.89667	-1.49000e+02	
			         1.89833	-1.47000e+02	
			         1.90000	-1.45000e+02	
			         1.90167	-1.42000e+02	
			         1.90333	-1.40000e+02	
			         1.90500	-1.37000e+02	
			         1.90667	-1.34000e+02	
			         1.90833	-1.31000e+02	
			         1.91000	-1.27000e+02	
			         1.91167	-1.24000e+02	
			         1.91333	-1.20000e+02	
			         1.91500	-1.16000e+02	
			         1.91667	-1.12000e+02	
			         1.91833	-1.07000e+02	
			         1.92000	-1.02000e+02	
			         1.92167	-9.70000e+01	
			         1.92333	-9.10000e+01	
			         1.92500	-8.40000e+01	
			         1.92667	-7.70000e+01	
			         1.92833	-7.00000e+01	
			         1.93000	-6.20000e+01	
			         1.93167	-5.40000e+01	
			         1.93333	-4.60000e+01	
			         1.93500	-3.70000e+01	
			         1.93667	-2.90000e+01	
			         1.93833	-2.10000e+01	
			         1.94000	-1.40000e+01	
			         1.94167	-7.00000e+00	
			         1.94333	0.00000e+00	
			         1.94500	6.00000e+00	
			         1.94667	1.10000e+01	
			         1.94833	1.50000e+01	
			         1.95000	1.90000e+01	
			         1.95167	2.30000e+01	
			         1.95333	2.50000e+01	
			         1.95500	2.80000e+01	
			         1.95667	2.90000e+01	
			         1.95833	3.10000e+01	
			         1.96000	3.20000e+01	
			         1.96167	3.20000e+01	
			         1.96333	3.30000e+01	
			         1.96500	3.30000e+01	
			         1.96667	3.30000e+01	
			         1.96833	3.30000e+01	
			         1.97000	3.30000e+01	
			         1.97167	3.20000e+01	
			         1.97333	3.20000e+01	
			         1.97500	3.20000e+01	
			         1.97667	3.20000e+01	
			         1.97833	3.20000e+01	
			         1.98000	3.20000e+01	
			         1.98167	3.20000e+01	
			         1.98333	3.20000e+01	
			         1.98500	3.30000e+01	
			         1.98667	3.30000e+01	
			         1.98833	3.30000e+01	
			         1.99000	3.30000e+01	
			         1.99167	3.40000e+01	
			         1.99333	3.40000e+01	
			         1.99500	3.50000e+01	
			         1.99667	3.50000e+01	
			         1.99833	3.60000e+01	
			         2.00000	3.70000e+01	
			         2.00167	3.70000e+01	
			         2.00333	3.80000e+01	
			         2.00500	3.80000e+01	
			         2.00667	3.90000e+01	
			         2.00833	3.90000e+01	
			         2.01000	3.90000e+01	
			         2.01167	3.90000e+01	
			         2.01333	3.80000e+01	
			         2.01500	3.80000e+01	
			         2.01667	3.80000e+01	
			         2.01833	3.80000e+01	
			         2.02000	3.80000e+01	
			         2.02167	3.80000e+01	
			         2.02333	3.80000e+01	
			         2.02500	3.80000e+01	
			         2.02667	3.80000e+01	
			         2.02833	3.80000e+01	
			         2.03000	3.80000e+01	
			         2.03167	3.90000e+01	
			         2.03333	3.90000e+01	
			         2.03500	3.90000e+01	
			         2.03667	3.90000e+01	
			         2.03833	3.90000e+01	
			         2.04000	4.00000e+01	
			         2.04167	4.00000e+01	
			         2.04333	4.00000e+01	
			         2.04500	4.10000e+01	
			         2.04667	4.20000e+01	
			         2.04833	4.30000e+01	
			         2.05000	4.40000e+01	
			         2.05167	4.50000e+01	
			         2.05333	4.70000e+01	
			         2.05500	4.90000e+01	
			         2.05667	5.00000e+01	
			         2.05833	5.20000e+01	
			         2.06000	5.40000e+01	
			         2.06167	5.60000e+01	
			         2.06333	5.80000e+01	
			         2.06500	6.00000e+01	
			         2.06667	6.20000e+01	
			         2.06833	6.40000e+01	
			         2.07000	6.60000e+01	
			         2.07167	6.70000e+01	
			         2.07333	6.90000e+01	
			         2.07500	7.10000e+01	
			         2.07667	7.20000e+01	
			         2.07833	7.30000e+01	
			         2.08000	7.50000e+01	
			         2.08167	7.60000e+01	
			         2.08333	7.80000e+01	
			         2.08500	7.90000e+01	
			         2.08667	8.10000e+01	
			         2.08833	8.30000e+01	
			         2.09000	8.50000e+01	
			         2.09167	8.70000e+01	
			         2.09333	8.90000e+01	
			         2.09500	9.20000e+01	
			         2.09667	9.50000e+01	
			         2.09833	9.80000e+01	
			         2.10000	1.01000e+02	
			         2.10167	1.04000e+02	
			         2.10333	1.06000e+02	
			         2.10500	1.09000e+02	
			         2.10667	1.11000e+02	
			         2.10833	1.13000e+02	
			         2.11000	1.14000e+02	
			         2.11167	1.16000e+02	
			         2.11333	1.16000e+02	
			         2.11500	1.17000e+02	
			         2.11667	1.17000e+02	
			         2.11833	1.16000e+02	
			         2.12000	1.15000e+02	
			         2.12167	1.14000e+02	
			         2.12333	1.13000e+02	
			         2.12500	1.11000e+02	
			         2.12667	1.09000e+02	
			         2.12833	1.07000e+02	
			         2.13000	1.05000e+02	
			         2.13167	1.03000e+02	
			         2.13333	1.00000e+02	
			         2.13500	9.70000e+01	
			         2.13667	9.40000e+01	
			         2.13833	9.00000e+01	
			         2.14000	8.60000e+01	
			         2.14167	8.20000e+01	
			         2.14333	7.70000e+01	
			         2.14500	7.20000e+01	
			         2.14667	6.60000e+01	
			         2.14833	6.00000e+01	
			         2.15000	5.40000e+01	
			         2.15167	4.70000e+01	
			         2.15333	4.00000e+01	
			         2.15500	3.30000e+01	
			         2.15667	2.50000e+01	
			         2.15833	1.80000e+01	
			         2.16000	1.10000e+01	
			         2.16167	4.00000e+00	
			         2.16333	-3.00000e+00	
			         2.16500	-9.00000e+00	
			         2.16667	-1.60000e+01	
			         2.16833	-2.20000e+01	
			         2.17000	-2.70000e+01	
			         2.17167	-3.30000e+01	
			         2.17333	-3.70000e+01	
			         2.17500	-4.20000e+01	
			         2.17667	-4.60000e+01	
			         2.17833	-5.00000e+01	
			         2.18000	-5.40000e+01	
			         2.18167	-5.80000e+01	
			         2.18333	-6.10000e+01	
			         2.18500	-6.40000e+01	
			         2.18667	-6.70000e+01	
			         2.18833	-7.00000e+01	
			         2.19000	-7.20000e+01	
			         2.19167	-7.50000e+01	
			         2.19333	-7.70000e+01	
			         2.19500	-7.90000e+01	
			         2.19667	-8.10000e+01	
			         2.19833	-8.30000e+01	
			         2.20000	-8.40000e+01	
			         2.20167	-8.50000e+01	
			         2.20333	-8.70000e+01	
			         2.20500	-8.70000e+01	
			         2.20667	-8.80000e+01	
			         2.20833	-8.80000e+01	
			         2.21000	-8.80000e+01	
			         2.21167	-8.80000e+01	
			         2.21333	-8.70000e+01	
			         2.21500	-8.60000e+01	
			         2.21667	-8.40000e+01	
			         2.21833	-8.20000e+01	
			         2.22000	-8.10000e+01	
			         2.22167	-7.90000e+01	
			         2.22333	-7.70000e+01	
			         2.22500	-7.50000e+01	
			         2.22667	-7.30000e+01	
			         2.22833	-7.10000e+01	
			         2.23000	-7.00000e+01	
			         2.23167	-6.80000e+01	
			         2.23333	-6.70000e+01	
			         2.23500	-6.60000e+01	
			         2.23667	-6.60000e+01	
			         2.23833	-6.50000e+01	
			         2.24000	-6.50000e+01	
			         2.24167	-6.40000e+01	
			         2.24333	-6.40000e+01	
			         2.24500	-6.40000e+01	
			         2.24667	-6.40000e+01	
			         2.24833	-6.40000e+01	
			         2.25000	-6.50000e+01	
			         2.25167	-6.50000e+01	
			         2.25333	-6.40000e+01	
			         2.25500	-6.40000e+01	
			         2.25667	-6.30000e+01	
			         2.25833	-6.30000e+01	
			         2.26000	-6.20000e+01	
			         2.26167	-6.00000e+01	
			         2.26333	-5.90000e+01	
			         2.26500	-5.80000e+01	
			         2.26667	-5.60000e+01	
			         2.26833	-5.50000e+01	
			         2.27000	-5.30000e+01	
			         2.27167	-5.20000e+01	
			         2.27333	-5.00000e+01	
			         2.27500	-4.90000e+01	
			         2.27667	-4.80000e+01	
			         2.27833	-4.70000e+01	
			         2.28000	-4.60000e+01	
			         2.28167	-4.60000e+01	
			         2.28333	-4.50000e+01	
			         2.28500	-4.40000e+01	
			         2.28667	-4.30000e+01	
			         2.28833	-4.20000e+01	
			         2.29000	-4.10000e+01	
			         2.29167	-4.00000e+01	
			         2.29333	-3.90000e+01	
			         2.29500	-3.80000e+01	
			         2.29667	-3.70000e+01	
			         2.29833	-3.60000e+01	
			         2.30000	-3.40000e+01	
			         2.30167	-3.30000e+01	
			         2.30333	-3.20000e+01	
			         2.30500	-3.10000e+01	
			         2.30667	-3.00000e+01	
			         2.30833	-2.90000e+01	
			         2.31000	-2.90000e+01	
			         2.31167	-2.80000e+01	
			         2.31333	-2.80000e+01	
			         2.31500	-2.70000e+01	
			         2.31667	-2.70000e+01	
			         2.31833	-2.70000e+01	
			         2.32000	-2.60000e+01	
			         2.32167	-2.50000e+01	
			         2.32333	-2.40000e+01	
			         2.32500	-2.30000e+01	
			         2.32667	-2.20000e+01	
			         2.32833	-2.10000e+01	
			         2.33000	-1.90000e+01	
			         2.33167	-1.80000e+01	
			         2.33333	-1.70000e+01	
			         2.33500	-1.50000e+01	
			         2.33667	-1.40000e+01	
			         2.33833	-1.30000e+01	
			         2.34000	-1.30000e+01	
			         2.34167	-1.20000e+01	
			         2.34333	-1.20000e+01	
			         2.34500	-1.20000e+01	
			         2.34667	-1.20000e+01	
			         2.34833	-1.20000e+01	
			         2.35000	-1.20000e+01	
			         2.35167	-1.30000e+01	
			         2.35333	-1.30000e+01	
			         2.35500	-1.40000e+01	
			         2.35667	-1.50000e+01	
			         2.35833	-1.50000e+01	
			         2.36000	-1.60000e+01	
			         2.36167	-1.60000e+01	
			         2.36333	-1.60000e+01	
			         2.36500	-1.60000e+01	
			         2.36667	-1.60000e+01	
			         2.36833	-1.60000e+01	
			         2.37000	-1.60000e+01	
			         2.37167	-1.50000e+01	
			         2.37333	-1.40000e+01	
			         2.37500	-1.30000e+01	
			         2.37667	-1.20000e+01	
			         2.37833	-1.10000e+01	
			         2.38000	-1.10000e+01	
			         2.38167	-1.00000e+01	
			         2.38333	-9.00000e+00	
			         2.38500	-9.00000e+00	
			         2.38667	-9.00000e+00	
			         2.38833	-8.00000e+00	
			         2.39000	-8.00000e+00	
			         2.39167	-9.00000e+00	
			         2.39333	-9.00000e+00	
			         2.39500	-9.00000e+00	
			         2.39667	-1.00000e+01	
			         2.39833	-1.10000e+01	
			         2.40000	-1.20000e+01	
			         2.40167	-1.20000e+01	
			         2.40333	-1.30000e+01	
			         2.40500	-1.40000e+01	
			         2.40667	-1.50000e+01	
			         2.40833	-1.50000e+01	
			         2.41000	-1.60000e+01	
			         2.41167	-1.60000e+01	
			         2.41333	-1.60000e+01	
			         2.41500	-1.70000e+01	
			         2.41667	-1.60000e+01	
			         2.41833	-1.60000e+01	
			         2.42000	-1.60000e+01	
			         2.42167	-1.50000e+01	
			         2.42333	-1.40000e+01	
			         2.42500	-1.30000e+01	
			         2.42667	-1.20000e+01	
			         2.42833	-1.10000e+01	
			         2.43000	-1.10000e+01	
			         2.43167	-1.00000e+01	
			         2.43333	-1.00000e+01	
			         2.43500	-1.00000e+01	
			         2.43667	-1.00000e+01	
			         2.43833	-1.00000e+01	
			         2.44000	-1.00000e+01	
			         2.44167	-1.00000e+01	
			         2.44333	-1.10000e+01	
			         2.44500	-1.10000e+01	
			         2.44667	-1.10000e+01	
			         2.44833	-1.20000e+01	
			         2.45000	-1.20000e+01	
			         2.45167	-1.20000e+01	
			         2.45333	-1.20000e+01	
			         2.45500	-1.20000e+01	
			         2.45667	-1.20000e+01	
			         2.45833	-1.20000e+01	
			         2.46000	-1.20000e+01	
			         2.46167	-1.20000e+01	
			         2.46333	-1.30000e+01	
			         2.46500	-1.30000e+01	
			         2.46667	-1.30000e+01	
			         2.46833	-1.40000e+01	
			         2.47000	-1.40000e+01	
			         2.47167	-1.40000e+01	
			         2.47333	-1.40000e+01	
			         2.47500	-1.40000e+01	
			         2.47667	-1.40000e+01	
			         2.47833	-1.30000e+01	
			         2.48000	-1.30000e+01	
			         2.48167	-1.20000e+01	
			         2.48333	-1.10000e+01	
			         2.48500	-1.00000e+01	
			         2.48667	-9.00000e+00	
			         2.48833	-8.00000e+00	
			         2.49000	-8.00000e+00	
			         2.49167	-7.00000e+00	
			         2.49333	-6.00000e+00	
			         2.49500	-6.00000e+00	
			         2.49667	-6.00000e+00	
			         2.49833	-5.00000e+00	
			         2.50000	-5.00000e+00	
			         2.50167	-5.00000e+00	
			         2.50333	-5.00000e+00	
			         2.50500	-6.00000e+00	
			         2.50667	-6.00000e+00	
			         2.50833	-7.00000e+00	
			         2.51000	-7.00000e+00	
			         2.51167	-7.00000e+00	
			         2.51333	-7.00000e+00	
			         2.51500	-7.00000e+00	
			         2.51667	-7.00000e+00	
			         2.51833	-6.00000e+00	
			         2.52000	-6.00000e+00	
			         2.52167	-5.00000e+00	
			         2.52333	-4.00000e+00	
			         2.52500	-3.00000e+00	
			         2.52667	-2.00000e+00	
			         2.52833	-1.00000e+00	
			         2.53000	-1.00000e+00	
			         2.53167	0.00000e+00	
			         2.53333	0.00000e+00	
			         2.53500	-1.00000e+00	
			         2.53667	-1.00000e+00	
			         2.53833	-2.00000e+00	
			         2.54000	-4.00000e+00	
			         2.54167	-5.00000e+00	
			         2.54333	-6.00000e+00	
			         2.54500	-7.00000e+00	
			         2.54667	-8.00000e+00	
			         2.54833	-8.00000e+00	
			         2.55000	-8.00000e+00	
			         2.55167	-8.00000e+00	
			         2.55333	-8.00000e+00	
			         2.55500	-7.00000e+00	
			         2.55667	-6.00000e+00	
			         2.55833	-5.00000e+00	
			         2.56000	-3.00000e+00	
			         2.56167	-1.00000e+00	
			         2.56333	0.00000e+00	
			         2.56500	2.00000e+00	
			         2.56667	4.00000e+00	
			         2.56833	5.00000e+00	
			         2.57000	7.00000e+00	
			         2.57167	8.00000e+00	
			         2.57333	9.00000e+00	
			         2.57500	1.00000e+01	
			         2.57667	1.10000e+01	
			         2.57833	1.10000e+01	
			         2.58000	1.20000e+01	
			         2.58167	1.20000e+01	
			         2.58333	1.20000e+01	
			         2.58500	1.20000e+01	
			         2.58667	1.20000e+01	
			         2.58833	1.20000e+01	
			         2.59000	1.20000e+01	
			         2.59167	1.30000e+01	
			         2.59333	1.30000e+01	
			         2.59500	1.40000e+01	
			         2.59667	1.40000e+01	
			         2.59833	1.40000e+01	
			         2.60000	1.40000e+01	
			         2.60167	1.40000e+01	
			         2.60333	1.40000e+01	
			         2.60500	1.40000e+01	
			         2.60667	1.40000e+01	
			         2.60833	1.40000e+01	
			         2.61000	1.40000e+01	
			         2.61167	1.40000e+01	
			         2.61333	1.40000e+01	
			         2.61500	1.40000e+01	
			         2.61667	1.40000e+01	
			         2.61833	1.40000e+01	
			         2.62000	1.40000e+01	
			         2.62167	1.40000e+01	
			         2.62333	1.40000e+01	
			         2.62500	1.30000e+01	
			         2.62667	1.30000e+01	
			         2.62833	1.30000e+01	
			         2.63000	1.30000e+01	
			         2.63167	1.30000e+01	
			         2.63333	1.20000e+01	
			         2.63500	1.20000e+01	
			         2.63667	1.20000e+01	
			         2.63833	1.10000e+01	
			         2.64000	1.00000e+01	
			         2.64167	9.00000e+00	
			         2.64333	8.00000e+00	
			         2.64500	7.00000e+00	
			         2.64667	6.00000e+00	
			         2.64833	4.00000e+00	
			         2.65000	3.00000e+00	
			         2.65167	1.00000e+00	
			         2.65333	-2.00000e+00	
			         2.65500	-4.00000e+00	
			         2.65667	-6.00000e+00	
			         2.65833	-8.00000e+00	
			         2.66000	-1.10000e+01	
			         2.66167	-1.30000e+01	
			         2.66333	-1.60000e+01	
			         2.66500	-1.80000e+01	
			         2.66667	-2.10000e+01	
			         2.66833	-2.30000e+01	
			         2.67000	-2.50000e+01	
			         2.67167	-2.70000e+01	
			         2.67333	-2.80000e+01	
			         2.67500	-3.00000e+01	
			         2.67667	-3.10000e+01	
			         2.67833	-3.20000e+01	
			         2.68000	-3.20000e+01	
			         2.68167	-3.30000e+01	
			         2.68333	-3.30000e+01	
			         2.68500	-3.20000e+01	
			         2.68667	-3.20000e+01	
			         2.68833	-3.10000e+01	
			         2.69000	-3.00000e+01	
			         2.69167	-2.90000e+01	
			         2.69333	-2.80000e+01	
			         2.69500	-2.70000e+01	
			         2.69667	-2.60000e+01	
			         2.69833	-2.50000e+01	
			         2.70000	-2.40000e+01	
			         2.70167	-2.30000e+01	
			         2.70333	-2.20000e+01	
			         2.70500	-2.10000e+01	
			         2.70667	-2.10000e+01	
			         2.70833	-2.10000e+01	
			         2.71000	-2.10000e+01	
			         2.71167	-2.20000e+01	
			         2.71333	-2.30000e+01	
			         2.71500	-2.50000e+01	
			         2.71667	-2.70000e+01	
			         2.71833	-3.00000e+01	
			         2.72000	-3.30000e+01	
			         2.72167	-3.60000e+01	
			         2.72333	-4.00000e+01	
			         2.72500	-4.30000e+01	
			         2.72667	-4.60000e+01	
			         2.72833	-4.80000e+01	
			         2.73000	-4.80000e+01	
			         2.73167	-4.70000e+01	
			         2.73333	-4.30000e+01	
			         2.73500	-3.70000e+01	
			         2.73667	-2.80000e+01	
			         2.73833	-1.60000e+01	
			         2.74000	-1.00000e+00	
			         2.74167	1.80000e+01	
			         2.74333	3.80000e+01	
			         2.74500	6.20000e+01	
			         2.74667	8.60000e+01	
			         2.74833	1.12000e+02	
			         2.75000	1.37000e+02	
			         2.75167	1.62000e+02	
			         2.75333	1.86000e+02	
			         2.75500	2.06000e+02	
			         2.75667	2.24000e+02	
			         2.75833	2.37000e+02	
			         2.76000	2.45000e+02	
			         2.76167	2.47000e+02	
			         2.76333	2.44000e+02	
			         2.76500	2.35000e+02	
			         2.76667	2.19000e+02	
			         2.76833	1.99000e+02	
			         2.77000	1.74000e+02	
			         2.77167	1.46000e+02	
			         2.77333	1.14000e+02	
			         2.77500	8.10000e+01	
			         2.77667	4.80000e+01	
			         2.77833	1.50000e+01	
			         2.78000	-1.70000e+01	
			         2.78167	-4.60000e+01	
			         2.78333	-7.20000e+01	
			         2.78500	-9.40000e+01	
			         2.78667	-1.12000e+02	
			         2.78833	-1.27000e+02	
			         2.79000	-1.39000e+02	
			         2.79167	-1.47000e+02	
			         2.79333	-1.52000e+02	
			         2.79500	-1.55000e+02	
			         2.79667	-1.56000e+02	
			         2.79833	-1.56000e+02	
			         2.80000	-1.55000e+02	
			         2.80167	-1.54000e+02	
			         2.80333	-1.52000e+02	
			         2.80500	-1.50000e+02	
			         2.80667	-1.49000e+02	
