Velocity (TVI), in cm/s

Time (s) :	Trace 1 : 		Ecg : 		
0.01238   	3.31782e+00		         0.00000	-7.40000e+01	
0.01896   	4.49122e+00		         0.00167	-7.60000e+01	
0.02556   	4.18270e+00		         0.00333	-7.40000e+01	
0.03240   	3.70399e+00		         0.00500	-6.80000e+01	
0.03902   	2.31490e+00		         0.00667	-5.60000e+01	
0.04560   	1.48395e+00		         0.00833	-4.10000e+01	
0.05221   	-3.90264e-01		         0.01000	-2.20000e+01	
0.05904   	-1.03444e+00		         0.01167	-1.00000e+00	
0.06566   	-1.24617e+00		         0.01333	2.20000e+01	
0.07225   	-7.23110e-01		         0.01500	4.50000e+01	
0.07885   	1.14176e-02		         0.01667	6.80000e+01	
0.08569   	7.49513e-01		         0.01833	8.90000e+01	
0.09232   	1.51329e+00		         0.02000	1.08000e+02	
0.09889   	2.40304e+00		         0.02167	1.25000e+02	
0.10550   	3.17001e+00		         0.02333	1.39000e+02	
0.11233   	3.88748e+00		         0.02500	1.48000e+02	
0.11896   	4.30354e+00		         0.02667	1.54000e+02	
0.12554   	4.56155e+00		         0.02833	1.56000e+02	
0.13214   	4.66481e+00		         0.03000	1.54000e+02	
0.13897   	4.74048e+00		         0.03167	1.49000e+02	
0.14561   	4.83586e+00		         0.03333	1.41000e+02	
0.15218   	5.00059e+00		         0.03500	1.31000e+02	
0.15879   	5.07211e+00		         0.03667	1.19000e+02	
0.16562   	5.11632e+00		         0.03833	1.06000e+02	
0.17223   	5.17295e+00		         0.04000	9.10000e+01	
0.17883   	5.13401e+00		         0.04167	7.60000e+01	
0.18543   	5.09695e+00		         0.04333	6.10000e+01	
0.19226   	4.95973e+00		         0.04500	4.60000e+01	
0.19889   	4.92120e+00		         0.04667	3.30000e+01	
0.20547   	4.78373e+00		         0.04833	2.10000e+01	
0.21208   	4.62525e+00		         0.05000	1.10000e+01	
0.21891   	4.45144e+00		         0.05167	3.00000e+00	
0.22553   	4.38894e+00		         0.05333	-3.00000e+00	
0.23212   	4.17112e+00		         0.05500	-7.00000e+00	
0.23872   	4.03569e+00		         0.05667	-1.10000e+01	
0.24555   	3.95972e+00		         0.05833	-1.30000e+01	
0.25217   	3.86885e+00		         0.06000	-1.40000e+01	
0.25893   	3.74197e+00		         0.06167	-1.40000e+01	
0.26537   	3.63829e+00		         0.06333	-1.40000e+01	
0.27220   	3.53073e+00		         0.06500	-1.30000e+01	
0.27881   	3.39704e+00		         0.06667	-1.30000e+01	
0.28541   	3.25661e+00		         0.06833	-1.20000e+01	
0.29201   	3.10497e+00		         0.07000	-1.10000e+01	
0.29884   	3.00140e+00		         0.07167	-1.10000e+01	
0.30545   	2.83882e+00		         0.07333	-1.00000e+01	
0.31205   	2.65689e+00		         0.07500	-1.00000e+01	
0.31866   	2.44984e+00		         0.07667	-1.00000e+01	
0.32549   	2.26556e+00		         0.07833	-9.00000e+00	
0.33211   	2.02375e+00		         0.08000	-9.00000e+00	
0.33869   	1.75675e+00		         0.08167	-9.00000e+00	
0.34530   	1.40729e+00		         0.08333	-9.00000e+00	
0.35213   	9.80142e-01		         0.08500	-9.00000e+00	
0.35876   	3.81516e-01		         0.08667	-9.00000e+00	
0.36534   	-3.46233e-01		         0.08833	-9.00000e+00	
0.37194   	-1.10849e+00		         0.09000	-9.00000e+00	
0.37878   	-1.72095e+00		         0.09167	-9.00000e+00	
0.38540   	-2.17416e+00		         0.09333	-9.00000e+00	
0.39198   	-2.20822e+00		         0.09500	-9.00000e+00	
0.39859   	-1.94973e+00		         0.09667	-9.00000e+00	
0.40542   	-1.53131e+00		         0.09833	-9.00000e+00	
0.41204   	-1.14572e+00		         0.10000	-9.00000e+00	
0.41863   	-8.85970e-01		         0.10167	-8.00000e+00	
0.42523   	-6.32508e-01		         0.10333	-9.00000e+00	
0.43207   	-5.15735e-01		         0.10500	-9.00000e+00	
0.43868   	-3.57846e-01		         0.10667	-9.00000e+00	
0.44527   	-2.67444e-01		         0.10833	-9.00000e+00	
0.45188   	-5.84113e-02		         0.11000	-9.00000e+00	
0.45871   	-2.33010e-01		         0.11167	-9.00000e+00	
0.46533   	-2.67540e-01		         0.11333	-9.00000e+00	
0.47191   	-4.07030e-01		         0.11500	-9.00000e+00	
0.47852   	-2.28390e-01		         0.11667	-9.00000e+00	
0.48535   	1.35758e-03		         0.11833	-9.00000e+00	
0.49197   	2.63859e-02		         0.12000	-8.00000e+00	
0.49856   	1.63161e-01		         0.12167	-8.00000e+00	
0.50517   	2.71503e-01		         0.12333	-7.00000e+00	
0.51200   	-8.11887e-03		         0.12500	-6.00000e+00	
0.51862   	-6.63786e-01		         0.12667	-6.00000e+00	
0.52521   	-1.07092e+00		         0.12833	-5.00000e+00	
0.53181   	-1.68202e+00		         0.13000	-4.00000e+00	
0.53864   	-2.18147e+00		         0.13167	-4.00000e+00	
0.54526   	-2.59040e+00		         0.13333	-3.00000e+00	
0.55185   	-2.72354e+00		         0.13500	-3.00000e+00	
0.55845   	-2.75805e+00		         0.13667	-3.00000e+00	
0.56529   	-2.73012e+00		         0.13833	-3.00000e+00	
0.57191   	-2.75221e+00		         0.14000	-3.00000e+00	
0.57850   	-2.70416e+00		         0.14167	-2.00000e+00	
0.58510   	-2.58509e+00		         0.14333	-2.00000e+00	
0.59193   	-2.42139e+00		         0.14500	-1.00000e+00	
0.59855   	-2.30126e+00		         0.14667	-1.00000e+00	
0.60514   	-2.17749e+00		         0.14833	0.00000e+00	
0.61175   	-2.05671e+00		         0.15000	1.00000e+00	
0.61858   	-1.95089e+00		         0.15167	1.00000e+00	
0.62520   	-1.84222e+00		         0.15333	2.00000e+00	
0.63179   	-1.76004e+00		         0.15500	3.00000e+00	
0.63839   	-1.65462e+00		         0.15667	4.00000e+00	
0.64522   	-1.53081e+00		         0.15833	5.00000e+00	
0.65185   	-1.45315e+00		         0.16000	6.00000e+00	
0.65843   	-1.37300e+00		         0.16167	7.00000e+00	
0.66503   	-1.27096e+00		         0.16333	8.00000e+00	
0.67186   	-1.20228e+00		         0.16500	9.00000e+00	
0.67849   	-1.14613e+00		         0.16667	1.00000e+01	
0.68507   	-1.03987e+00		         0.16833	1.00000e+01	
0.69168   	-9.40731e-01		         0.17000	1.10000e+01	
0.69851   	-8.99921e-01		         0.17167	1.20000e+01	
0.70512   	-8.32703e-01		         0.17333	1.20000e+01	
0.71172   	-7.85844e-01		         0.17500	1.20000e+01	
0.71832   	-7.64276e-01		         0.17667	1.30000e+01	
0.72515   	-7.49140e-01		         0.17833	1.30000e+01	
0.73177   	-7.17607e-01		         0.18000	1.30000e+01	
0.73836   	-7.48230e-01		         0.18167	1.30000e+01	
0.74497   	-7.96817e-01		         0.18333	1.40000e+01	
0.75180   	-9.52315e-01		         0.18500	1.40000e+01	
0.75841   	-1.19801e+00		         0.18667	1.50000e+01	
0.76501   	-1.61307e+00		         0.18833	1.50000e+01	
0.77161   	-2.11306e+00		         0.19000	1.60000e+01	
0.77844   	-2.72795e+00		         0.19167	1.70000e+01	
0.78507   	-3.42690e+00		         0.19333	1.80000e+01	
0.79165   	-4.21583e+00		         0.19500	1.90000e+01	
0.79826   	-4.97755e+00		         0.19667	2.00000e+01	
0.80509   	-5.69646e+00		         0.19833	2.10000e+01	
0.81170   	-6.24853e+00		         0.20000	2.20000e+01	
0.81829   	-6.63918e+00		         0.20167	2.40000e+01	
0.82490   	-6.93089e+00		         0.20333	2.50000e+01	
0.83172   	-6.98580e+00		         0.20500	2.60000e+01	
0.83859   	-6.86970e+00		         0.20667	2.80000e+01	
0.84494   	-6.82845e+00		         0.20833	2.90000e+01	
0.85154   	-6.69647e+00		         0.21000	3.10000e+01	
0.85838   	-6.28657e+00		         0.21167	3.20000e+01	
0.86500   	-5.64016e+00		         0.21333	3.30000e+01	
0.87180   	-5.06335e+00		         0.21500	3.50000e+01	
0.87819   	-4.16624e+00		         0.21667	3.60000e+01	
0.88502   	-3.23337e+00		         0.21833	3.70000e+01	
0.89164   	-2.30812e+00		         0.22000	3.90000e+01	
0.89823   	-1.69264e+00		         0.22167	4.00000e+01	
0.90509   	-8.32040e-01		         0.22333	4.10000e+01	
0.91167   	-3.55602e-02		         0.22500	4.20000e+01	
0.91829   	5.34034e-01		         0.22667	4.30000e+01	
0.92487   	1.47651e+00		         0.22833	4.40000e+01	
0.93148   	2.78456e+00		         0.23000	4.50000e+01	
0.93830   	4.20355e+00		         0.23167	4.60000e+01	
0.94492   	4.46035e+00		         0.23333	4.70000e+01	
0.95152   	4.52155e+00		         0.23500	4.70000e+01	
0.95812   	3.49287e+00		         0.23667	4.80000e+01	
0.96496   	1.99588e+00		         0.23833	4.90000e+01	
0.97157   	1.04177e-01		         0.24000	4.90000e+01	
0.97817   	-7.13542e-01		         0.24167	5.00000e+01	
0.98477   	-1.09473e+00		         0.24333	5.10000e+01	
0.99160   	-6.97703e-01		         0.24500	5.10000e+01	
0.99822   	-2.27158e-01		         0.24667	5.20000e+01	
1.00481   	4.37208e-01		         0.24833	5.30000e+01	
1.01141   	1.20293e+00		         0.25000	5.30000e+01	
1.01824   	2.12878e+00		         0.25167	5.30000e+01	
1.02487   	2.87271e+00		         0.25333	5.40000e+01	
1.03145   	3.63863e+00		         0.25500	5.40000e+01	
1.03805   	4.22663e+00		         0.25667	5.40000e+01	
1.04489   	4.77046e+00		         0.25833	5.40000e+01	
1.05151   	4.87904e+00		         0.26000	5.40000e+01	
1.05810   	4.97752e+00		         0.26167	5.30000e+01	
1.06470   	5.12483e+00		         0.26333	5.20000e+01	
1.07153   	5.21004e+00		         0.26500	5.10000e+01	
1.07816   	5.17372e+00		         0.26667	5.00000e+01	
1.08474   	5.28354e+00		         0.26833	4.80000e+01	
1.09135   	5.25130e+00		         0.27000	4.60000e+01	
1.09818   	5.15501e+00		         0.27167	4.40000e+01	
1.10481   	5.15488e+00		         0.27333	4.10000e+01	
1.11139   	5.11476e+00		         0.27500	3.80000e+01	
1.11799   	5.03769e+00		         0.27667	3.50000e+01	
1.12482   	4.94993e+00		         0.27833	3.10000e+01	
1.13144   	4.83280e+00		         0.28000	2.80000e+01	
1.13803   	4.64047e+00		         0.28167	2.40000e+01	
1.14464   	4.44654e+00		         0.28333	2.00000e+01	
1.15147   	4.26960e+00		         0.28500	1.60000e+01	
1.15809   	4.16065e+00		         0.28667	1.20000e+01	
1.16468   	4.06929e+00		         0.28833	8.00000e+00	
1.17128   	3.98970e+00		         0.29000	3.00000e+00	
1.17811   	3.91905e+00		         0.29167	-1.00000e+00	
1.18472   	3.80898e+00		         0.29333	-5.00000e+00	
1.19132   	3.68526e+00		         0.29500	-9.00000e+00	
1.19793   	3.57438e+00		         0.29667	-1.40000e+01	
1.20476   	3.44290e+00		         0.29833	-1.80000e+01	
1.21137   	3.26876e+00		         0.30000	-2.20000e+01	
1.21796   	3.11168e+00		         0.30167	-2.60000e+01	
1.22457   	2.93689e+00		         0.30333	-2.90000e+01	
1.23140   	2.74934e+00		         0.30500	-3.30000e+01	
1.23801   	2.56702e+00		         0.30667	-3.60000e+01	
1.24461   	2.36765e+00		         0.30833	-3.90000e+01	
1.25121   	2.15924e+00		         0.31000	-4.10000e+01	
1.25805   	1.93480e+00		         0.31167	-4.40000e+01	
1.26466   	1.64463e+00		         0.31333	-4.60000e+01	
1.27125   	1.25367e+00		         0.31500	-4.80000e+01	
1.27786   	7.23918e-01		         0.31667	-4.90000e+01	
1.28469   	6.89037e-02		         0.31833	-5.10000e+01	
1.29130   	-6.73214e-01		         0.32000	-5.20000e+01	
1.29790   	-1.42221e+00		         0.32167	-5.30000e+01	
1.30450   	-1.95851e+00		         0.32333	-5.40000e+01	
1.31133   	-2.24614e+00		         0.32500	-5.50000e+01	
1.31795   	-2.09236e+00		         0.32667	-5.60000e+01	
1.32455   	-1.74950e+00		         0.32833	-5.60000e+01	
1.33115   	-1.28772e+00		         0.33000	-5.60000e+01	
1.33798   	-8.90839e-01		         0.33167	-5.70000e+01	
1.34461   	-5.78421e-01		         0.33333	-5.70000e+01	
1.35119   	-4.33667e-01		         0.33500	-5.70000e+01	
1.35779   	-2.11997e-01		         0.33667	-5.70000e+01	
1.36462   	-1.40446e-01		         0.33833	-5.60000e+01	
1.37125   	7.32612e-02		         0.34000	-5.60000e+01	
1.37783   	2.34624e-01		         0.34167	-5.60000e+01	
1.38443   	4.39593e-01		         0.34333	-5.50000e+01	
1.39127   	4.97577e-01		         0.34500	-5.50000e+01	
1.39789   	4.45171e-01		         0.34667	-5.40000e+01	
1.40447   	6.33482e-01		         0.34833	-5.30000e+01	
1.41108   	9.46245e-01		         0.35000	-5.20000e+01	
1.41791   	8.32294e-01		         0.35167	-5.20000e+01	
1.42453   	3.88279e-01		         0.35333	-5.10000e+01	
1.43112   	2.98730e-02		         0.35500	-5.00000e+01	
1.43772   	-6.63029e-01		         0.35667	-4.90000e+01	
1.44456   	-1.56057e+00		         0.35833	-4.80000e+01	
1.45119   	-2.11856e+00		         0.36000	-4.80000e+01	
1.45777   	-2.35873e+00		         0.36167	-4.70000e+01	
1.46437   	-2.48818e+00		         0.36333	-4.60000e+01	
1.47120   	-2.68364e+00		         0.36500	-4.50000e+01	
1.47784   	-2.71466e+00		         0.36667	-4.40000e+01	
1.48441   	-2.82037e+00		         0.36833	-4.30000e+01	
1.49102   	-2.82837e+00		         0.37000	-4.20000e+01	
1.49784   	-2.72510e+00		         0.37167	-4.00000e+01	
1.50446   	-2.59169e+00		         0.37333	-3.90000e+01	
1.51105   	-2.47367e+00		         0.37500	-3.80000e+01	
1.51766   	-2.26902e+00		         0.37667	-3.70000e+01	
1.52449   	-2.13550e+00		         0.37833	-3.60000e+01	
1.53111   	-2.04297e+00		         0.38000	-3.50000e+01	
1.53770   	-1.97174e+00		         0.38167	-3.50000e+01	
1.54430   	-1.86715e+00		         0.38333	-3.40000e+01	
1.55113   	-1.82883e+00		         0.38500	-3.40000e+01	
1.55776   	-1.72977e+00		         0.38667	-3.30000e+01	
1.56434   	-1.63464e+00		         0.38833	-3.30000e+01	
1.57095   	-1.50028e+00		         0.39000	-3.40000e+01	
1.57778   	-1.41569e+00		         0.39167	-3.40000e+01	
1.58440   	-1.34080e+00		         0.39333	-3.40000e+01	
1.59099   	-1.30112e+00		         0.39500	-3.40000e+01	
1.59759   	-1.26905e+00		         0.39667	-3.40000e+01	
1.60442   	-1.28414e+00		         0.39833	-3.40000e+01	
1.61104   	-1.22016e+00		         0.40000	-3.30000e+01	
1.61763   	-1.14247e+00		         0.40167	-3.30000e+01	
1.62424   	-1.05390e+00		         0.40333	-3.20000e+01	
1.63107   	-9.72371e-01		         0.40500	-3.10000e+01	
1.63768   	-8.39020e-01		         0.40667	-3.00000e+01	
1.64428   	-7.63175e-01		         0.40833	-2.90000e+01	
1.65088   	-7.25723e-01		         0.41000	-2.80000e+01	
1.65771   	-7.39696e-01		         0.41167	-2.60000e+01	
1.66433   	-8.05506e-01		         0.41333	-2.50000e+01	
1.67091   	-1.02016e+00		         0.41500	-2.30000e+01	
1.67753   	-1.26577e+00		         0.41667	-2.20000e+01	
1.68436   	-1.61705e+00		         0.41833	-2.10000e+01	
1.69097   	-2.09039e+00		         0.42000	-1.90000e+01	
1.69757   	-2.68702e+00		         0.42167	-1.80000e+01	
1.70417   	-3.41170e+00		         0.42333	-1.70000e+01	
1.71100   	-4.33342e+00		         0.42500	-1.70000e+01	
1.71762   	-5.14745e+00		         0.42667	-1.60000e+01	
1.72421   	-6.11448e+00		         0.42833	-1.60000e+01	
1.73082   	-6.82794e+00		         0.43000	-1.50000e+01	
1.73765   	-7.23220e+00		         0.43167	-1.50000e+01	
1.74426   	-7.38898e+00		         0.43333	-1.50000e+01	
1.75085   	-7.51826e+00		         0.43500	-1.40000e+01	
1.75746   	-7.27214e+00		         0.43667	-1.40000e+01	
1.76429   	-6.98901e+00		         0.43833	-1.40000e+01	
1.77092   	-6.75327e+00		         0.44000	-1.40000e+01	
1.77750   	-6.32102e+00		         0.44167	-1.40000e+01	
1.78410   	-5.67710e+00		         0.44333	-1.40000e+01	
1.79094   	-4.98027e+00		         0.44500	-1.40000e+01	
1.79756   	-4.33737e+00		         0.44667	-1.30000e+01	
1.80414   	-3.48549e+00		         0.44833	-1.30000e+01	
1.81075   	-2.60810e+00		         0.45000	-1.30000e+01	
1.81758   	-1.80863e+00		         0.45167	-1.20000e+01	
1.82421   	-9.60906e-01		         0.45333	-1.20000e+01	
1.83079   	2.96694e-02		         0.45500	-1.10000e+01	
1.83739   	7.69850e-01		         0.45667	-1.10000e+01	
1.84423   	2.15366e+00		         0.45833	-1.00000e+01	
1.85085   	3.13365e+00		         0.46000	-9.00000e+00	
1.85743   	4.59686e+00		         0.46167	-9.00000e+00	
1.86404   	4.75465e+00		         0.46333	-8.00000e+00	
1.87087   	4.80641e+00		         0.46500	-7.00000e+00	
1.87749   	3.53285e+00		         0.46667	-7.00000e+00	
1.88408   	2.23382e+00		         0.46833	-7.00000e+00	
1.89068   	1.93306e-01		         0.47000	-6.00000e+00	
1.89751   	-6.00722e-01		         0.47167	-6.00000e+00	
1.90414   	-1.02072e+00		         0.47333	-6.00000e+00	
1.91072   	-9.51732e-01		         0.47500	-7.00000e+00	
1.91733   	-4.17053e-01		         0.47667	-7.00000e+00	
1.92416   	3.58338e-01		         0.47833	-7.00000e+00	
1.93078   	1.19658e+00		         0.48000	-8.00000e+00	
1.93736   	1.97987e+00		         0.48167	-8.00000e+00	
1.94397   	2.88844e+00		         0.48333	-8.00000e+00	
1.95099   	3.65727e+00		         0.48500	-9.00000e+00	
1.95743   	4.26357e+00		         0.48667	-9.00000e+00	
1.96401   	4.71772e+00		         0.48833	-9.00000e+00	
1.97062   	4.95307e+00		         0.49000	-9.00000e+00	
1.97745   	5.10434e+00		         0.49167	-9.00000e+00	
1.98408   	5.22473e+00		         0.49333	-9.00000e+00	
1.99066   	5.39224e+00		         0.49500	-9.00000e+00	
1.99726   	5.45566e+00		         0.49667	-9.00000e+00	
2.00409   	5.49707e+00		         0.49833	-9.00000e+00	
2.01072   	5.39902e+00		         0.50000	-9.00000e+00	
2.01736   	5.31334e+00		         0.50167	-9.00000e+00	
2.02391   	5.18574e+00		         0.50333	-9.00000e+00	
2.03074   	5.04981e+00		         0.50500	-9.00000e+00	
2.03736   	4.95400e+00		         0.50667	-9.00000e+00	
2.04394   	4.85389e+00		         0.50833	-9.00000e+00	
2.05071   	4.73646e+00		         0.51000	-9.00000e+00	
2.05738   	4.60907e+00		         0.51167	-9.00000e+00	
2.06401   	4.50224e+00		         0.51333	-8.00000e+00	
2.07059   	4.38209e+00		         0.51500	-8.00000e+00	
2.07719   	4.28826e+00		         0.51667	-8.00000e+00	
2.08402   	4.21747e+00		         0.51833	-8.00000e+00	
2.09065   	4.11987e+00		         0.52000	-7.00000e+00	
2.09723   	3.99270e+00		         0.52167	-7.00000e+00	
2.10384   	3.85576e+00		         0.52333	-7.00000e+00	
2.11067   	3.73688e+00		         0.52500	-7.00000e+00	
2.11730   	3.56011e+00		         0.52667	-7.00000e+00	
2.12388   	3.37827e+00		         0.52833	-7.00000e+00	
2.13048   	3.25502e+00		         0.53000	-6.00000e+00	
2.13731   	3.13786e+00		         0.53167	-6.00000e+00	
2.14394   	2.95378e+00		         0.53333	-6.00000e+00	
2.15052   	2.78370e+00		         0.53500	-5.00000e+00	
2.15713   	2.64772e+00		         0.53667	-5.00000e+00	
2.16396   	2.48292e+00		         0.53833	-4.00000e+00	
2.17059   	2.25757e+00		         0.54000	-4.00000e+00	
2.17717   	1.99837e+00		         0.54167	-3.00000e+00	
2.18377   	1.70227e+00		         0.54333	-3.00000e+00	
2.19060   	1.29953e+00		         0.54500	-3.00000e+00	
2.19724   	8.04598e-01		         0.54667	-2.00000e+00	
2.20381   	2.26013e-01		         0.54833	-2.00000e+00	
2.21042   	-4.70285e-01		         0.55000	-2.00000e+00	
2.21725   	-1.22707e+00		         0.55167	-1.00000e+00	
2.22388   	-1.85866e+00		         0.55333	-1.00000e+00	
2.23046   	-2.19557e+00		         0.55500	-1.00000e+00	
2.23706   	-2.28024e+00		         0.55667	-1.00000e+00	
2.24389   	-1.97156e+00		         0.55833	-1.00000e+00	
2.25052   	-1.54113e+00		         0.56000	-1.00000e+00	
2.25710   	-1.06293e+00		         0.56167	-1.00000e+00	
2.26370   	-7.46570e-01		         0.56333	-1.00000e+00	
2.27054   	-5.12392e-01		         0.56500	-1.00000e+00	
2.27717   	-4.19809e-01		         0.56667	-1.00000e+00	
2.28374   	-1.75073e-01		         0.56833	-2.00000e+00	
2.29035   	1.03291e-01		         0.57000	-2.00000e+00	
2.29718   	3.26462e-01		         0.57167	-2.00000e+00	
2.30380   	6.53302e-01		         0.57333	-2.00000e+00	
2.31039   	1.03256e+00		         0.57500	-3.00000e+00	
2.31699   	1.18818e+00		         0.57667	-3.00000e+00	
2.32383   	1.16434e+00		         0.57833	-4.00000e+00	
2.33045   	1.26349e+00		         0.58000	-4.00000e+00	
2.33704   	1.02354e+00		         0.58167	-5.00000e+00	
2.34364   	3.17658e-01		         0.58333	-5.00000e+00	
2.35047   	-4.98065e-01		         0.58500	-5.00000e+00	
2.35710   	-1.24487e+00		         0.58667	-6.00000e+00	
2.36368   	-2.07266e+00		         0.58833	-6.00000e+00	
2.37028   	-2.68382e+00		         0.59000	-6.00000e+00	
2.37712   	-2.85543e+00		         0.59167	-7.00000e+00	
2.38373   	-2.79187e+00		         0.59333	-7.00000e+00	
2.39032   	-2.80645e+00		         0.59500	-7.00000e+00	
2.39693   	-2.78172e+00		         0.59667	-7.00000e+00	
2.40376   	-2.72667e+00		         0.59833	-7.00000e+00	
2.41038   	-2.71328e+00		         0.60000	-8.00000e+00	
2.41697   	-2.67369e+00		         0.60167	-8.00000e+00	
2.42357   	-2.59907e+00		         0.60333	-8.00000e+00	
2.43040   	-2.54091e+00		         0.60500	-8.00000e+00	
2.43703   	-2.44622e+00		         0.60667	-8.00000e+00	
2.44361   	-2.31175e+00		         0.60833	-8.00000e+00	
2.45022   	-2.24404e+00		         0.61000	-8.00000e+00	
2.45705   	-2.06389e+00		         0.61167	-8.00000e+00	
2.46367   	-1.91694e+00		         0.61333	-7.00000e+00	
2.47026   	-1.79445e+00		         0.61500	-7.00000e+00	
2.47686   	-1.70884e+00		         0.61667	-7.00000e+00	
2.48369   	-1.59615e+00		         0.61833	-6.00000e+00	
2.49032   	-1.52196e+00		         0.62000	-5.00000e+00	
2.49690   	-1.42581e+00		         0.62167	-5.00000e+00	
2.50351   	-1.33926e+00		         0.62333	-4.00000e+00	
2.51034   	-1.25949e+00		         0.62500	-4.00000e+00	
2.51697   	-1.23392e+00		         0.62667	-3.00000e+00	
2.52355   	-1.19767e+00		         0.62833	-3.00000e+00	
2.53015   	-1.20076e+00		         0.63000	-3.00000e+00	
2.53698   	-1.22200e+00		         0.63167	-2.00000e+00	
2.54360   	-1.19844e+00		         0.63333	-2.00000e+00	
2.55019   	-1.13221e+00		         0.63500	-2.00000e+00	
2.55680   	-1.07386e+00		         0.63667	-3.00000e+00	
2.56363   	-9.84811e-01		         0.63833	-3.00000e+00	
2.57024   	-9.04277e-01		         0.64000	-3.00000e+00	
2.57684   	-8.74974e-01		         0.64167	-3.00000e+00	
2.58344   	-9.12943e-01		         0.64333	-4.00000e+00	
2.59027   	-1.01997e+00		         0.64500	-4.00000e+00	
2.59690   	-1.20918e+00		         0.64667	-4.00000e+00	
2.60348   	-1.53407e+00		         0.64833	-4.00000e+00	
2.61008   	-1.99897e+00		         0.65000	-4.00000e+00	
2.61692   	-2.64380e+00		         0.65167	-4.00000e+00	
2.62353   	-3.42708e+00		         0.65333	-4.00000e+00	
2.63012   	-4.40599e+00		         0.65500	-4.00000e+00	
2.63673   	-5.36910e+00		         0.65667	-4.00000e+00	
2.64356   	-6.33693e+00		         0.65833	-3.00000e+00	
2.65018   	-7.07910e+00		         0.66000	-3.00000e+00	
2.65677   	-7.55633e+00		         0.66167	-3.00000e+00	
2.66337   	-7.64982e+00		         0.66333	-2.00000e+00	
2.67021   	-7.64169e+00		         0.66500	-2.00000e+00	
2.67684   	-7.43378e+00		         0.66667	-2.00000e+00	
2.68341   	-7.14412e+00		         0.66833	-2.00000e+00	
2.69002   	-6.80854e+00		         0.67000	-1.00000e+00	
2.69685   	-6.45934e+00		         0.67167	-1.00000e+00	
2.70347   	-5.91201e+00		         0.67333	-1.00000e+00	
2.71006   	-5.18807e+00		         0.67500	-1.00000e+00	
2.71666   	-4.44148e+00		         0.67667	0.00000e+00	
2.72349   	-3.62188e+00		         0.67833	0.00000e+00	
2.73012   	-2.79839e+00		         0.68000	0.00000e+00	
2.73670   	-1.90865e+00		         0.68167	0.00000e+00	
2.74331   	-8.68154e-01		         0.68333	0.00000e+00	
2.75014   	1.21588e-01		         0.68500	1.00000e+00	
2.75676   	9.08965e-01		         0.68667	1.00000e+00	
2.76334   	1.92288e+00		         0.68833	1.00000e+00	
2.76995   	2.68398e+00		         0.69000	1.00000e+00	
2.77678   	4.13719e+00		         0.69167	2.00000e+00	
2.78339   	4.17320e+00		         0.69333	2.00000e+00	
2.78999   	4.70991e+00		         0.69500	2.00000e+00	
2.79659   	5.01798e+00		         0.69667	3.00000e+00	
			         0.69833	3.00000e+00	
			         0.70000	4.00000e+00	
			         0.70167	4.00000e+00	
			         0.70333	5.00000e+00	
			         0.70500	5.00000e+00	
			         0.70667	6.00000e+00	
			         0.70833	8.00000e+00	
			         0.71000	1.00000e+01	
			         0.71167	1.20000e+01	
			         0.71333	1.40000e+01	
			         0.71500	1.70000e+01	
			         0.71667	2.00000e+01	
			         0.71833	2.30000e+01	
			         0.72000	2.60000e+01	
			         0.72167	2.90000e+01	
			         0.72333	3.20000e+01	
			         0.72500	3.40000e+01	
			         0.72667	3.60000e+01	
			         0.72833	3.70000e+01	
			         0.73000	3.80000e+01	
			         0.73167	3.70000e+01	
			         0.73333	3.60000e+01	
			         0.73500	3.30000e+01	
			         0.73667	3.00000e+01	
			         0.73833	2.70000e+01	
			         0.74000	2.30000e+01	
			         0.74167	1.90000e+01	
			         0.74333	1.50000e+01	
			         0.74500	1.10000e+01	
			         0.74667	7.00000e+00	
			         0.74833	4.00000e+00	
			         0.75000	2.00000e+00	
			         0.75167	0.00000e+00	
			         0.75333	-2.00000e+00	
			         0.75500	-3.00000e+00	
			         0.75667	-4.00000e+00	
			         0.75833	-5.00000e+00	
			         0.76000	-6.00000e+00	
			         0.76167	-7.00000e+00	
			         0.76333	-9.00000e+00	
			         0.76500	-1.10000e+01	
			         0.76667	-1.30000e+01	
			         0.76833	-1.60000e+01	
			         0.77000	-1.90000e+01	
			         0.77167	-2.10000e+01	
			         0.77333	-2.40000e+01	
			         0.77500	-2.60000e+01	
			         0.77667	-2.80000e+01	
			         0.77833	-3.00000e+01	
			         0.78000	-3.10000e+01	
			         0.78167	-3.10000e+01	
			         0.78333	-3.00000e+01	
			         0.78500	-2.90000e+01	
			         0.78667	-2.70000e+01	
			         0.78833	-2.40000e+01	
			         0.79000	-2.10000e+01	
			         0.79167	-1.80000e+01	
			         0.79333	-1.50000e+01	
			         0.79500	-1.20000e+01	
			         0.79667	-1.00000e+01	
			         0.79833	-7.00000e+00	
			         0.80000	-5.00000e+00	
			         0.80167	-4.00000e+00	
			         0.80333	-3.00000e+00	
			         0.80500	-2.00000e+00	
			         0.80667	-2.00000e+00	
			         0.80833	-2.00000e+00	
			         0.81000	-3.00000e+00	
			         0.81167	-4.00000e+00	
			         0.81333	-5.00000e+00	
			         0.81500	-6.00000e+00	
			         0.81667	-7.00000e+00	
			         0.81833	-7.00000e+00	
			         0.82000	-8.00000e+00	
			         0.82167	-8.00000e+00	
			         0.82333	-8.00000e+00	
			         0.82500	-8.00000e+00	
			         0.82667	-8.00000e+00	
			         0.82833	-8.00000e+00	
			         0.83000	-7.00000e+00	
			         0.83167	-6.00000e+00	
			         0.83333	-6.00000e+00	
			         0.83500	-5.00000e+00	
			         0.83667	-4.00000e+00	
			         0.83833	-4.00000e+00	
			         0.84000	-4.00000e+00	
			         0.84167	-3.00000e+00	
			         0.84333	-3.00000e+00	
			         0.84500	-3.00000e+00	
			         0.84667	-3.00000e+00	
			         0.84833	-4.00000e+00	
			         0.85000	-4.00000e+00	
			         0.85167	-4.00000e+00	
			         0.85333	-4.00000e+00	
			         0.85500	-4.00000e+00	
			         0.85667	-5.00000e+00	
			         0.85833	-5.00000e+00	
			         0.86000	-5.00000e+00	
			         0.86167	-5.00000e+00	
			         0.86333	-5.00000e+00	
			         0.86500	-5.00000e+00	
			         0.86667	-4.00000e+00	
			         0.86833	-4.00000e+00	
			         0.87000	-4.00000e+00	
			         0.87167	-4.00000e+00	
			         0.87333	-3.00000e+00	
			         0.87500	-3.00000e+00	
			         0.87667	-3.00000e+00	
			         0.87833	-3.00000e+00	
			         0.88000	-3.00000e+00	
			         0.88167	-3.00000e+00	
			         0.88333	-2.00000e+00	
			         0.88500	-2.00000e+00	
			         0.88667	-2.00000e+00	
			         0.88833	-1.00000e+00	
			         0.89000	-1.00000e+00	
			         0.89167	0.00000e+00	
			         0.89333	2.00000e+00	
			         0.89500	4.00000e+00	
			         0.89667	6.00000e+00	
			         0.89833	9.00000e+00	
			         0.90000	1.20000e+01	
			         0.90167	1.40000e+01	
			         0.90333	1.60000e+01	
			         0.90500	1.60000e+01	
			         0.90667	1.50000e+01	
			         0.90833	1.10000e+01	
			         0.91000	6.00000e+00	
			         0.91167	-2.00000e+00	
			         0.91333	-1.20000e+01	
			         0.91500	-2.40000e+01	
			         0.91667	-3.60000e+01	
			         0.91833	-4.70000e+01	
			         0.92000	-5.80000e+01	
			         0.92167	-6.60000e+01	
			         0.92333	-7.20000e+01	
			         0.92500	-7.30000e+01	
			         0.92667	-7.10000e+01	
			         0.92833	-6.30000e+01	
			         0.93000	-5.10000e+01	
			         0.93167	-3.50000e+01	
			         0.93333	-1.60000e+01	
			         0.93500	6.00000e+00	
			         0.93667	2.90000e+01	
			         0.93833	5.30000e+01	
			         0.94000	7.50000e+01	
			         0.94167	9.70000e+01	
			         0.94333	1.16000e+02	
			         0.94500	1.33000e+02	
			         0.94667	1.46000e+02	
			         0.94833	1.55000e+02	
			         0.95000	1.60000e+02	
			         0.95167	1.61000e+02	
			         0.95333	1.58000e+02	
			         0.95500	1.53000e+02	
			         0.95667	1.45000e+02	
			         0.95833	1.34000e+02	
			         0.96000	1.22000e+02	
			         0.96167	1.09000e+02	
			         0.96333	9.40000e+01	
			         0.96500	7.90000e+01	
			         0.96667	6.50000e+01	
			         0.96833	5.10000e+01	
			         0.97000	3.80000e+01	
			         0.97167	2.70000e+01	
			         0.97333	1.70000e+01	
			         0.97500	1.00000e+01	
			         0.97667	3.00000e+00	
			         0.97833	-1.00000e+00	
			         0.98000	-5.00000e+00	
			         0.98167	-7.00000e+00	
			         0.98333	-9.00000e+00	
			         0.98500	-1.00000e+01	
			         0.98667	-1.10000e+01	
			         0.98833	-1.20000e+01	
			         0.99000	-1.20000e+01	
			         0.99167	-1.20000e+01	
			         0.99333	-1.20000e+01	
			         0.99500	-1.20000e+01	
			         0.99667	-1.10000e+01	
			         0.99833	-1.10000e+01	
			         1.00000	-1.10000e+01	
			         1.00167	-1.00000e+01	
			         1.00333	-1.00000e+01	
			         1.00500	-9.00000e+00	
			         1.00667	-9.00000e+00	
			         1.00833	-8.00000e+00	
			         1.01000	-7.00000e+00	
			         1.01167	-7.00000e+00	
			         1.01333	-6.00000e+00	
			         1.01500	-5.00000e+00	
			         1.01667	-5.00000e+00	
			         1.01833	-4.00000e+00	
			         1.02000	-4.00000e+00	
			         1.02167	-3.00000e+00	
			         1.02333	-3.00000e+00	
			         1.02500	-2.00000e+00	
			         1.02667	-2.00000e+00	
			         1.02833	-2.00000e+00	
			         1.03000	-2.00000e+00	
			         1.03167	-2.00000e+00	
			         1.03333	-2.00000e+00	
			         1.03500	-2.00000e+00	
			         1.03667	-1.00000e+00	
			         1.03833	-1.00000e+00	
			         1.04000	-1.00000e+00	
			         1.04167	0.00000e+00	
			         1.04333	1.00000e+00	
			         1.04500	1.00000e+00	
			         1.04667	2.00000e+00	
			         1.04833	3.00000e+00	
			         1.05000	4.00000e+00	
			         1.05167	4.00000e+00	
			         1.05333	5.00000e+00	
			         1.05500	6.00000e+00	
			         1.05667	6.00000e+00	
			         1.05833	7.00000e+00	
			         1.06000	7.00000e+00	
			         1.06167	7.00000e+00	
			         1.06333	7.00000e+00	
			         1.06500	8.00000e+00	
			         1.06667	8.00000e+00	
			         1.06833	8.00000e+00	
			         1.07000	8.00000e+00	
			         1.07167	9.00000e+00	
			         1.07333	9.00000e+00	
			         1.07500	1.00000e+01	
			         1.07667	1.00000e+01	
			         1.07833	1.10000e+01	
			         1.08000	1.10000e+01	
			         1.08167	1.20000e+01	
			         1.08333	1.30000e+01	
			         1.08500	1.30000e+01	
			         1.08667	1.40000e+01	
			         1.08833	1.50000e+01	
			         1.09000	1.50000e+01	
			         1.09167	1.60000e+01	
			         1.09333	1.70000e+01	
			         1.09500	1.80000e+01	
			         1.09667	1.80000e+01	
			         1.09833	1.90000e+01	
			         1.10000	1.90000e+01	
			         1.10167	2.00000e+01	
			         1.10333	2.10000e+01	
			         1.10500	2.10000e+01	
			         1.10667	2.20000e+01	
			         1.10833	2.30000e+01	
			         1.11000	2.40000e+01	
			         1.11167	2.40000e+01	
			         1.11333	2.50000e+01	
			         1.11500	2.60000e+01	
			         1.11667	2.70000e+01	
			         1.11833	2.80000e+01	
			         1.12000	2.80000e+01	
			         1.12167	2.90000e+01	
			         1.12333	3.00000e+01	
			         1.12500	3.10000e+01	
			         1.12667	3.20000e+01	
			         1.12833	3.30000e+01	
			         1.13000	3.40000e+01	
			         1.13167	3.50000e+01	
			         1.13333	3.60000e+01	
			         1.13500	3.80000e+01	
			         1.13667	3.90000e+01	
			         1.13833	4.00000e+01	
			         1.14000	4.10000e+01	
			         1.14167	4.30000e+01	
			         1.14333	4.40000e+01	
			         1.14500	4.50000e+01	
			         1.14667	4.60000e+01	
			         1.14833	4.80000e+01	
			         1.15000	4.90000e+01	
			         1.15167	5.00000e+01	
			         1.15333	5.10000e+01	
			         1.15500	5.30000e+01	
			         1.15667	5.40000e+01	
			         1.15833	5.60000e+01	
			         1.16000	5.70000e+01	
			         1.16167	5.80000e+01	
			         1.16333	5.90000e+01	
			         1.16500	6.00000e+01	
			         1.16667	6.10000e+01	
			         1.16833	6.10000e+01	
			         1.17000	6.20000e+01	
			         1.17167	6.20000e+01	
			         1.17333	6.20000e+01	
			         1.17500	6.20000e+01	
			         1.17667	6.10000e+01	
			         1.17833	6.10000e+01	
			         1.18000	6.10000e+01	
			         1.18167	6.10000e+01	
			         1.18333	6.00000e+01	
			         1.18500	6.00000e+01	
			         1.18667	5.90000e+01	
			         1.18833	5.80000e+01	
			         1.19000	5.70000e+01	
			         1.19167	5.60000e+01	
			         1.19333	5.40000e+01	
			         1.19500	5.20000e+01	
			         1.19667	4.90000e+01	
			         1.19833	4.60000e+01	
			         1.20000	4.30000e+01	
			         1.20167	3.90000e+01	
			         1.20333	3.60000e+01	
			         1.20500	3.20000e+01	
			         1.20667	2.80000e+01	
			         1.20833	2.30000e+01	
			         1.21000	1.90000e+01	
			         1.21167	1.50000e+01	
			         1.21333	1.00000e+01	
			         1.21500	6.00000e+00	
			         1.21667	1.00000e+00	
			         1.21833	-3.00000e+00	
			         1.22000	-8.00000e+00	
			         1.22167	-1.20000e+01	
			         1.22333	-1.60000e+01	
			         1.22500	-2.00000e+01	
			         1.22667	-2.40000e+01	
			         1.22833	-2.80000e+01	
			         1.23000	-3.10000e+01	
			         1.23167	-3.40000e+01	
			         1.23333	-3.70000e+01	
			         1.23500	-4.00000e+01	
			         1.23667	-4.20000e+01	
			         1.23833	-4.40000e+01	
			         1.24000	-4.60000e+01	
			         1.24167	-4.70000e+01	
			         1.24333	-4.90000e+01	
			         1.24500	-5.00000e+01	
			         1.24667	-5.10000e+01	
			         1.24833	-5.10000e+01	
			         1.25000	-5.20000e+01	
			         1.25167	-5.20000e+01	
			         1.25333	-5.20000e+01	
			         1.25500	-5.20000e+01	
			         1.25667	-5.20000e+01	
			         1.25833	-5.20000e+01	
			         1.26000	-5.10000e+01	
			         1.26167	-5.00000e+01	
			         1.26333	-5.00000e+01	
			         1.26500	-4.90000e+01	
			         1.26667	-4.80000e+01	
			         1.26833	-4.70000e+01	
			         1.27000	-4.60000e+01	
			         1.27167	-4.50000e+01	
			         1.27333	-4.40000e+01	
			         1.27500	-4.30000e+01	
			         1.27667	-4.20000e+01	
			         1.27833	-4.10000e+01	
			         1.28000	-4.00000e+01	
			         1.28167	-4.00000e+01	
			         1.28333	-3.90000e+01	
			         1.28500	-3.80000e+01	
			         1.28667	-3.70000e+01	
			         1.28833	-3.70000e+01	
			         1.29000	-3.60000e+01	
			         1.29167	-3.50000e+01	
			         1.29333	-3.50000e+01	
			         1.29500	-3.40000e+01	
			         1.29667	-3.30000e+01	
			         1.29833	-3.20000e+01	
			         1.30000	-3.10000e+01	
			         1.30167	-3.10000e+01	
			         1.30333	-3.00000e+01	
			         1.30500	-2.90000e+01	
			         1.30667	-2.90000e+01	
			         1.30833	-2.80000e+01	
			         1.31000	-2.80000e+01	
			         1.31167	-2.80000e+01	
			         1.31333	-2.80000e+01	
			         1.31500	-2.70000e+01	
			         1.31667	-2.70000e+01	
			         1.31833	-2.70000e+01	
			         1.32000	-2.70000e+01	
			         1.32167	-2.70000e+01	
			         1.32333	-2.60000e+01	
			         1.32500	-2.60000e+01	
			         1.32667	-2.50000e+01	
			         1.32833	-2.40000e+01	
			         1.33000	-2.30000e+01	
			         1.33167	-2.20000e+01	
			         1.33333	-2.10000e+01	
			         1.33500	-2.00000e+01	
			         1.33667	-1.90000e+01	
			         1.33833	-1.80000e+01	
			         1.34000	-1.70000e+01	
			         1.34167	-1.60000e+01	
			         1.34333	-1.60000e+01	
			         1.34500	-1.50000e+01	
			         1.34667	-1.50000e+01	
			         1.34833	-1.40000e+01	
			         1.35000	-1.40000e+01	
			         1.35167	-1.30000e+01	
			         1.35333	-1.30000e+01	
			         1.35500	-1.30000e+01	
			         1.35667	-1.30000e+01	
			         1.35833	-1.20000e+01	
			         1.36000	-1.20000e+01	
			         1.36167	-1.20000e+01	
			         1.36333	-1.20000e+01	
			         1.36500	-1.10000e+01	
			         1.36667	-1.10000e+01	
			         1.36833	-1.10000e+01	
			         1.37000	-1.00000e+01	
			         1.37167	-1.00000e+01	
			         1.37333	-1.00000e+01	
			         1.37500	-1.00000e+01	
			         1.37667	-9.00000e+00	
			         1.37833	-9.00000e+00	
			         1.38000	-9.00000e+00	
			         1.38167	-8.00000e+00	
			         1.38333	-8.00000e+00	
			         1.38500	-8.00000e+00	
			         1.38667	-7.00000e+00	
			         1.38833	-7.00000e+00	
			         1.39000	-7.00000e+00	
			         1.39167	-6.00000e+00	
			         1.39333	-6.00000e+00	
			         1.39500	-6.00000e+00	
			         1.39667	-6.00000e+00	
			         1.39833	-6.00000e+00	
			         1.40000	-5.00000e+00	
			         1.40167	-5.00000e+00	
			         1.40333	-5.00000e+00	
			         1.40500	-5.00000e+00	
			         1.40667	-6.00000e+00	
			         1.40833	-6.00000e+00	
			         1.41000	-6.00000e+00	
			         1.41167	-6.00000e+00	
			         1.41333	-6.00000e+00	
			         1.41500	-6.00000e+00	
			         1.41667	-7.00000e+00	
			         1.41833	-7.00000e+00	
			         1.42000	-7.00000e+00	
			         1.42167	-7.00000e+00	
			         1.42333	-6.00000e+00	
			         1.42500	-6.00000e+00	
			         1.42667	-6.00000e+00	
			         1.42833	-5.00000e+00	
			         1.43000	-5.00000e+00	
			         1.43167	-4.00000e+00	
			         1.43333	-4.00000e+00	
			         1.43500	-3.00000e+00	
			         1.43667	-3.00000e+00	
			         1.43833	-2.00000e+00	
			         1.44000	-2.00000e+00	
			         1.44167	-1.00000e+00	
			         1.44333	-1.00000e+00	
			         1.44500	-1.00000e+00	
			         1.44667	-1.00000e+00	
			         1.44833	-1.00000e+00	
			         1.45000	-2.00000e+00	
			         1.45167	-2.00000e+00	
			         1.45333	-3.00000e+00	
			         1.45500	-3.00000e+00	
			         1.45667	-4.00000e+00	
			         1.45833	-5.00000e+00	
			         1.46000	-6.00000e+00	
			         1.46167	-6.00000e+00	
			         1.46333	-7.00000e+00	
			         1.46500	-7.00000e+00	
			         1.46667	-7.00000e+00	
			         1.46833	-7.00000e+00	
			         1.47000	-7.00000e+00	
			         1.47167	-7.00000e+00	
			         1.47333	-6.00000e+00	
			         1.47500	-5.00000e+00	
			         1.47667	-4.00000e+00	
			         1.47833	-4.00000e+00	
			         1.48000	-3.00000e+00	
			         1.48167	-2.00000e+00	
			         1.48333	-1.00000e+00	
			         1.48500	-1.00000e+00	
			         1.48667	0.00000e+00	
			         1.48833	0.00000e+00	
			         1.49000	0.00000e+00	
			         1.49167	0.00000e+00	
			         1.49333	-1.00000e+00	
			         1.49500	-1.00000e+00	
			         1.49667	-1.00000e+00	
			         1.49833	-2.00000e+00	
			         1.50000	-2.00000e+00	
			         1.50167	-3.00000e+00	
			         1.50333	-3.00000e+00	
			         1.50500	-3.00000e+00	
			         1.50667	-3.00000e+00	
			         1.50833	-4.00000e+00	
			         1.51000	-3.00000e+00	
			         1.51167	-3.00000e+00	
			         1.51333	-3.00000e+00	
			         1.51500	-3.00000e+00	
			         1.51667	-3.00000e+00	
			         1.51833	-3.00000e+00	
			         1.52000	-3.00000e+00	
			         1.52167	-3.00000e+00	
			         1.52333	-3.00000e+00	
			         1.52500	-3.00000e+00	
			         1.52667	-4.00000e+00	
			         1.52833	-4.00000e+00	
			         1.53000	-4.00000e+00	
			         1.53167	-4.00000e+00	
			         1.53333	-4.00000e+00	
			         1.53500	-4.00000e+00	
			         1.53667	-4.00000e+00	
			         1.53833	-3.00000e+00	
			         1.54000	-3.00000e+00	
			         1.54167	-3.00000e+00	
			         1.54333	-2.00000e+00	
			         1.54500	-2.00000e+00	
			         1.54667	-2.00000e+00	
			         1.54833	-2.00000e+00	
			         1.55000	-2.00000e+00	
			         1.55167	-2.00000e+00	
			         1.55333	-2.00000e+00	
			         1.55500	-2.00000e+00	
			         1.55667	-2.00000e+00	
			         1.55833	-1.00000e+00	
			         1.56000	-1.00000e+00	
			         1.56167	-1.00000e+00	
			         1.56333	-1.00000e+00	
			         1.56500	-1.00000e+00	
			         1.56667	-1.00000e+00	
			         1.56833	-1.00000e+00	
			         1.57000	-2.00000e+00	
			         1.57167	-2.00000e+00	
			         1.57333	-2.00000e+00	
			         1.57500	-2.00000e+00	
			         1.57667	-2.00000e+00	
			         1.57833	-2.00000e+00	
			         1.58000	-2.00000e+00	
			         1.58167	-2.00000e+00	
			         1.58333	-2.00000e+00	
			         1.58500	-2.00000e+00	
			         1.58667	-1.00000e+00	
			         1.58833	-1.00000e+00	
			         1.59000	0.00000e+00	
			         1.59167	0.00000e+00	
			         1.59333	1.00000e+00	
			         1.59500	2.00000e+00	
			         1.59667	2.00000e+00	
			         1.59833	3.00000e+00	
			         1.60000	3.00000e+00	
			         1.60167	3.00000e+00	
			         1.60333	3.00000e+00	
			         1.60500	4.00000e+00	
			         1.60667	4.00000e+00	
			         1.60833	4.00000e+00	
			         1.61000	3.00000e+00	
			         1.61167	3.00000e+00	
			         1.61333	3.00000e+00	
			         1.61500	3.00000e+00	
			         1.61667	3.00000e+00	
			         1.61833	3.00000e+00	
			         1.62000	4.00000e+00	
			         1.62167	4.00000e+00	
			         1.62333	5.00000e+00	
			         1.62500	6.00000e+00	
			         1.62667	8.00000e+00	
			         1.62833	1.00000e+01	
			         1.63000	1.20000e+01	
			         1.63167	1.50000e+01	
			         1.63333	1.80000e+01	
			         1.63500	2.10000e+01	
			         1.63667	2.40000e+01	
			         1.63833	2.70000e+01	
			         1.64000	3.00000e+01	
			         1.64167	3.30000e+01	
			         1.64333	3.50000e+01	
			         1.64500	3.70000e+01	
			         1.64667	3.90000e+01	
			         1.64833	3.90000e+01	
			         1.65000	3.90000e+01	
			         1.65167	3.80000e+01	
			         1.65333	3.60000e+01	
			         1.65500	3.30000e+01	
			         1.65667	3.00000e+01	
			         1.65833	2.60000e+01	
			         1.66000	2.20000e+01	
			         1.66167	1.80000e+01	
			         1.66333	1.40000e+01	
			         1.66500	1.00000e+01	
			         1.66667	7.00000e+00	
			         1.66833	4.00000e+00	
			         1.67000	2.00000e+00	
			         1.67167	0.00000e+00	
			         1.67333	-1.00000e+00	
			         1.67500	-2.00000e+00	
			         1.67667	-2.00000e+00	
			         1.67833	-2.00000e+00	
			         1.68000	-3.00000e+00	
			         1.68167	-4.00000e+00	
			         1.68333	-5.00000e+00	
			         1.68500	-7.00000e+00	
			         1.68667	-9.00000e+00	
			         1.68833	-1.20000e+01	
			         1.69000	-1.40000e+01	
			         1.69167	-1.70000e+01	
			         1.69333	-2.00000e+01	
			         1.69500	-2.20000e+01	
			         1.69667	-2.50000e+01	
			         1.69833	-2.70000e+01	
			         1.70000	-2.80000e+01	
			         1.70167	-2.80000e+01	
			         1.70333	-2.80000e+01	
			         1.70500	-2.70000e+01	
			         1.70667	-2.50000e+01	
			         1.70833	-2.30000e+01	
			         1.71000	-2.10000e+01	
			         1.71167	-1.90000e+01	
			         1.71333	-1.60000e+01	
			         1.71500	-1.30000e+01	
			         1.71667	-1.10000e+01	
			         1.71833	-9.00000e+00	
			         1.72000	-7.00000e+00	
			         1.72167	-6.00000e+00	
			         1.72333	-5.00000e+00	
			         1.72500	-5.00000e+00	
			         1.72667	-5.00000e+00	
			         1.72833	-5.00000e+00	
			         1.73000	-6.00000e+00	
			         1.73167	-6.00000e+00	
			         1.73333	-7.00000e+00	
			         1.73500	-8.00000e+00	
			         1.73667	-9.00000e+00	
			         1.73833	-1.00000e+01	
			         1.74000	-1.10000e+01	
			         1.74167	-1.10000e+01	
			         1.74333	-1.20000e+01	
			         1.74500	-1.20000e+01	
			         1.74667	-1.20000e+01	
			         1.74833	-1.30000e+01	
			         1.75000	-1.30000e+01	
			         1.75167	-1.20000e+01	
			         1.75333	-1.20000e+01	
			         1.75500	-1.20000e+01	
			         1.75667	-1.20000e+01	
			         1.75833	-1.20000e+01	
			         1.76000	-1.10000e+01	
			         1.76167	-1.10000e+01	
			         1.76333	-1.00000e+01	
			         1.76500	-1.00000e+01	
			         1.76667	-1.00000e+01	
			         1.76833	-9.00000e+00	
			         1.77000	-9.00000e+00	
			         1.77167	-9.00000e+00	
			         1.77333	-9.00000e+00	
			         1.77500	-1.00000e+01	
			         1.77667	-1.00000e+01	
			         1.77833	-1.00000e+01	
			         1.78000	-1.00000e+01	
			         1.78167	-1.00000e+01	
			         1.78333	-1.10000e+01	
			         1.78500	-1.10000e+01	
			         1.78667	-1.10000e+01	
			         1.78833	-1.10000e+01	
			         1.79000	-1.10000e+01	
			         1.79167	-1.10000e+01	
			         1.79333	-1.10000e+01	
			         1.79500	-1.10000e+01	
			         1.79667	-1.10000e+01	
			         1.79833	-1.00000e+01	
			         1.80000	-1.00000e+01	
			         1.80167	-1.00000e+01	
			         1.80333	-9.00000e+00	
			         1.80500	-8.00000e+00	
			         1.80667	-8.00000e+00	
			         1.80833	-7.00000e+00	
			         1.81000	-6.00000e+00	
			         1.81167	-4.00000e+00	
			         1.81333	-2.00000e+00	
			         1.81500	0.00000e+00	
			         1.81667	2.00000e+00	
			         1.81833	5.00000e+00	
			         1.82000	7.00000e+00	
			         1.82167	1.00000e+01	
			         1.82333	1.20000e+01	
			         1.82500	1.30000e+01	
			         1.82667	1.20000e+01	
			         1.82833	1.00000e+01	
			         1.83000	5.00000e+00	
			         1.83167	-2.00000e+00	
			         1.83333	-1.10000e+01	
			         1.83500	-2.20000e+01	
			         1.83667	-3.40000e+01	
			         1.83833	-4.60000e+01	
			         1.84000	-5.60000e+01	
			         1.84167	-6.60000e+01	
			         1.84333	-7.20000e+01	
			         1.84500	-7.50000e+01	
			         1.84667	-7.40000e+01	
			         1.84833	-6.90000e+01	
			         1.85000	-5.80000e+01	
			         1.85167	-4.30000e+01	
			         1.85333	-2.50000e+01	
			         1.85500	-4.00000e+00	
			         1.85667	1.90000e+01	
			         1.85833	4.20000e+01	
			         1.86000	6.40000e+01	
			         1.86167	8.60000e+01	
			         1.86333	1.05000e+02	
			         1.86500	1.22000e+02	
			         1.86667	1.36000e+02	
			         1.86833	1.46000e+02	
			         1.87000	1.51000e+02	
			         1.87167	1.53000e+02	
			         1.87333	1.52000e+02	
			         1.87500	1.47000e+02	
			         1.87667	1.40000e+02	
			         1.87833	1.30000e+02	
			         1.88000	1.19000e+02	
			         1.88167	1.06000e+02	
			         1.88333	9.20000e+01	
			         1.88500	7.80000e+01	
			         1.88667	6.30000e+01	
			         1.88833	4.90000e+01	
			         1.89000	3.60000e+01	
			         1.89167	2.40000e+01	
			         1.89333	1.40000e+01	
			         1.89500	6.00000e+00	
			         1.89667	-1.00000e+00	
			         1.89833	-6.00000e+00	
			         1.90000	-1.00000e+01	
			         1.90167	-1.30000e+01	
			         1.90333	-1.40000e+01	
			         1.90500	-1.50000e+01	
			         1.90667	-1.60000e+01	
			         1.90833	-1.60000e+01	
			         1.91000	-1.50000e+01	
			         1.91167	-1.50000e+01	
			         1.91333	-1.40000e+01	
			         1.91500	-1.40000e+01	
			         1.91667	-1.30000e+01	
			         1.91833	-1.30000e+01	
			         1.92000	-1.30000e+01	
			         1.92167	-1.20000e+01	
			         1.92333	-1.20000e+01	
			         1.92500	-1.20000e+01	
			         1.92667	-1.20000e+01	
			         1.92833	-1.20000e+01	
			         1.93000	-1.20000e+01	
			         1.93167	-1.10000e+01	
			         1.93333	-1.10000e+01	
			         1.93500	-1.10000e+01	
			         1.93667	-1.00000e+01	
			         1.93833	-1.00000e+01	
			         1.94000	-1.00000e+01	
			         1.94167	-1.00000e+01	
			         1.94333	-1.00000e+01	
			         1.94500	-9.00000e+00	
			         1.94667	-9.00000e+00	
			         1.94833	-9.00000e+00	
			         1.95000	-8.00000e+00	
			         1.95167	-8.00000e+00	
			         1.95333	-7.00000e+00	
			         1.95500	-6.00000e+00	
			         1.95667	-5.00000e+00	
			         1.95833	-5.00000e+00	
			         1.96000	-4.00000e+00	
			         1.96167	-3.00000e+00	
			         1.96333	-3.00000e+00	
			         1.96500	-2.00000e+00	
			         1.96667	-2.00000e+00	
			         1.96833	-1.00000e+00	
			         1.97000	-1.00000e+00	
			         1.97167	0.00000e+00	
			         1.97333	0.00000e+00	
			         1.97500	1.00000e+00	
			         1.97667	1.00000e+00	
			         1.97833	2.00000e+00	
			         1.98000	3.00000e+00	
			         1.98167	3.00000e+00	
			         1.98333	4.00000e+00	
			         1.98500	5.00000e+00	
			         1.98667	6.00000e+00	
			         1.98833	6.00000e+00	
			         1.99000	7.00000e+00	
			         1.99167	8.00000e+00	
			         1.99333	8.00000e+00	
			         1.99500	9.00000e+00	
			         1.99667	9.00000e+00	
			         1.99833	9.00000e+00	
			         2.00000	1.00000e+01	
			         2.00167	1.00000e+01	
			         2.00333	1.00000e+01	
			         2.00500	1.00000e+01	
			         2.00667	1.10000e+01	
			         2.00833	1.10000e+01	
			         2.01000	1.10000e+01	
			         2.01167	1.20000e+01	
			         2.01333	1.20000e+01	
			         2.01500	1.20000e+01	
			         2.01667	1.20000e+01	
			         2.01833	1.30000e+01	
			         2.02000	1.30000e+01	
			         2.02167	1.40000e+01	
			         2.02333	1.40000e+01	
			         2.02500	1.40000e+01	
			         2.02667	1.50000e+01	
			         2.02833	1.50000e+01	
			         2.03000	1.60000e+01	
			         2.03167	1.60000e+01	
			         2.03333	1.70000e+01	
			         2.03500	1.80000e+01	
			         2.03667	1.80000e+01	
			         2.03833	1.90000e+01	
			         2.04000	2.00000e+01	
			         2.04167	2.10000e+01	
			         2.04333	2.20000e+01	
			         2.04500	2.40000e+01	
			         2.04667	2.50000e+01	
			         2.04833	2.60000e+01	
			         2.05000	2.70000e+01	
			         2.05167	2.80000e+01	
			         2.05333	2.90000e+01	
			         2.05500	3.00000e+01	
			         2.05667	3.10000e+01	
			         2.05833	3.30000e+01	
			         2.06000	3.40000e+01	
			         2.06167	3.50000e+01	
			         2.06333	3.70000e+01	
			         2.06500	3.90000e+01	
			         2.06667	4.10000e+01	
			         2.06833	4.30000e+01	
			         2.07000	4.50000e+01	
			         2.07167	4.70000e+01	
			         2.07333	4.80000e+01	
			         2.07500	5.00000e+01	
			         2.07667	5.20000e+01	
			         2.07833	5.30000e+01	
			         2.08000	5.50000e+01	
			         2.08167	5.60000e+01	
			         2.08333	5.70000e+01	
			         2.08500	5.80000e+01	
			         2.08667	5.90000e+01	
			         2.08833	5.90000e+01	
			         2.09000	6.00000e+01	
			         2.09167	6.10000e+01	
			         2.09333	6.10000e+01	
			         2.09500	6.20000e+01	
			         2.09667	6.20000e+01	
			         2.09833	6.20000e+01	
			         2.10000	6.20000e+01	
			         2.10167	6.20000e+01	
			         2.10333	6.10000e+01	
			         2.10500	6.10000e+01	
			         2.10667	6.00000e+01	
			         2.10833	5.90000e+01	
			         2.11000	5.70000e+01	
			         2.11167	5.60000e+01	
			         2.11333	5.40000e+01	
			         2.11500	5.20000e+01	
			         2.11667	5.00000e+01	
			         2.11833	4.70000e+01	
			         2.12000	4.50000e+01	
			         2.12167	4.10000e+01	
			         2.12333	3.80000e+01	
			         2.12500	3.40000e+01	
			         2.12667	3.00000e+01	
			         2.12833	2.50000e+01	
			         2.13000	2.00000e+01	
			         2.13167	1.50000e+01	
			         2.13333	1.00000e+01	
			         2.13500	5.00000e+00	
			         2.13667	-1.00000e+00	
			         2.13833	-6.00000e+00	
			         2.14000	-1.10000e+01	
			         2.14167	-1.60000e+01	
			         2.14333	-2.10000e+01	
			         2.14500	-2.50000e+01	
			         2.14667	-2.90000e+01	
			         2.14833	-3.30000e+01	
			         2.15000	-3.60000e+01	
			         2.15167	-3.90000e+01	
			         2.15333	-4.20000e+01	
			         2.15500	-4.40000e+01	
			         2.15667	-4.60000e+01	
			         2.15833	-4.70000e+01	
			         2.16000	-4.90000e+01	
			         2.16167	-5.00000e+01	
			         2.16333	-5.20000e+01	
			         2.16500	-5.30000e+01	
			         2.16667	-5.40000e+01	
			         2.16833	-5.50000e+01	
			         2.17000	-5.60000e+01	
			         2.17167	-5.70000e+01	
			         2.17333	-5.70000e+01	
			         2.17500	-5.80000e+01	
			         2.17667	-5.80000e+01	
			         2.17833	-5.80000e+01	
			         2.18000	-5.80000e+01	
			         2.18167	-5.70000e+01	
			         2.18333	-5.70000e+01	
			         2.18500	-5.60000e+01	
			         2.18667	-5.50000e+01	
			         2.18833	-5.40000e+01	
			         2.19000	-5.30000e+01	
			         2.19167	-5.20000e+01	
			         2.19333	-5.10000e+01	
			         2.19500	-5.00000e+01	
			         2.19667	-4.90000e+01	
			         2.19833	-4.80000e+01	
			         2.20000	-4.70000e+01	
			         2.20167	-4.60000e+01	
			         2.20333	-4.50000e+01	
			         2.20500	-4.40000e+01	
			         2.20667	-4.30000e+01	
			         2.20833	-4.30000e+01	
			         2.21000	-4.20000e+01	
			         2.21167	-4.10000e+01	
			         2.21333	-4.00000e+01	
			         2.21500	-3.90000e+01	
			         2.21667	-3.90000e+01	
			         2.21833	-3.80000e+01	
			         2.22000	-3.70000e+01	
			         2.22167	-3.70000e+01	
			         2.22333	-3.60000e+01	
			         2.22500	-3.50000e+01	
			         2.22667	-3.50000e+01	
			         2.22833	-3.40000e+01	
			         2.23000	-3.30000e+01	
			         2.23167	-3.30000e+01	
			         2.23333	-3.20000e+01	
			         2.23500	-3.10000e+01	
			         2.23667	-3.10000e+01	
			         2.23833	-3.00000e+01	
			         2.24000	-2.90000e+01	
			         2.24167	-2.80000e+01	
			         2.24333	-2.70000e+01	
			         2.24500	-2.60000e+01	
			         2.24667	-2.60000e+01	
			         2.24833	-2.50000e+01	
			         2.25000	-2.40000e+01	
			         2.25167	-2.40000e+01	
			         2.25333	-2.30000e+01	
			         2.25500	-2.30000e+01	
			         2.25667	-2.30000e+01	
			         2.25833	-2.20000e+01	
			         2.26000	-2.20000e+01	
			         2.26167	-2.10000e+01	
			         2.26333	-2.10000e+01	
			         2.26500	-2.10000e+01	
			         2.26667	-2.00000e+01	
			         2.26833	-2.00000e+01	
			         2.27000	-1.90000e+01	
			         2.27167	-1.90000e+01	
			         2.27333	-1.80000e+01	
			         2.27500	-1.70000e+01	
			         2.27667	-1.70000e+01	
			         2.27833	-1.60000e+01	
			         2.28000	-1.50000e+01	
			         2.28167	-1.40000e+01	
			         2.28333	-1.40000e+01	
			         2.28500	-1.30000e+01	
			         2.28667	-1.30000e+01	
			         2.28833	-1.20000e+01	
			         2.29000	-1.20000e+01	
			         2.29167	-1.10000e+01	
			         2.29333	-1.10000e+01	
			         2.29500	-1.10000e+01	
			         2.29667	-1.10000e+01	
			         2.29833	-1.10000e+01	
			         2.30000	-1.10000e+01	
			         2.30167	-1.10000e+01	
			         2.30333	-1.10000e+01	
			         2.30500	-1.10000e+01	
			         2.30667	-1.00000e+01	
			         2.30833	-1.00000e+01	
			         2.31000	-1.00000e+01	
			         2.31167	-9.00000e+00	
			         2.31333	-9.00000e+00	
			         2.31500	-8.00000e+00	
			         2.31667	-8.00000e+00	
			         2.31833	-7.00000e+00	
			         2.32000	-7.00000e+00	
			         2.32167	-7.00000e+00	
			         2.32333	-6.00000e+00	
			         2.32500	-6.00000e+00	
			         2.32667	-7.00000e+00	
			         2.32833	-7.00000e+00	
			         2.33000	-7.00000e+00	
			         2.33167	-7.00000e+00	
			         2.33333	-7.00000e+00	
			         2.33500	-8.00000e+00	
			         2.33667	-8.00000e+00	
			         2.33833	-8.00000e+00	
			         2.34000	-8.00000e+00	
			         2.34167	-8.00000e+00	
			         2.34333	-8.00000e+00	
			         2.34500	-9.00000e+00	
			         2.34667	-9.00000e+00	
			         2.34833	-9.00000e+00	
			         2.35000	-9.00000e+00	
			         2.35167	-9.00000e+00	
			         2.35333	-9.00000e+00	
			         2.35500	-9.00000e+00	
			         2.35667	-8.00000e+00	
			         2.35833	-8.00000e+00	
			         2.36000	-8.00000e+00	
			         2.36167	-8.00000e+00	
			         2.36333	-8.00000e+00	
			         2.36500	-8.00000e+00	
			         2.36667	-7.00000e+00	
			         2.36833	-7.00000e+00	
			         2.37000	-7.00000e+00	
			         2.37167	-7.00000e+00	
			         2.37333	-7.00000e+00	
			         2.37500	-7.00000e+00	
			         2.37667	-7.00000e+00	
			         2.37833	-7.00000e+00	
			         2.38000	-7.00000e+00	
			         2.38167	-7.00000e+00	
			         2.38333	-7.00000e+00	
			         2.38500	-7.00000e+00	
			         2.38667	-7.00000e+00	
			         2.38833	-7.00000e+00	
			         2.39000	-7.00000e+00	
			         2.39167	-7.00000e+00	
			         2.39333	-7.00000e+00	
			         2.39500	-7.00000e+00	
			         2.39667	-7.00000e+00	
			         2.39833	-7.00000e+00	
			         2.40000	-6.00000e+00	
			         2.40167	-6.00000e+00	
			         2.40333	-6.00000e+00	
			         2.40500	-7.00000e+00	
			         2.40667	-7.00000e+00	
			         2.40833	-7.00000e+00	
			         2.41000	-7.00000e+00	
			         2.41167	-7.00000e+00	
			         2.41333	-7.00000e+00	
			         2.41500	-6.00000e+00	
			         2.41667	-6.00000e+00	
			         2.41833	-6.00000e+00	
			         2.42000	-6.00000e+00	
			         2.42167	-6.00000e+00	
			         2.42333	-6.00000e+00	
			         2.42500	-5.00000e+00	
			         2.42667	-5.00000e+00	
			         2.42833	-5.00000e+00	
			         2.43000	-5.00000e+00	
			         2.43167	-5.00000e+00	
			         2.43333	-5.00000e+00	
			         2.43500	-5.00000e+00	
			         2.43667	-5.00000e+00	
			         2.43833	-5.00000e+00	
			         2.44000	-5.00000e+00	
			         2.44167	-5.00000e+00	
			         2.44333	-4.00000e+00	
			         2.44500	-4.00000e+00	
			         2.44667	-4.00000e+00	
			         2.44833	-4.00000e+00	
			         2.45000	-4.00000e+00	
			         2.45167	-3.00000e+00	
			         2.45333	-3.00000e+00	
			         2.45500	-3.00000e+00	
			         2.45667	-3.00000e+00	
			         2.45833	-2.00000e+00	
			         2.46000	-2.00000e+00	
			         2.46167	-2.00000e+00	
			         2.46333	-2.00000e+00	
			         2.46500	-2.00000e+00	
			         2.46667	-2.00000e+00	
			         2.46833	-1.00000e+00	
			         2.47000	-1.00000e+00	
			         2.47167	-1.00000e+00	
			         2.47333	-1.00000e+00	
			         2.47500	-1.00000e+00	
			         2.47667	-2.00000e+00	
			         2.47833	-2.00000e+00	
			         2.48000	-2.00000e+00	
			         2.48167	-2.00000e+00	
			         2.48333	-2.00000e+00	
			         2.48500	-2.00000e+00	
			         2.48667	-2.00000e+00	
			         2.48833	-2.00000e+00	
			         2.49000	-2.00000e+00	
			         2.49167	-2.00000e+00	
			         2.49333	-2.00000e+00	
			         2.49500	-2.00000e+00	
			         2.49667	-2.00000e+00	
			         2.49833	-1.00000e+00	
			         2.50000	-1.00000e+00	
			         2.50167	-1.00000e+00	
			         2.50333	-1.00000e+00	
			         2.50500	-1.00000e+00	
			         2.50667	-1.00000e+00	
			         2.50833	-2.00000e+00	
			         2.51000	-2.00000e+00	
			         2.51167	-2.00000e+00	
			         2.51333	-3.00000e+00	
			         2.51500	-3.00000e+00	
			         2.51667	-3.00000e+00	
			         2.51833	-3.00000e+00	
			         2.52000	-4.00000e+00	
			         2.52167	-4.00000e+00	
			         2.52333	-4.00000e+00	
			         2.52500	-4.00000e+00	
			         2.52667	-5.00000e+00	
			         2.52833	-5.00000e+00	
			         2.53000	-5.00000e+00	
			         2.53167	-5.00000e+00	
			         2.53333	-5.00000e+00	
			         2.53500	-5.00000e+00	
			         2.53667	-5.00000e+00	
			         2.53833	-5.00000e+00	
			         2.54000	-5.00000e+00	
			         2.54167	-4.00000e+00	
			         2.54333	-3.00000e+00	
			         2.54500	-1.00000e+00	
			         2.54667	1.00000e+00	
			         2.54833	3.00000e+00	
			         2.55000	5.00000e+00	
			         2.55167	8.00000e+00	
			         2.55333	1.20000e+01	
			         2.55500	1.50000e+01	
			         2.55667	1.90000e+01	
			         2.55833	2.20000e+01	
			         2.56000	2.60000e+01	
			         2.56167	2.90000e+01	
			         2.56333	3.10000e+01	
			         2.56500	3.30000e+01	
			         2.56667	3.40000e+01	
			         2.56833	3.50000e+01	
			         2.57000	3.50000e+01	
			         2.57167	3.30000e+01	
			         2.57333	3.10000e+01	
			         2.57500	2.90000e+01	
			         2.57667	2.60000e+01	
			         2.57833	2.20000e+01	
			         2.58000	1.80000e+01	
			         2.58167	1.50000e+01	
			         2.58333	1.10000e+01	
			         2.58500	8.00000e+00	
			         2.58667	5.00000e+00	
			         2.58833	3.00000e+00	
			         2.59000	1.00000e+00	
			         2.59167	-1.00000e+00	
			         2.59333	-2.00000e+00	
			         2.59500	-3.00000e+00	
			         2.59667	-3.00000e+00	
			         2.59833	-4.00000e+00	
			         2.60000	-5.00000e+00	
			         2.60167	-7.00000e+00	
			         2.60333	-8.00000e+00	
			         2.60500	-1.10000e+01	
			         2.60667	-1.40000e+01	
			         2.60833	-1.70000e+01	
			         2.61000	-2.00000e+01	
			         2.61167	-2.30000e+01	
			         2.61333	-2.60000e+01	
			         2.61500	-2.80000e+01	
			         2.61667	-3.10000e+01	
			         2.61833	-3.20000e+01	
			         2.62000	-3.30000e+01	
			         2.62167	-3.40000e+01	
			         2.62333	-3.40000e+01	
			         2.62500	-3.20000e+01	
			         2.62667	-3.10000e+01	
			         2.62833	-2.90000e+01	
			         2.63000	-2.60000e+01	
			         2.63167	-2.30000e+01	
			         2.63333	-2.00000e+01	
			         2.63500	-1.70000e+01	
			         2.63667	-1.40000e+01	
			         2.63833	-1.10000e+01	
			         2.64000	-9.00000e+00	
			         2.64167	-7.00000e+00	
			         2.64333	-5.00000e+00	
			         2.64500	-4.00000e+00	
			         2.64667	-3.00000e+00	
			         2.64833	-3.00000e+00	
			         2.65000	-4.00000e+00	
			         2.65167	-4.00000e+00	
			         2.65333	-5.00000e+00	
			         2.65500	-6.00000e+00	
			         2.65667	-8.00000e+00	
			         2.65833	-9.00000e+00	
			         2.66000	-1.00000e+01	
			         2.66167	-1.10000e+01	
			         2.66333	-1.20000e+01	
			         2.66500	-1.20000e+01	
			         2.66667	-1.20000e+01	
			         2.66833	-1.20000e+01	
			         2.67000	-1.20000e+01	
			         2.67167	-1.20000e+01	
			         2.67333	-1.10000e+01	
			         2.67500	-1.00000e+01	
			         2.67667	-1.00000e+01	
			         2.67833	-9.00000e+00	
			         2.68000	-9.00000e+00	
			         2.68167	-8.00000e+00	
			         2.68333	-8.00000e+00	
			         2.68500	-8.00000e+00	
			         2.68667	-7.00000e+00	
			         2.68833	-7.00000e+00	
			         2.69000	-7.00000e+00	
			         2.69167	-8.00000e+00	
			         2.69333	-8.00000e+00	
			         2.69500	-8.00000e+00	
			         2.69667	-8.00000e+00	
			         2.69833	-8.00000e+00	
			         2.70000	-8.00000e+00	
			         2.70167	-8.00000e+00	
			         2.70333	-7.00000e+00	
			         2.70500	-7.00000e+00	
			         2.70667	-7.00000e+00	
			         2.70833	-6.00000e+00	
			         2.71000	-6.00000e+00	
			         2.71167	-5.00000e+00	
			         2.71333	-5.00000e+00	
			         2.71500	-5.00000e+00	
			         2.71667	-5.00000e+00	
			         2.71833	-5.00000e+00	
			         2.72000	-5.00000e+00	
			         2.72167	-5.00000e+00	
			         2.72333	-5.00000e+00	
			         2.72500	-5.00000e+00	
			         2.72667	-5.00000e+00	
			         2.72833	-5.00000e+00	
			         2.73000	-4.00000e+00	
			         2.73167	-3.00000e+00	
			         2.73333	-2.00000e+00	
			         2.73500	0.00000e+00	
			         2.73667	2.00000e+00	
			         2.73833	5.00000e+00	
			         2.74000	7.00000e+00	
			         2.74167	9.00000e+00	
			         2.74333	1.10000e+01	
			         2.74500	1.10000e+01	
			         2.74667	1.00000e+01	
			         2.74833	7.00000e+00	
			         2.75000	2.00000e+00	
			         2.75167	-6.00000e+00	
			         2.75333	-1.60000e+01	
			         2.75500	-2.70000e+01	
			         2.75667	-3.80000e+01	
			         2.75833	-5.00000e+01	
			         2.76000	-6.00000e+01	
			         2.76167	-6.90000e+01	
			         2.76333	-7.50000e+01	
			         2.76500	-7.80000e+01	
			         2.76667	-7.70000e+01	
			         2.76833	-7.10000e+01	
			         2.77000	-6.00000e+01	
			         2.77167	-4.60000e+01	
			         2.77333	-2.70000e+01	
			         2.77500	-7.00000e+00	
			         2.77667	1.60000e+01	
			         2.77833	3.80000e+01	
			         2.78000	6.10000e+01	
			         2.78167	8.20000e+01	
			         2.78333	1.02000e+02	
			         2.78500	1.19000e+02	
			         2.78667	1.34000e+02	
			         2.78833	1.44000e+02	
			         2.79000	1.51000e+02	
			         2.79167	1.53000e+02	
			         2.79333	1.52000e+02	
			         2.79500	1.47000e+02	
			         2.79667	1.40000e+02	
			         2.79833	1.30000e+02	
			         2.80000	1.19000e+02	
			         2.80167	1.05000e+02	
			         2.80333	9.10000e+01	
			         2.80500	7.60000e+01	
			         2.80667	6.10000e+01	
			         2.80833	4.70000e+01	
			         2.81000	3.40000e+01	
			         2.81167	2.20000e+01	
			         2.81333	1.20000e+01	
			         2.81500	4.00000e+00	
			         2.81667	-3.00000e+00	
			         2.81833	-7.00000e+00	
			         2.82000	-1.10000e+01	
			         2.82167	-1.30000e+01	
			         2.82333	-1.40000e+01	
			         2.82500	-1.50000e+01	
			         2.82667	-1.50000e+01	
