Velocity (TVI), in cm/s

Time (s) :	Trace 1 : 		Ecg : 		
0.00069   	-2.76829e+00		         0.00000	1.98000e+02	
0.01010   	-2.11613e+00		         0.00167	2.06000e+02	
0.01920   	1.87343e-01		         0.00333	2.09000e+02	
0.02832   	2.32979e+00		         0.00500	2.10000e+02	
0.03745   	2.90721e+00		         0.00667	2.06000e+02	
0.04686   	-9.46921e-02		         0.00833	1.98000e+02	
0.05596   	-2.91433e+00		         0.01000	1.87000e+02	
0.06509   	-4.55042e+00		         0.01167	1.73000e+02	
0.07421   	-1.46073e+00		         0.01333	1.55000e+02	
0.08361   	1.12091e+00		         0.01500	1.36000e+02	
0.09272   	4.13609e+00		         0.01667	1.15000e+02	
0.10184   	4.22996e+00		         0.01833	9.30000e+01	
0.11096   	4.19777e+00		         0.02000	7.10000e+01	
0.12037   	3.83474e+00		         0.02167	4.90000e+01	
0.12948   	4.20610e+00		         0.02333	2.70000e+01	
0.13860   	4.61783e+00		         0.02500	7.00000e+00	
0.14772   	5.06122e+00		         0.02667	-1.20000e+01	
0.15714   	5.20081e+00		         0.02833	-2.90000e+01	
0.16624   	5.11623e+00		         0.03000	-4.40000e+01	
0.17536   	5.27394e+00		         0.03167	-5.70000e+01	
0.18448   	5.08007e+00		         0.03333	-6.80000e+01	
0.19389   	4.80133e+00		         0.03500	-7.60000e+01	
0.20299   	4.30098e+00		         0.03667	-8.30000e+01	
0.21211   	4.18732e+00		         0.03833	-8.80000e+01	
0.22124   	4.33340e+00		         0.04000	-9.10000e+01	
0.23066   	4.40547e+00		         0.04167	-9.20000e+01	
0.23975   	4.42951e+00		         0.04333	-9.20000e+01	
0.24887   	4.33029e+00		         0.04500	-9.10000e+01	
0.25799   	4.11544e+00		         0.04667	-8.90000e+01	
0.26740   	3.95574e+00		         0.04833	-8.60000e+01	
0.27651   	3.75129e+00		         0.05000	-8.30000e+01	
0.28563   	3.63649e+00		         0.05167	-7.90000e+01	
0.29475   	3.33791e+00		         0.05333	-7.50000e+01	
0.30417   	3.02385e+00		         0.05500	-7.20000e+01	
0.31326   	2.62639e+00		         0.05667	-6.80000e+01	
0.32239   	2.41072e+00		         0.05833	-6.50000e+01	
0.33151   	2.27509e+00		         0.06000	-6.20000e+01	
0.34092   	2.19629e+00		         0.06167	-5.90000e+01	
0.35002   	1.89359e+00		         0.06333	-5.60000e+01	
0.35914   	1.57624e+00		         0.06500	-5.40000e+01	
0.36827   	1.02857e+00		         0.06667	-5.20000e+01	
0.37767   	4.31669e-01		         0.06833	-5.00000e+01	
0.38678   	5.28545e-01		         0.07000	-4.80000e+01	
0.39590   	1.08839e+00		         0.07167	-4.60000e+01	
0.40502   	2.01225e+00		         0.07333	-4.50000e+01	
0.41443   	1.99000e+00		         0.07500	-4.30000e+01	
0.42354   	2.05387e+00		         0.07667	-4.20000e+01	
0.43266   	2.19747e+00		         0.07833	-4.00000e+01	
0.44178   	2.59152e+00		         0.08000	-3.90000e+01	
0.45118   	3.05105e+00		         0.08167	-3.70000e+01	
0.46029   	3.40210e+00		         0.08333	-3.50000e+01	
0.46942   	3.38447e+00		         0.08500	-3.40000e+01	
0.47854   	2.73692e+00		         0.08667	-3.30000e+01	
0.48794   	1.15992e+00		         0.08833	-3.20000e+01	
0.49705   	-1.45674e-01		         0.09000	-3.10000e+01	
0.50618   	-1.62051e+00		         0.09167	-3.00000e+01	
0.51530   	-2.38822e+00		         0.09333	-2.90000e+01	
0.52470   	-2.92978e+00		         0.09500	-2.80000e+01	
0.53381   	-3.00950e+00		         0.09667	-2.80000e+01	
0.54293   	-2.91103e+00		         0.09833	-2.70000e+01	
0.55206   	-2.87316e+00		         0.10000	-2.70000e+01	
0.56147   	-2.87775e+00		         0.10167	-2.60000e+01	
0.57057   	-2.81000e+00		         0.10333	-2.60000e+01	
0.57969   	-2.71339e+00		         0.10500	-2.50000e+01	
0.58881   	-2.53780e+00		         0.10667	-2.50000e+01	
0.59822   	-2.33421e+00		         0.10833	-2.40000e+01	
0.60732   	-2.18612e+00		         0.11000	-2.30000e+01	
0.61645   	-2.00763e+00		         0.11167	-2.20000e+01	
0.62557   	-1.84474e+00		         0.11333	-2.10000e+01	
0.63497   	-1.76831e+00		         0.11500	-2.00000e+01	
0.64408   	-1.63086e+00		         0.11667	-2.00000e+01	
0.65321   	-1.49529e+00		         0.11833	-1.90000e+01	
0.66233   	-1.17695e+00		         0.12000	-1.80000e+01	
0.67174   	-8.66081e-01		         0.12167	-1.70000e+01	
0.68084   	-6.49273e-01		         0.12333	-1.60000e+01	
0.68996   	-4.13118e-01		         0.12500	-1.60000e+01	
0.69909   	-5.62344e-01		         0.12667	-1.50000e+01	
0.70856   	-7.13824e-01		         0.12833	-1.50000e+01	
0.71760   	-1.31446e+00		         0.13000	-1.40000e+01	
0.72672   	-2.64420e+00		         0.13167	-1.40000e+01	
0.73584   	-4.75780e+00		         0.13333	-1.30000e+01	
0.74525   	-7.10994e+00		         0.13500	-1.30000e+01	
0.75435   	-8.87110e+00		         0.13667	-1.20000e+01	
0.76348   	-9.85633e+00		         0.13833	-1.10000e+01	
0.77260   	-1.02028e+01		         0.14000	-1.10000e+01	
0.78201   	-9.75416e+00		         0.14167	-1.00000e+01	
0.79111   	-8.67368e+00		         0.14333	-1.00000e+01	
0.80023   	-7.44662e+00		         0.14500	-9.00000e+00	
0.80936   	-5.89913e+00		         0.14667	-9.00000e+00	
0.81876   	-4.48878e+00		         0.14833	-8.00000e+00	
0.82787   	-2.50950e+00		         0.15000	-7.00000e+00	
0.83699   	5.81313e-02		         0.15167	-7.00000e+00	
0.84612   	2.21168e+00		         0.15333	-6.00000e+00	
0.85552   	2.69557e+00		         0.15500	-6.00000e+00	
0.86463   	1.14479e-02		         0.15667	-6.00000e+00	
0.87375   	-2.56696e+00		         0.15833	-5.00000e+00	
0.88287   	-3.80733e+00		         0.16000	-5.00000e+00	
0.89228   	-3.22121e+00		         0.16167	-5.00000e+00	
0.90138   	-1.02602e+00		         0.16333	-4.00000e+00	
0.91051   	1.61310e+00		         0.16500	-4.00000e+00	
0.91963   	4.13981e+00		         0.16667	-3.00000e+00	
0.92904   	4.92856e+00		         0.16833	-3.00000e+00	
0.93814   	4.87645e+00		         0.17000	-3.00000e+00	
0.94726   	4.74227e+00		         0.17167	-2.00000e+00	
0.95638   	4.73507e+00		         0.17333	-1.00000e+00	
0.96580   	4.54949e+00		         0.17500	-1.00000e+00	
0.97490   	4.84488e+00		         0.17667	0.00000e+00	
0.98402   	4.88785e+00		         0.17833	1.00000e+00	
0.99314   	4.95533e+00		         0.18000	2.00000e+00	
1.00256   	4.70979e+00		         0.18167	2.00000e+00	
1.01166   	4.57909e+00		         0.18333	3.00000e+00	
1.02078   	4.59784e+00		         0.18500	4.00000e+00	
1.02990   	4.66160e+00		         0.18667	5.00000e+00	
1.03930   	4.62925e+00		         0.18833	6.00000e+00	
1.04841   	4.56565e+00		         0.19000	6.00000e+00	
1.05754   	4.50316e+00		         0.19167	7.00000e+00	
1.06666   	4.42571e+00		         0.19333	8.00000e+00	
1.07606   	4.30718e+00		         0.19500	9.00000e+00	
1.08518   	4.15608e+00		         0.19667	9.00000e+00	
1.09429   	3.96859e+00		         0.19833	1.00000e+01	
1.10342   	3.77710e+00		         0.20000	1.10000e+01	
1.11283   	3.46795e+00		         0.20167	1.20000e+01	
1.12193   	3.14273e+00		         0.20333	1.30000e+01	
1.13105   	2.82014e+00		         0.20500	1.50000e+01	
1.14017   	2.55006e+00		         0.20667	1.60000e+01	
1.14958   	2.22067e+00		         0.20833	1.80000e+01	
1.15869   	1.84283e+00		         0.21000	2.00000e+01	
1.16781   	1.54435e+00		         0.21167	2.20000e+01	
1.17693   	1.14177e+00		         0.21333	2.40000e+01	
1.18634   	6.20636e-01		         0.21500	2.70000e+01	
1.19545   	-1.79095e-01		         0.21667	2.90000e+01	
1.20456   	-6.32274e-01		         0.21833	3.20000e+01	
1.21369   	-1.20643e-01		         0.22000	3.50000e+01	
1.22312   	8.68765e-01		         0.22167	3.70000e+01	
1.23220   	1.52477e+00		         0.22333	4.00000e+01	
1.24132   	1.52431e+00		         0.22500	4.30000e+01	
1.25045   	1.85769e+00		         0.22667	4.50000e+01	
1.25985   	2.69062e+00		         0.22833	4.80000e+01	
1.26896   	3.57969e+00		         0.23000	5.10000e+01	
1.27807   	3.87763e+00		         0.23167	5.40000e+01	
1.28720   	3.45951e+00		         0.23333	5.70000e+01	
1.29661   	2.45698e+00		         0.23500	6.00000e+01	
1.30572   	7.13950e-01		         0.23667	6.30000e+01	
1.31484   	-1.07508e+00		         0.23833	6.60000e+01	
1.32396   	-2.47132e+00		         0.24000	6.90000e+01	
1.33337   	-3.33045e+00		         0.24167	7.20000e+01	
1.34247   	-3.48326e+00		         0.24333	7.50000e+01	
1.35160   	-3.54947e+00		         0.24500	7.80000e+01	
1.36072   	-3.26851e+00		         0.24667	8.10000e+01	
1.37013   	-3.10327e+00		         0.24833	8.40000e+01	
1.37924   	-2.92193e+00		         0.25000	8.70000e+01	
1.38835   	-2.79522e+00		         0.25167	8.90000e+01	
1.39748   	-2.60812e+00		         0.25333	9.20000e+01	
1.40688   	-2.58371e+00		         0.25500	9.40000e+01	
1.41599   	-2.34511e+00		         0.25667	9.60000e+01	
1.42511   	-2.28920e+00		         0.25833	9.80000e+01	
1.43423   	-2.15766e+00		         0.26000	1.00000e+02	
1.44364   	-2.06968e+00		         0.26167	1.02000e+02	
1.45275   	-1.89632e+00		         0.26333	1.03000e+02	
1.46187   	-1.64025e+00		         0.26500	1.05000e+02	
1.47099   	-1.41640e+00		         0.26667	1.06000e+02	
1.48039   	-1.18898e+00		         0.26833	1.06000e+02	
1.48950   	-1.00562e+00		         0.27000	1.07000e+02	
1.49863   	-7.49990e-01		         0.27167	1.07000e+02	
1.50775   	-5.00786e-01		         0.27333	1.07000e+02	
1.51717   	-3.86427e-01		         0.27500	1.07000e+02	
1.52627   	-5.88889e-01		         0.27667	1.07000e+02	
1.53538   	-1.16843e+00		         0.27833	1.06000e+02	
1.54451   	-2.45061e+00		         0.28000	1.05000e+02	
1.55391   	-4.51857e+00		         0.28167	1.04000e+02	
1.56302   	-6.87455e+00		         0.28333	1.03000e+02	
1.57214   	-8.96254e+00		         0.28500	1.01000e+02	
1.58127   	-1.01035e+01		         0.28667	9.90000e+01	
1.59066   	-1.05446e+01		         0.28833	9.60000e+01	
1.59978   	-9.88219e+00		         0.29000	9.30000e+01	
1.60890   	-8.97260e+00		         0.29167	9.00000e+01	
1.61802   	-7.67114e+00		         0.29333	8.70000e+01	
1.62744   	-6.33033e+00		         0.29500	8.30000e+01	
1.63653   	-4.69477e+00		         0.29667	7.80000e+01	
1.64566   	-3.04148e+00		         0.29833	7.40000e+01	
1.65489   	-6.67019e-01		         0.30000	6.90000e+01	
1.66418   	1.53672e+00		         0.30167	6.30000e+01	
1.67329   	2.81919e+00		         0.30333	5.80000e+01	
1.68241   	4.26462e-01		         0.30500	5.20000e+01	
1.69153   	-2.23790e+00		         0.30667	4.60000e+01	
1.70094   	-5.03163e+00		         0.30833	4.00000e+01	
1.71005   	-3.63936e+00		         0.31000	3.30000e+01	
1.71917   	-1.51285e+00		         0.31167	2.70000e+01	
1.72829   	1.72384e+00		         0.31333	2.10000e+01	
1.73769   	3.70290e+00		         0.31500	1.40000e+01	
1.74681   	4.69158e+00		         0.31667	8.00000e+00	
1.75593   	5.06849e+00		         0.31833	2.00000e+00	
1.76505   	4.72578e+00		         0.32000	-4.00000e+00	
1.77445   	4.71433e+00		         0.32167	-1.00000e+01	
1.78356   	4.77621e+00		         0.32333	-1.60000e+01	
1.79269   	5.08369e+00		         0.32500	-2.20000e+01	
1.80181   	5.04864e+00		         0.32667	-2.80000e+01	
1.81121   	4.98547e+00		         0.32833	-3.30000e+01	
1.82032   	4.80566e+00		         0.33000	-3.90000e+01	
1.82945   	4.76558e+00		         0.33167	-4.40000e+01	
1.83857   	4.77803e+00		         0.33333	-4.80000e+01	
1.84798   	4.72867e+00		         0.33500	-5.30000e+01	
1.85707   	4.61723e+00		         0.33667	-5.70000e+01	
1.86620   	4.49765e+00		         0.33833	-6.00000e+01	
1.87533   	4.44969e+00		         0.34000	-6.40000e+01	
1.88473   	4.40408e+00		         0.34167	-6.70000e+01	
1.89384   	4.31175e+00		         0.34333	-6.90000e+01	
1.90296   	4.17960e+00		         0.34500	-7.20000e+01	
1.91207   	4.00898e+00		         0.34667	-7.40000e+01	
1.92149   	3.77617e+00		         0.34833	-7.50000e+01	
1.93059   	3.54309e+00		         0.35000	-7.70000e+01	
1.93972   	3.26027e+00		         0.35167	-7.80000e+01	
1.94884   	2.96057e+00		         0.35333	-7.90000e+01	
1.95826   	2.61814e+00		         0.35500	-8.00000e+01	
1.96735   	2.36773e+00		         0.35667	-8.10000e+01	
1.97647   	2.11662e+00		         0.35833	-8.20000e+01	
1.98559   	1.76137e+00		         0.36000	-8.20000e+01	
1.99500   	1.38029e+00		         0.36167	-8.30000e+01	
2.00411   	7.40351e-01		         0.36333	-8.30000e+01	
2.01323   	1.16277e-01		         0.36500	-8.30000e+01	
2.02235   	-7.87164e-01		         0.36667	-8.30000e+01	
2.03176   	-8.74691e-01		         0.36833	-8.30000e+01	
2.04087   	-3.25798e-01		         0.37000	-8.30000e+01	
2.04999   	6.03367e-01		         0.37167	-8.20000e+01	
2.05911   	1.25742e+00		         0.37333	-8.20000e+01	
2.06853   	1.79638e+00		         0.37500	-8.10000e+01	
2.07762   	2.67835e+00		         0.37667	-8.00000e+01	
2.08674   	3.43911e+00		         0.37833	-7.90000e+01	
2.09587   	3.78205e+00		         0.38000	-7.80000e+01	
2.10527   	3.60388e+00		         0.38167	-7.70000e+01	
2.11438   	2.84537e+00		         0.38333	-7.60000e+01	
2.12350   	1.30666e+00		         0.38500	-7.50000e+01	
2.13263   	-9.17623e-01		         0.38667	-7.30000e+01	
2.14203   	-2.78691e+00		         0.38833	-7.20000e+01	
2.15114   	-3.84805e+00		         0.39000	-7.10000e+01	
2.16026   	-4.04622e+00		         0.39167	-7.00000e+01	
2.16941   	-3.95407e+00		         0.39333	-6.90000e+01	
2.17880   	-3.77254e+00		         0.39500	-6.80000e+01	
2.18790   	-3.60324e+00		         0.39667	-6.70000e+01	
2.19702   	-3.56229e+00		         0.39833	-6.60000e+01	
2.20614   	-3.07162e+00		         0.40000	-6.50000e+01	
2.21556   	-2.63394e+00		         0.40167	-6.40000e+01	
2.22465   	-2.40384e+00		         0.40333	-6.30000e+01	
2.23377   	-2.34407e+00		         0.40500	-6.20000e+01	
2.24290   	-2.27198e+00		         0.40667	-6.00000e+01	
2.25247   	-2.03808e+00		         0.40833	-5.90000e+01	
2.26141   	-2.02457e+00		         0.41000	-5.80000e+01	
2.27053   	-1.95669e+00		         0.41167	-5.60000e+01	
2.27966   	-1.85556e+00		         0.41333	-5.50000e+01	
2.28906   	-1.76509e+00		         0.41500	-5.40000e+01	
2.29817   	-1.69341e+00		         0.41667	-5.20000e+01	
2.30729   	-1.45410e+00		         0.41833	-5.10000e+01	
2.31641   	-1.16039e+00		         0.42000	-5.00000e+01	
2.32582   	-7.76522e-01		         0.42167	-4.90000e+01	
2.33492   	-5.14245e-01		         0.42333	-4.80000e+01	
2.34405   	-4.62399e-01		         0.42500	-4.70000e+01	
2.35317   	-6.50644e-01		         0.42667	-4.50000e+01	
2.36259   	-1.40358e+00		         0.42833	-4.40000e+01	
2.37168   	-3.05623e+00		         0.43000	-4.30000e+01	
2.38081   	-5.45750e+00		         0.43167	-4.20000e+01	
2.38993   	-7.85940e+00		         0.43333	-4.10000e+01	
2.39935   	-9.40488e+00		         0.43500	-4.00000e+01	
2.40844   	-1.01675e+01		         0.43667	-3.90000e+01	
2.41756   	-1.00936e+01		         0.43833	-3.80000e+01	
2.42669   	-9.47331e+00		         0.44000	-3.70000e+01	
2.43610   	-8.21972e+00		         0.44167	-3.50000e+01	
2.44520   	-6.95959e+00		         0.44333	-3.40000e+01	
2.45432   	-5.52748e+00		         0.44500	-3.30000e+01	
2.46344   	-4.36564e+00		         0.44667	-3.20000e+01	
2.47286   	-2.38325e+00		         0.44833	-3.10000e+01	
2.48195   	2.00237e-02		         0.45000	-3.00000e+01	
2.49107   	1.63992e+00		         0.45167	-2.90000e+01	
			         0.45333	-2.80000e+01	
			         0.45500	-2.70000e+01	
			         0.45667	-2.60000e+01	
			         0.45833	-2.60000e+01	
			         0.46000	-2.60000e+01	
			         0.46167	-2.50000e+01	
			         0.46333	-2.50000e+01	
			         0.46500	-2.50000e+01	
			         0.46667	-2.50000e+01	
			         0.46833	-2.50000e+01	
			         0.47000	-2.50000e+01	
			         0.47167	-2.50000e+01	
			         0.47333	-2.50000e+01	
			         0.47500	-2.50000e+01	
			         0.47667	-2.50000e+01	
			         0.47833	-2.50000e+01	
			         0.48000	-2.50000e+01	
			         0.48167	-2.40000e+01	
			         0.48333	-2.40000e+01	
			         0.48500	-2.30000e+01	
			         0.48667	-2.30000e+01	
			         0.48833	-2.20000e+01	
			         0.49000	-2.10000e+01	
			         0.49167	-2.00000e+01	
			         0.49333	-1.90000e+01	
			         0.49500	-1.90000e+01	
			         0.49667	-1.80000e+01	
			         0.49833	-1.70000e+01	
			         0.50000	-1.60000e+01	
			         0.50167	-1.60000e+01	
			         0.50333	-1.50000e+01	
			         0.50500	-1.50000e+01	
			         0.50667	-1.40000e+01	
			         0.50833	-1.40000e+01	
			         0.51000	-1.30000e+01	
			         0.51167	-1.30000e+01	
			         0.51333	-1.30000e+01	
			         0.51500	-1.20000e+01	
			         0.51667	-1.20000e+01	
			         0.51833	-1.20000e+01	
			         0.52000	-1.20000e+01	
			         0.52167	-1.10000e+01	
			         0.52333	-1.10000e+01	
			         0.52500	-1.10000e+01	
			         0.52667	-1.10000e+01	
			         0.52833	-1.10000e+01	
			         0.53000	-1.10000e+01	
			         0.53167	-1.10000e+01	
			         0.53333	-1.00000e+01	
			         0.53500	-1.00000e+01	
			         0.53667	-1.00000e+01	
			         0.53833	-1.00000e+01	
			         0.54000	-1.00000e+01	
			         0.54167	-1.00000e+01	
			         0.54333	-1.00000e+01	
			         0.54500	-1.00000e+01	
			         0.54667	-1.00000e+01	
			         0.54833	-1.00000e+01	
			         0.55000	-1.00000e+01	
			         0.55167	-1.00000e+01	
			         0.55333	-1.10000e+01	
			         0.55500	-1.10000e+01	
			         0.55667	-1.10000e+01	
			         0.55833	-1.10000e+01	
			         0.56000	-1.10000e+01	
			         0.56167	-1.10000e+01	
			         0.56333	-1.10000e+01	
			         0.56500	-1.10000e+01	
			         0.56667	-1.10000e+01	
			         0.56833	-1.00000e+01	
			         0.57000	-1.00000e+01	
			         0.57167	-9.00000e+00	
			         0.57333	-9.00000e+00	
			         0.57500	-8.00000e+00	
			         0.57667	-8.00000e+00	
			         0.57833	-7.00000e+00	
			         0.58000	-7.00000e+00	
			         0.58167	-7.00000e+00	
			         0.58333	-6.00000e+00	
			         0.58500	-6.00000e+00	
			         0.58667	-5.00000e+00	
			         0.58833	-5.00000e+00	
			         0.59000	-5.00000e+00	
			         0.59167	-5.00000e+00	
			         0.59333	-4.00000e+00	
			         0.59500	-4.00000e+00	
			         0.59667	-4.00000e+00	
			         0.59833	-4.00000e+00	
			         0.60000	-4.00000e+00	
			         0.60167	-4.00000e+00	
			         0.60333	-5.00000e+00	
			         0.60500	-5.00000e+00	
			         0.60667	-5.00000e+00	
			         0.60833	-5.00000e+00	
			         0.61000	-5.00000e+00	
			         0.61167	-5.00000e+00	
			         0.61333	-4.00000e+00	
			         0.61500	-4.00000e+00	
			         0.61667	-4.00000e+00	
			         0.61833	-3.00000e+00	
			         0.62000	-3.00000e+00	
			         0.62167	-3.00000e+00	
			         0.62333	-2.00000e+00	
			         0.62500	-2.00000e+00	
			         0.62667	-1.00000e+00	
			         0.62833	-1.00000e+00	
			         0.63000	-1.00000e+00	
			         0.63167	-1.00000e+00	
			         0.63333	0.00000e+00	
			         0.63500	0.00000e+00	
			         0.63667	0.00000e+00	
			         0.63833	1.00000e+00	
			         0.64000	1.00000e+00	
			         0.64167	2.00000e+00	
			         0.64333	3.00000e+00	
			         0.64500	4.00000e+00	
			         0.64667	6.00000e+00	
			         0.64833	8.00000e+00	
			         0.65000	1.00000e+01	
			         0.65167	1.30000e+01	
			         0.65333	1.60000e+01	
			         0.65500	1.90000e+01	
			         0.65667	2.20000e+01	
			         0.65833	2.50000e+01	
			         0.66000	2.80000e+01	
			         0.66167	3.10000e+01	
			         0.66333	3.40000e+01	
			         0.66500	3.70000e+01	
			         0.66667	4.00000e+01	
			         0.66833	4.20000e+01	
			         0.67000	4.50000e+01	
			         0.67167	4.60000e+01	
			         0.67333	4.80000e+01	
			         0.67500	4.80000e+01	
			         0.67667	4.90000e+01	
			         0.67833	4.80000e+01	
			         0.68000	4.60000e+01	
			         0.68167	4.40000e+01	
			         0.68333	4.20000e+01	
			         0.68500	3.80000e+01	
			         0.68667	3.40000e+01	
			         0.68833	2.90000e+01	
			         0.69000	2.40000e+01	
			         0.69167	1.90000e+01	
			         0.69333	1.40000e+01	
			         0.69500	8.00000e+00	
			         0.69667	3.00000e+00	
			         0.69833	-1.00000e+00	
			         0.70000	-5.00000e+00	
			         0.70167	-9.00000e+00	
			         0.70333	-1.20000e+01	
			         0.70500	-1.40000e+01	
			         0.70667	-1.60000e+01	
			         0.70833	-1.70000e+01	
			         0.71000	-1.80000e+01	
			         0.71167	-1.80000e+01	
			         0.71333	-1.80000e+01	
			         0.71500	-1.70000e+01	
			         0.71667	-1.60000e+01	
			         0.71833	-1.50000e+01	
			         0.72000	-1.30000e+01	
			         0.72167	-1.20000e+01	
			         0.72333	-1.00000e+01	
			         0.72500	-9.00000e+00	
			         0.72667	-8.00000e+00	
			         0.72833	-7.00000e+00	
			         0.73000	-6.00000e+00	
			         0.73167	-6.00000e+00	
			         0.73333	-6.00000e+00	
			         0.73500	-6.00000e+00	
			         0.73667	-7.00000e+00	
			         0.73833	-8.00000e+00	
			         0.74000	-9.00000e+00	
			         0.74167	-1.10000e+01	
			         0.74333	-1.30000e+01	
			         0.74500	-1.50000e+01	
			         0.74667	-1.70000e+01	
			         0.74833	-1.90000e+01	
			         0.75000	-2.10000e+01	
			         0.75167	-2.20000e+01	
			         0.75333	-2.30000e+01	
			         0.75500	-2.40000e+01	
			         0.75667	-2.50000e+01	
			         0.75833	-2.50000e+01	
			         0.76000	-2.50000e+01	
			         0.76167	-2.40000e+01	
			         0.76333	-2.40000e+01	
			         0.76500	-2.30000e+01	
			         0.76667	-2.20000e+01	
			         0.76833	-2.10000e+01	
			         0.77000	-1.90000e+01	
			         0.77167	-1.80000e+01	
			         0.77333	-1.70000e+01	
			         0.77500	-1.60000e+01	
			         0.77667	-1.40000e+01	
			         0.77833	-1.30000e+01	
			         0.78000	-1.20000e+01	
			         0.78167	-1.10000e+01	
			         0.78333	-9.00000e+00	
			         0.78500	-7.00000e+00	
			         0.78667	-5.00000e+00	
			         0.78833	-1.00000e+00	
			         0.79000	3.00000e+00	
			         0.79167	8.00000e+00	
			         0.79333	1.40000e+01	
			         0.79500	2.10000e+01	
			         0.79667	2.90000e+01	
			         0.79833	3.80000e+01	
			         0.80000	4.80000e+01	
			         0.80167	5.90000e+01	
			         0.80333	7.20000e+01	
			         0.80500	8.50000e+01	
			         0.80667	1.00000e+02	
			         0.80833	1.15000e+02	
			         0.81000	1.30000e+02	
			         0.81167	1.45000e+02	
			         0.81333	1.59000e+02	
			         0.81500	1.72000e+02	
			         0.81667	1.84000e+02	
			         0.81833	1.93000e+02	
			         0.82000	2.00000e+02	
			         0.82167	2.05000e+02	
			         0.82333	2.06000e+02	
			         0.82500	2.03000e+02	
			         0.82667	1.98000e+02	
			         0.82833	1.89000e+02	
			         0.83000	1.76000e+02	
			         0.83167	1.62000e+02	
			         0.83333	1.45000e+02	
			         0.83500	1.27000e+02	
			         0.83667	1.08000e+02	
			         0.83833	8.80000e+01	
			         0.84000	6.90000e+01	
			         0.84167	4.90000e+01	
			         0.84333	3.10000e+01	
			         0.84500	1.30000e+01	
			         0.84667	-3.00000e+00	
			         0.84833	-1.80000e+01	
			         0.85000	-3.10000e+01	
			         0.85167	-4.30000e+01	
			         0.85333	-5.20000e+01	
			         0.85500	-6.00000e+01	
			         0.85667	-6.60000e+01	
			         0.85833	-7.10000e+01	
			         0.86000	-7.40000e+01	
			         0.86167	-7.60000e+01	
			         0.86333	-7.70000e+01	
			         0.86500	-7.70000e+01	
			         0.86667	-7.60000e+01	
			         0.86833	-7.40000e+01	
			         0.87000	-7.20000e+01	
			         0.87167	-6.90000e+01	
			         0.87333	-6.60000e+01	
			         0.87500	-6.40000e+01	
			         0.87667	-6.10000e+01	
			         0.87833	-5.90000e+01	
			         0.88000	-5.60000e+01	
			         0.88167	-5.40000e+01	
			         0.88333	-5.20000e+01	
			         0.88500	-5.00000e+01	
			         0.88667	-4.80000e+01	
			         0.88833	-4.70000e+01	
			         0.89000	-4.50000e+01	
			         0.89167	-4.40000e+01	
			         0.89333	-4.20000e+01	
			         0.89500	-4.10000e+01	
			         0.89667	-4.00000e+01	
			         0.89833	-3.90000e+01	
			         0.90000	-3.70000e+01	
			         0.90167	-3.60000e+01	
			         0.90333	-3.50000e+01	
			         0.90500	-3.40000e+01	
			         0.90667	-3.30000e+01	
			         0.90833	-3.20000e+01	
			         0.91000	-3.10000e+01	
			         0.91167	-2.90000e+01	
			         0.91333	-2.80000e+01	
			         0.91500	-2.70000e+01	
			         0.91667	-2.60000e+01	
			         0.91833	-2.50000e+01	
			         0.92000	-2.30000e+01	
			         0.92167	-2.20000e+01	
			         0.92333	-2.20000e+01	
			         0.92500	-2.10000e+01	
			         0.92667	-2.00000e+01	
			         0.92833	-1.90000e+01	
			         0.93000	-1.90000e+01	
			         0.93167	-1.80000e+01	
			         0.93333	-1.80000e+01	
			         0.93500	-1.70000e+01	
			         0.93667	-1.70000e+01	
			         0.93833	-1.60000e+01	
			         0.94000	-1.60000e+01	
			         0.94167	-1.50000e+01	
			         0.94333	-1.50000e+01	
			         0.94500	-1.40000e+01	
			         0.94667	-1.40000e+01	
			         0.94833	-1.30000e+01	
			         0.95000	-1.30000e+01	
			         0.95167	-1.20000e+01	
			         0.95333	-1.20000e+01	
			         0.95500	-1.10000e+01	
			         0.95667	-1.10000e+01	
			         0.95833	-1.00000e+01	
			         0.96000	-1.00000e+01	
			         0.96167	-9.00000e+00	
			         0.96333	-9.00000e+00	
			         0.96500	-9.00000e+00	
			         0.96667	-8.00000e+00	
			         0.96833	-8.00000e+00	
			         0.97000	-7.00000e+00	
			         0.97167	-6.00000e+00	
			         0.97333	-5.00000e+00	
			         0.97500	-5.00000e+00	
			         0.97667	-4.00000e+00	
			         0.97833	-3.00000e+00	
			         0.98000	-2.00000e+00	
			         0.98167	-1.00000e+00	
			         0.98333	-1.00000e+00	
			         0.98500	0.00000e+00	
			         0.98667	1.00000e+00	
			         0.98833	2.00000e+00	
			         0.99000	3.00000e+00	
			         0.99167	4.00000e+00	
			         0.99333	5.00000e+00	
			         0.99500	5.00000e+00	
			         0.99667	6.00000e+00	
			         0.99833	7.00000e+00	
			         1.00000	7.00000e+00	
			         1.00167	8.00000e+00	
			         1.00333	9.00000e+00	
			         1.00500	9.00000e+00	
			         1.00667	1.00000e+01	
			         1.00833	1.10000e+01	
			         1.01000	1.10000e+01	
			         1.01167	1.20000e+01	
			         1.01333	1.30000e+01	
			         1.01500	1.40000e+01	
			         1.01667	1.50000e+01	
			         1.01833	1.60000e+01	
			         1.02000	1.70000e+01	
			         1.02167	1.80000e+01	
			         1.02333	1.90000e+01	
			         1.02500	2.10000e+01	
			         1.02667	2.20000e+01	
			         1.02833	2.40000e+01	
			         1.03000	2.60000e+01	
			         1.03167	2.80000e+01	
			         1.03333	3.00000e+01	
			         1.03500	3.20000e+01	
			         1.03667	3.50000e+01	
			         1.03833	3.70000e+01	
			         1.04000	4.00000e+01	
			         1.04167	4.30000e+01	
			         1.04333	4.60000e+01	
			         1.04500	4.80000e+01	
			         1.04667	5.10000e+01	
			         1.04833	5.40000e+01	
			         1.05000	5.70000e+01	
			         1.05167	6.00000e+01	
			         1.05333	6.30000e+01	
			         1.05500	6.60000e+01	
			         1.05667	6.80000e+01	
			         1.05833	7.10000e+01	
			         1.06000	7.40000e+01	
			         1.06167	7.70000e+01	
			         1.06333	8.00000e+01	
			         1.06500	8.30000e+01	
			         1.06667	8.50000e+01	
			         1.06833	8.80000e+01	
			         1.07000	9.10000e+01	
			         1.07167	9.40000e+01	
			         1.07333	9.70000e+01	
			         1.07500	9.90000e+01	
			         1.07667	1.02000e+02	
			         1.07833	1.04000e+02	
			         1.08000	1.07000e+02	
			         1.08167	1.09000e+02	
			         1.08333	1.11000e+02	
			         1.08500	1.12000e+02	
			         1.08667	1.14000e+02	
			         1.08833	1.15000e+02	
			         1.09000	1.16000e+02	
			         1.09167	1.16000e+02	
			         1.09333	1.17000e+02	
			         1.09500	1.16000e+02	
			         1.09667	1.16000e+02	
			         1.09833	1.15000e+02	
			         1.10000	1.14000e+02	
			         1.10167	1.13000e+02	
			         1.10333	1.11000e+02	
			         1.10500	1.09000e+02	
			         1.10667	1.07000e+02	
			         1.10833	1.05000e+02	
			         1.11000	1.02000e+02	
			         1.11167	9.90000e+01	
			         1.11333	9.50000e+01	
			         1.11500	9.10000e+01	
			         1.11667	8.70000e+01	
			         1.11833	8.30000e+01	
			         1.12000	7.80000e+01	
			         1.12167	7.30000e+01	
			         1.12333	6.80000e+01	
			         1.12500	6.30000e+01	
			         1.12667	5.70000e+01	
			         1.12833	5.10000e+01	
			         1.13000	4.50000e+01	
			         1.13167	3.90000e+01	
			         1.13333	3.30000e+01	
			         1.13500	2.70000e+01	
			         1.13667	2.10000e+01	
			         1.13833	1.40000e+01	
			         1.14000	8.00000e+00	
			         1.14167	3.00000e+00	
			         1.14333	-3.00000e+00	
			         1.14500	-9.00000e+00	
			         1.14667	-1.40000e+01	
			         1.14833	-1.90000e+01	
			         1.15000	-2.40000e+01	
			         1.15167	-2.90000e+01	
			         1.15333	-3.30000e+01	
			         1.15500	-3.70000e+01	
			         1.15667	-4.10000e+01	
			         1.15833	-4.40000e+01	
			         1.16000	-4.80000e+01	
			         1.16167	-5.00000e+01	
			         1.16333	-5.30000e+01	
			         1.16500	-5.50000e+01	
			         1.16667	-5.70000e+01	
			         1.16833	-5.90000e+01	
			         1.17000	-6.00000e+01	
			         1.17167	-6.20000e+01	
			         1.17333	-6.30000e+01	
			         1.17500	-6.40000e+01	
			         1.17667	-6.40000e+01	
			         1.17833	-6.50000e+01	
			         1.18000	-6.50000e+01	
			         1.18167	-6.60000e+01	
			         1.18333	-6.60000e+01	
			         1.18500	-6.60000e+01	
			         1.18667	-6.60000e+01	
			         1.18833	-6.60000e+01	
			         1.19000	-6.60000e+01	
			         1.19167	-6.50000e+01	
			         1.19333	-6.50000e+01	
			         1.19500	-6.40000e+01	
			         1.19667	-6.30000e+01	
			         1.19833	-6.20000e+01	
			         1.20000	-6.10000e+01	
			         1.20167	-6.00000e+01	
			         1.20333	-5.90000e+01	
			         1.20500	-5.80000e+01	
			         1.20667	-5.70000e+01	
			         1.20833	-5.50000e+01	
			         1.21000	-5.40000e+01	
			         1.21167	-5.30000e+01	
			         1.21333	-5.10000e+01	
			         1.21500	-5.00000e+01	
			         1.21667	-4.90000e+01	
			         1.21833	-4.80000e+01	
			         1.22000	-4.70000e+01	
			         1.22167	-4.60000e+01	
			         1.22333	-4.50000e+01	
			         1.22500	-4.40000e+01	
			         1.22667	-4.30000e+01	
			         1.22833	-4.20000e+01	
			         1.23000	-4.10000e+01	
			         1.23167	-4.00000e+01	
			         1.23333	-3.80000e+01	
			         1.23500	-3.70000e+01	
			         1.23667	-3.60000e+01	
			         1.23833	-3.50000e+01	
			         1.24000	-3.30000e+01	
			         1.24167	-3.20000e+01	
			         1.24333	-3.10000e+01	
			         1.24500	-3.00000e+01	
			         1.24667	-2.90000e+01	
			         1.24833	-2.70000e+01	
			         1.25000	-2.60000e+01	
			         1.25167	-2.50000e+01	
			         1.25333	-2.40000e+01	
			         1.25500	-2.30000e+01	
			         1.25667	-2.30000e+01	
			         1.25833	-2.20000e+01	
			         1.26000	-2.10000e+01	
			         1.26167	-2.00000e+01	
			         1.26333	-2.00000e+01	
			         1.26500	-1.90000e+01	
			         1.26667	-1.80000e+01	
			         1.26833	-1.80000e+01	
			         1.27000	-1.70000e+01	
			         1.27167	-1.60000e+01	
			         1.27333	-1.50000e+01	
			         1.27500	-1.40000e+01	
			         1.27667	-1.40000e+01	
			         1.27833	-1.30000e+01	
			         1.28000	-1.20000e+01	
			         1.28167	-1.10000e+01	
			         1.28333	-1.10000e+01	
			         1.28500	-1.00000e+01	
			         1.28667	-9.00000e+00	
			         1.28833	-9.00000e+00	
			         1.29000	-8.00000e+00	
			         1.29167	-8.00000e+00	
			         1.29333	-7.00000e+00	
			         1.29500	-7.00000e+00	
			         1.29667	-6.00000e+00	
			         1.29833	-6.00000e+00	
			         1.30000	-5.00000e+00	
			         1.30167	-5.00000e+00	
			         1.30333	-4.00000e+00	
			         1.30500	-3.00000e+00	
			         1.30667	-2.00000e+00	
			         1.30833	-1.00000e+00	
			         1.31000	0.00000e+00	
			         1.31167	1.00000e+00	
			         1.31333	2.00000e+00	
			         1.31500	3.00000e+00	
			         1.31667	4.00000e+00	
			         1.31833	4.00000e+00	
			         1.32000	5.00000e+00	
			         1.32167	6.00000e+00	
			         1.32333	6.00000e+00	
			         1.32500	7.00000e+00	
			         1.32667	7.00000e+00	
			         1.32833	7.00000e+00	
			         1.33000	7.00000e+00	
			         1.33167	7.00000e+00	
			         1.33333	8.00000e+00	
			         1.33500	8.00000e+00	
			         1.33667	8.00000e+00	
			         1.33833	8.00000e+00	
			         1.34000	8.00000e+00	
			         1.34167	8.00000e+00	
			         1.34333	9.00000e+00	
			         1.34500	9.00000e+00	
			         1.34667	9.00000e+00	
			         1.34833	9.00000e+00	
			         1.35000	9.00000e+00	
			         1.35167	1.00000e+01	
			         1.35333	1.00000e+01	
			         1.35500	1.00000e+01	
			         1.35667	1.00000e+01	
			         1.35833	1.00000e+01	
			         1.36000	9.00000e+00	
			         1.36167	9.00000e+00	
			         1.36333	9.00000e+00	
			         1.36500	9.00000e+00	
			         1.36667	8.00000e+00	
			         1.36833	8.00000e+00	
			         1.37000	8.00000e+00	
			         1.37167	7.00000e+00	
			         1.37333	7.00000e+00	
			         1.37500	7.00000e+00	
			         1.37667	7.00000e+00	
			         1.37833	7.00000e+00	
			         1.38000	7.00000e+00	
			         1.38167	6.00000e+00	
			         1.38333	6.00000e+00	
			         1.38500	6.00000e+00	
			         1.38667	6.00000e+00	
			         1.38833	6.00000e+00	
			         1.39000	5.00000e+00	
			         1.39167	5.00000e+00	
			         1.39333	5.00000e+00	
			         1.39500	5.00000e+00	
			         1.39667	4.00000e+00	
			         1.39833	4.00000e+00	
			         1.40000	4.00000e+00	
			         1.40167	4.00000e+00	
			         1.40333	4.00000e+00	
			         1.40500	4.00000e+00	
			         1.40667	5.00000e+00	
			         1.40833	5.00000e+00	
			         1.41000	5.00000e+00	
			         1.41167	5.00000e+00	
			         1.41333	5.00000e+00	
			         1.41500	5.00000e+00	
			         1.41667	5.00000e+00	
			         1.41833	5.00000e+00	
			         1.42000	5.00000e+00	
			         1.42167	5.00000e+00	
			         1.42333	5.00000e+00	
			         1.42500	5.00000e+00	
			         1.42667	5.00000e+00	
			         1.42833	5.00000e+00	
			         1.43000	5.00000e+00	
			         1.43167	5.00000e+00	
			         1.43333	5.00000e+00	
			         1.43500	5.00000e+00	
			         1.43667	6.00000e+00	
			         1.43833	6.00000e+00	
			         1.44000	6.00000e+00	
			         1.44167	7.00000e+00	
			         1.44333	7.00000e+00	
			         1.44500	7.00000e+00	
			         1.44667	8.00000e+00	
			         1.44833	8.00000e+00	
			         1.45000	8.00000e+00	
			         1.45167	8.00000e+00	
			         1.45333	9.00000e+00	
			         1.45500	9.00000e+00	
			         1.45667	9.00000e+00	
			         1.45833	1.00000e+01	
			         1.46000	1.00000e+01	
			         1.46167	1.10000e+01	
			         1.46333	1.20000e+01	
			         1.46500	1.30000e+01	
			         1.46667	1.50000e+01	
			         1.46833	1.60000e+01	
			         1.47000	1.80000e+01	
			         1.47167	2.00000e+01	
			         1.47333	2.20000e+01	
			         1.47500	2.50000e+01	
			         1.47667	2.80000e+01	
			         1.47833	3.10000e+01	
			         1.48000	3.40000e+01	
			         1.48167	3.70000e+01	
			         1.48333	4.00000e+01	
			         1.48500	4.30000e+01	
			         1.48667	4.60000e+01	
			         1.48833	4.90000e+01	
			         1.49000	5.20000e+01	
			         1.49167	5.50000e+01	
			         1.49333	5.60000e+01	
			         1.49500	5.80000e+01	
			         1.49667	5.80000e+01	
			         1.49833	5.80000e+01	
			         1.50000	5.70000e+01	
			         1.50167	5.50000e+01	
			         1.50333	5.20000e+01	
			         1.50500	4.90000e+01	
			         1.50667	4.50000e+01	
			         1.50833	4.00000e+01	
			         1.51000	3.50000e+01	
			         1.51167	2.90000e+01	
			         1.51333	2.30000e+01	
			         1.51500	1.80000e+01	
			         1.51667	1.20000e+01	
			         1.51833	7.00000e+00	
			         1.52000	2.00000e+00	
			         1.52167	-2.00000e+00	
			         1.52333	-5.00000e+00	
			         1.52500	-8.00000e+00	
			         1.52667	-1.10000e+01	
			         1.52833	-1.20000e+01	
			         1.53000	-1.30000e+01	
			         1.53167	-1.40000e+01	
			         1.53333	-1.40000e+01	
			         1.53500	-1.30000e+01	
			         1.53667	-1.30000e+01	
			         1.53833	-1.10000e+01	
			         1.54000	-1.00000e+01	
			         1.54167	-8.00000e+00	
			         1.54333	-7.00000e+00	
			         1.54500	-5.00000e+00	
			         1.54667	-4.00000e+00	
			         1.54833	-2.00000e+00	
			         1.55000	-1.00000e+00	
			         1.55167	0.00000e+00	
			         1.55333	1.00000e+00	
			         1.55500	1.00000e+00	
			         1.55667	1.00000e+00	
			         1.55833	0.00000e+00	
			         1.56000	-1.00000e+00	
			         1.56167	-2.00000e+00	
			         1.56333	-4.00000e+00	
			         1.56500	-5.00000e+00	
			         1.56667	-7.00000e+00	
			         1.56833	-9.00000e+00	
			         1.57000	-1.10000e+01	
			         1.57167	-1.30000e+01	
			         1.57333	-1.40000e+01	
			         1.57500	-1.50000e+01	
			         1.57667	-1.60000e+01	
			         1.57833	-1.70000e+01	
			         1.58000	-1.70000e+01	
			         1.58167	-1.80000e+01	
			         1.58333	-1.80000e+01	
			         1.58500	-1.70000e+01	
			         1.58667	-1.70000e+01	
			         1.58833	-1.60000e+01	
			         1.59000	-1.50000e+01	
			         1.59167	-1.40000e+01	
			         1.59333	-1.40000e+01	
			         1.59500	-1.30000e+01	
			         1.59667	-1.20000e+01	
			         1.59833	-1.00000e+01	
			         1.60000	-9.00000e+00	
			         1.60167	-8.00000e+00	
			         1.60333	-7.00000e+00	
			         1.60500	-5.00000e+00	
			         1.60667	-2.00000e+00	
			         1.60833	0.00000e+00	
			         1.61000	4.00000e+00	
			         1.61167	9.00000e+00	
			         1.61333	1.40000e+01	
			         1.61500	2.00000e+01	
			         1.61667	2.70000e+01	
			         1.61833	3.50000e+01	
			         1.62000	4.50000e+01	
			         1.62167	5.50000e+01	
			         1.62333	6.60000e+01	
			         1.62500	7.90000e+01	
			         1.62667	9.30000e+01	
			         1.62833	1.07000e+02	
			         1.63000	1.22000e+02	
			         1.63167	1.37000e+02	
			         1.63333	1.51000e+02	
			         1.63500	1.64000e+02	
			         1.63667	1.75000e+02	
			         1.63833	1.85000e+02	
			         1.64000	1.93000e+02	
			         1.64167	1.98000e+02	
			         1.64333	2.01000e+02	
			         1.64500	2.00000e+02	
			         1.64667	1.96000e+02	
			         1.64833	1.89000e+02	
			         1.65000	1.79000e+02	
			         1.65167	1.66000e+02	
			         1.65333	1.51000e+02	
			         1.65500	1.35000e+02	
			         1.65667	1.19000e+02	
			         1.65833	1.01000e+02	
			         1.66000	8.40000e+01	
			         1.66167	6.60000e+01	
			         1.66333	4.90000e+01	
			         1.66500	3.20000e+01	
			         1.66667	1.60000e+01	
			         1.66833	1.00000e+00	
			         1.67000	-1.30000e+01	
			         1.67167	-2.60000e+01	
			         1.67333	-3.70000e+01	
			         1.67500	-4.70000e+01	
			         1.67667	-5.50000e+01	
			         1.67833	-6.30000e+01	
			         1.68000	-6.80000e+01	
			         1.68167	-7.30000e+01	
			         1.68333	-7.60000e+01	
			         1.68500	-7.80000e+01	
			         1.68667	-7.90000e+01	
			         1.68833	-7.80000e+01	
			         1.69000	-7.70000e+01	
			         1.69167	-7.50000e+01	
			         1.69333	-7.30000e+01	
			         1.69500	-7.10000e+01	
			         1.69667	-6.80000e+01	
			         1.69833	-6.60000e+01	
			         1.70000	-6.40000e+01	
			         1.70167	-6.10000e+01	
			         1.70333	-5.90000e+01	
			         1.70500	-5.80000e+01	
			         1.70667	-5.60000e+01	
			         1.70833	-5.40000e+01	
			         1.71000	-5.30000e+01	
			         1.71167	-5.10000e+01	
			         1.71333	-5.00000e+01	
			         1.71500	-4.90000e+01	
			         1.71667	-4.70000e+01	
			         1.71833	-4.60000e+01	
			         1.72000	-4.40000e+01	
			         1.72167	-4.30000e+01	
			         1.72333	-4.10000e+01	
			         1.72500	-4.00000e+01	
			         1.72667	-3.80000e+01	
			         1.72833	-3.60000e+01	
			         1.73000	-3.50000e+01	
			         1.73167	-3.40000e+01	
			         1.73333	-3.20000e+01	
			         1.73500	-3.10000e+01	
			         1.73667	-3.00000e+01	
			         1.73833	-2.90000e+01	
			         1.74000	-2.80000e+01	
			         1.74167	-2.70000e+01	
			         1.74333	-2.60000e+01	
			         1.74500	-2.50000e+01	
			         1.74667	-2.40000e+01	
			         1.74833	-2.30000e+01	
			         1.75000	-2.20000e+01	
			         1.75167	-2.10000e+01	
			         1.75333	-2.00000e+01	
			         1.75500	-1.90000e+01	
			         1.75667	-1.90000e+01	
			         1.75833	-1.80000e+01	
			         1.76000	-1.70000e+01	
			         1.76167	-1.70000e+01	
			         1.76333	-1.60000e+01	
			         1.76500	-1.60000e+01	
			         1.76667	-1.50000e+01	
			         1.76833	-1.50000e+01	
			         1.77000	-1.50000e+01	
			         1.77167	-1.40000e+01	
			         1.77333	-1.40000e+01	
			         1.77500	-1.40000e+01	
			         1.77667	-1.30000e+01	
			         1.77833	-1.30000e+01	
			         1.78000	-1.30000e+01	
			         1.78167	-1.20000e+01	
			         1.78333	-1.20000e+01	
			         1.78500	-1.10000e+01	
			         1.78667	-1.00000e+01	
			         1.78833	-9.00000e+00	
			         1.79000	-8.00000e+00	
			         1.79167	-7.00000e+00	
			         1.79333	-7.00000e+00	
			         1.79500	-6.00000e+00	
			         1.79667	-5.00000e+00	
			         1.79833	-4.00000e+00	
			         1.80000	-4.00000e+00	
			         1.80167	-3.00000e+00	
			         1.80333	-2.00000e+00	
			         1.80500	-2.00000e+00	
			         1.80667	-1.00000e+00	
			         1.80833	-1.00000e+00	
			         1.81000	0.00000e+00	
			         1.81167	1.00000e+00	
			         1.81333	1.00000e+00	
			         1.81500	2.00000e+00	
			         1.81667	3.00000e+00	
			         1.81833	4.00000e+00	
			         1.82000	5.00000e+00	
			         1.82167	6.00000e+00	
			         1.82333	8.00000e+00	
			         1.82500	9.00000e+00	
			         1.82667	1.00000e+01	
			         1.82833	1.20000e+01	
			         1.83000	1.30000e+01	
			         1.83167	1.50000e+01	
			         1.83333	1.60000e+01	
			         1.83500	1.70000e+01	
			         1.83667	1.90000e+01	
			         1.83833	2.00000e+01	
			         1.84000	2.20000e+01	
			         1.84167	2.30000e+01	
			         1.84333	2.50000e+01	
			         1.84500	2.60000e+01	
			         1.84667	2.80000e+01	
			         1.84833	2.90000e+01	
			         1.85000	3.00000e+01	
			         1.85167	3.20000e+01	
			         1.85333	3.40000e+01	
			         1.85500	3.50000e+01	
			         1.85667	3.70000e+01	
			         1.85833	3.90000e+01	
			         1.86000	4.20000e+01	
			         1.86167	4.40000e+01	
			         1.86333	4.60000e+01	
			         1.86500	4.90000e+01	
			         1.86667	5.20000e+01	
			         1.86833	5.40000e+01	
			         1.87000	5.70000e+01	
			         1.87167	6.00000e+01	
			         1.87333	6.30000e+01	
			         1.87500	6.60000e+01	
			         1.87667	6.90000e+01	
			         1.87833	7.20000e+01	
			         1.88000	7.50000e+01	
			         1.88167	7.80000e+01	
			         1.88333	8.10000e+01	
			         1.88500	8.30000e+01	
			         1.88667	8.60000e+01	
			         1.88833	8.80000e+01	
			         1.89000	9.00000e+01	
			         1.89167	9.20000e+01	
			         1.89333	9.40000e+01	
			         1.89500	9.70000e+01	
			         1.89667	9.90000e+01	
			         1.89833	1.01000e+02	
			         1.90000	1.03000e+02	
			         1.90167	1.05000e+02	
			         1.90333	1.07000e+02	
			         1.90500	1.09000e+02	
			         1.90667	1.10000e+02	
			         1.90833	1.12000e+02	
			         1.91000	1.13000e+02	
			         1.91167	1.14000e+02	
			         1.91333	1.15000e+02	
			         1.91500	1.15000e+02	
			         1.91667	1.15000e+02	
			         1.91833	1.14000e+02	
			         1.92000	1.13000e+02	
			         1.92167	1.12000e+02	
			         1.92333	1.10000e+02	
			         1.92500	1.08000e+02	
			         1.92667	1.06000e+02	
			         1.92833	1.03000e+02	
			         1.93000	1.01000e+02	
			         1.93167	9.80000e+01	
			         1.93333	9.40000e+01	
			         1.93500	9.10000e+01	
			         1.93667	8.70000e+01	
			         1.93833	8.30000e+01	
			         1.94000	7.90000e+01	
			         1.94167	7.50000e+01	
			         1.94333	7.00000e+01	
			         1.94500	6.50000e+01	
			         1.94667	6.00000e+01	
			         1.94833	5.50000e+01	
			         1.95000	4.90000e+01	
			         1.95167	4.30000e+01	
			         1.95333	3.70000e+01	
			         1.95500	3.10000e+01	
			         1.95667	2.50000e+01	
			         1.95833	1.90000e+01	
			         1.96000	1.30000e+01	
			         1.96167	7.00000e+00	
			         1.96333	1.00000e+00	
			         1.96500	-4.00000e+00	
			         1.96667	-1.00000e+01	
			         1.96833	-1.50000e+01	
			         1.97000	-2.00000e+01	
			         1.97167	-2.50000e+01	
			         1.97333	-3.00000e+01	
			         1.97500	-3.40000e+01	
			         1.97667	-3.80000e+01	
			         1.97833	-4.20000e+01	
			         1.98000	-4.50000e+01	
			         1.98167	-4.90000e+01	
			         1.98333	-5.20000e+01	
			         1.98500	-5.40000e+01	
			         1.98667	-5.70000e+01	
			         1.98833	-5.90000e+01	
			         1.99000	-6.00000e+01	
			         1.99167	-6.10000e+01	
			         1.99333	-6.20000e+01	
			         1.99500	-6.30000e+01	
			         1.99667	-6.30000e+01	
			         1.99833	-6.40000e+01	
			         2.00000	-6.30000e+01	
			         2.00167	-6.30000e+01	
			         2.00333	-6.30000e+01	
			         2.00500	-6.20000e+01	
			         2.00667	-6.20000e+01	
			         2.00833	-6.10000e+01	
			         2.01000	-6.00000e+01	
			         2.01167	-6.00000e+01	
			         2.01333	-5.90000e+01	
			         2.01500	-5.80000e+01	
			         2.01667	-5.80000e+01	
			         2.01833	-5.70000e+01	
			         2.02000	-5.60000e+01	
			         2.02167	-5.60000e+01	
			         2.02333	-5.50000e+01	
			         2.02500	-5.40000e+01	
			         2.02667	-5.40000e+01	
			         2.02833	-5.30000e+01	
			         2.03000	-5.20000e+01	
			         2.03167	-5.10000e+01	
			         2.03333	-5.00000e+01	
			         2.03500	-4.90000e+01	
			         2.03667	-4.80000e+01	
			         2.03833	-4.80000e+01	
			         2.04000	-4.70000e+01	
			         2.04167	-4.60000e+01	
			         2.04333	-4.50000e+01	
			         2.04500	-4.40000e+01	
			         2.04667	-4.30000e+01	
			         2.04833	-4.20000e+01	
			         2.05000	-4.10000e+01	
			         2.05167	-4.00000e+01	
			         2.05333	-3.90000e+01	
			         2.05500	-3.80000e+01	
			         2.05667	-3.70000e+01	
			         2.05833	-3.60000e+01	
			         2.06000	-3.50000e+01	
			         2.06167	-3.40000e+01	
			         2.06333	-3.30000e+01	
			         2.06500	-3.20000e+01	
			         2.06667	-3.10000e+01	
			         2.06833	-3.10000e+01	
			         2.07000	-3.00000e+01	
			         2.07167	-2.90000e+01	
			         2.07333	-2.80000e+01	
			         2.07500	-2.70000e+01	
			         2.07667	-2.60000e+01	
			         2.07833	-2.50000e+01	
			         2.08000	-2.40000e+01	
			         2.08167	-2.20000e+01	
			         2.08333	-2.10000e+01	
			         2.08500	-2.00000e+01	
			         2.08667	-1.90000e+01	
			         2.08833	-1.80000e+01	
			         2.09000	-1.80000e+01	
			         2.09167	-1.70000e+01	
			         2.09333	-1.60000e+01	
			         2.09500	-1.60000e+01	
			         2.09667	-1.50000e+01	
			         2.09833	-1.50000e+01	
			         2.10000	-1.50000e+01	
			         2.10167	-1.40000e+01	
			         2.10333	-1.40000e+01	
			         2.10500	-1.40000e+01	
			         2.10667	-1.40000e+01	
			         2.10833	-1.30000e+01	
			         2.11000	-1.30000e+01	
			         2.11167	-1.30000e+01	
			         2.11333	-1.20000e+01	
			         2.11500	-1.20000e+01	
			         2.11667	-1.20000e+01	
			         2.11833	-1.10000e+01	
			         2.12000	-1.10000e+01	
			         2.12167	-1.00000e+01	
			         2.12333	-1.00000e+01	
			         2.12500	-9.00000e+00	
			         2.12667	-9.00000e+00	
			         2.12833	-8.00000e+00	
			         2.13000	-8.00000e+00	
			         2.13167	-7.00000e+00	
			         2.13333	-6.00000e+00	
			         2.13500	-6.00000e+00	
			         2.13667	-5.00000e+00	
			         2.13833	-4.00000e+00	
			         2.14000	-3.00000e+00	
			         2.14167	-3.00000e+00	
			         2.14333	-2.00000e+00	
			         2.14500	-2.00000e+00	
			         2.14667	-1.00000e+00	
			         2.14833	-1.00000e+00	
			         2.15000	-1.00000e+00	
			         2.15167	-1.00000e+00	
			         2.15333	-1.00000e+00	
			         2.15500	-1.00000e+00	
			         2.15667	-1.00000e+00	
			         2.15833	-1.00000e+00	
			         2.16000	-1.00000e+00	
			         2.16167	-1.00000e+00	
			         2.16333	-1.00000e+00	
			         2.16500	-1.00000e+00	
			         2.16667	-1.00000e+00	
			         2.16833	0.00000e+00	
			         2.17000	0.00000e+00	
			         2.17167	0.00000e+00	
			         2.17333	1.00000e+00	
			         2.17500	1.00000e+00	
			         2.17667	1.00000e+00	
			         2.17833	1.00000e+00	
			         2.18000	2.00000e+00	
			         2.18167	2.00000e+00	
			         2.18333	2.00000e+00	
			         2.18500	2.00000e+00	
			         2.18667	2.00000e+00	
			         2.18833	2.00000e+00	
			         2.19000	2.00000e+00	
			         2.19167	2.00000e+00	
			         2.19333	2.00000e+00	
			         2.19500	1.00000e+00	
			         2.19667	1.00000e+00	
			         2.19833	1.00000e+00	
			         2.20000	1.00000e+00	
			         2.20167	1.00000e+00	
			         2.20333	1.00000e+00	
			         2.20500	1.00000e+00	
			         2.20667	1.00000e+00	
			         2.20833	1.00000e+00	
			         2.21000	0.00000e+00	
			         2.21167	0.00000e+00	
			         2.21333	0.00000e+00	
			         2.21500	0.00000e+00	
			         2.21667	-1.00000e+00	
			         2.21833	-1.00000e+00	
			         2.22000	-2.00000e+00	
			         2.22167	-2.00000e+00	
			         2.22333	-3.00000e+00	
			         2.22500	-3.00000e+00	
			         2.22667	-4.00000e+00	
			         2.22833	-4.00000e+00	
			         2.23000	-4.00000e+00	
			         2.23167	-4.00000e+00	
			         2.23333	-4.00000e+00	
			         2.23500	-4.00000e+00	
			         2.23667	-4.00000e+00	
			         2.23833	-4.00000e+00	
			         2.24000	-4.00000e+00	
			         2.24167	-4.00000e+00	
			         2.24333	-4.00000e+00	
			         2.24500	-4.00000e+00	
			         2.24667	-4.00000e+00	
			         2.24833	-5.00000e+00	
			         2.25000	-5.00000e+00	
			         2.25167	-5.00000e+00	
			         2.25333	-5.00000e+00	
			         2.25500	-6.00000e+00	
			         2.25667	-6.00000e+00	
			         2.25833	-6.00000e+00	
			         2.26000	-6.00000e+00	
			         2.26167	-6.00000e+00	
			         2.26333	-6.00000e+00	
			         2.26500	-6.00000e+00	
			         2.26667	-5.00000e+00	
			         2.26833	-5.00000e+00	
			         2.27000	-4.00000e+00	
			         2.27167	-4.00000e+00	
			         2.27333	-3.00000e+00	
			         2.27500	-2.00000e+00	
			         2.27667	-2.00000e+00	
			         2.27833	-1.00000e+00	
			         2.28000	0.00000e+00	
			         2.28167	1.00000e+00	
			         2.28333	2.00000e+00	
			         2.28500	3.00000e+00	
			         2.28667	4.00000e+00	
			         2.28833	6.00000e+00	
			         2.29000	7.00000e+00	
			         2.29167	9.00000e+00	
			         2.29333	1.10000e+01	
			         2.29500	1.30000e+01	
			         2.29667	1.50000e+01	
			         2.29833	1.80000e+01	
			         2.30000	2.00000e+01	
			         2.30167	2.30000e+01	
			         2.30333	2.60000e+01	
			         2.30500	2.90000e+01	
			         2.30667	3.20000e+01	
			         2.30833	3.50000e+01	
			         2.31000	3.70000e+01	
			         2.31167	4.00000e+01	
			         2.31333	4.30000e+01	
			         2.31500	4.50000e+01	
			         2.31667	4.70000e+01	
			         2.31833	4.80000e+01	
			         2.32000	4.80000e+01	
			         2.32167	4.80000e+01	
			         2.32333	4.70000e+01	
			         2.32500	4.60000e+01	
			         2.32667	4.40000e+01	
			         2.32833	4.10000e+01	
			         2.33000	3.80000e+01	
			         2.33167	3.30000e+01	
			         2.33333	2.90000e+01	
			         2.33500	2.30000e+01	
			         2.33667	1.80000e+01	
			         2.33833	1.30000e+01	
			         2.34000	7.00000e+00	
			         2.34167	2.00000e+00	
			         2.34333	-2.00000e+00	
			         2.34500	-7.00000e+00	
			         2.34667	-1.00000e+01	
			         2.34833	-1.30000e+01	
			         2.35000	-1.60000e+01	
			         2.35167	-1.80000e+01	
			         2.35333	-1.90000e+01	
			         2.35500	-2.00000e+01	
			         2.35667	-2.00000e+01	
			         2.35833	-1.90000e+01	
			         2.36000	-1.90000e+01	
			         2.36167	-1.80000e+01	
			         2.36333	-1.70000e+01	
			         2.36500	-1.50000e+01	
			         2.36667	-1.40000e+01	
			         2.36833	-1.20000e+01	
			         2.37000	-1.10000e+01	
			         2.37167	-1.00000e+01	
			         2.37333	-9.00000e+00	
			         2.37500	-8.00000e+00	
			         2.37667	-8.00000e+00	
			         2.37833	-7.00000e+00	
			         2.38000	-8.00000e+00	
			         2.38167	-8.00000e+00	
			         2.38333	-9.00000e+00	
			         2.38500	-1.00000e+01	
			         2.38667	-1.20000e+01	
			         2.38833	-1.30000e+01	
			         2.39000	-1.50000e+01	
			         2.39167	-1.70000e+01	
			         2.39333	-1.90000e+01	
			         2.39500	-2.10000e+01	
			         2.39667	-2.20000e+01	
			         2.39833	-2.40000e+01	
			         2.40000	-2.50000e+01	
			         2.40167	-2.60000e+01	
			         2.40333	-2.60000e+01	
			         2.40500	-2.60000e+01	
			         2.40667	-2.60000e+01	
			         2.40833	-2.60000e+01	
			         2.41000	-2.50000e+01	
			         2.41167	-2.40000e+01	
			         2.41333	-2.30000e+01	
			         2.41500	-2.20000e+01	
			         2.41667	-2.10000e+01	
			         2.41833	-1.90000e+01	
			         2.42000	-1.80000e+01	
			         2.42167	-1.70000e+01	
			         2.42333	-1.60000e+01	
			         2.42500	-1.50000e+01	
			         2.42667	-1.40000e+01	
			         2.42833	-1.30000e+01	
			         2.43000	-1.10000e+01	
			         2.43167	-8.00000e+00	
			         2.43333	-5.00000e+00	
			         2.43500	-1.00000e+00	
			         2.43667	3.00000e+00	
			         2.43833	9.00000e+00	
			         2.44000	1.60000e+01	
			         2.44167	2.40000e+01	
			         2.44333	3.30000e+01	
			         2.44500	4.30000e+01	
			         2.44667	5.50000e+01	
			         2.44833	6.70000e+01	
			         2.45000	8.10000e+01	
			         2.45167	9.50000e+01	
			         2.45333	1.10000e+02	
			         2.45500	1.25000e+02	
			         2.45667	1.39000e+02	
			         2.45833	1.53000e+02	
			         2.46000	1.65000e+02	
			         2.46167	1.75000e+02	
			         2.46333	1.83000e+02	
			         2.46500	1.88000e+02	
			         2.46667	1.91000e+02	
			         2.46833	1.91000e+02	
			         2.47000	1.88000e+02	
			         2.47167	1.81000e+02	
			         2.47333	1.72000e+02	
			         2.47500	1.60000e+02	
			         2.47667	1.47000e+02	
			         2.47833	1.32000e+02	
			         2.48000	1.16000e+02	
			         2.48167	1.00000e+02	
			         2.48333	8.30000e+01	
			         2.48500	6.70000e+01	
			         2.48667	5.10000e+01	
			         2.48833	3.50000e+01	
			         2.49000	2.00000e+01	
			         2.49167	5.00000e+00	
			         2.49333	-8.00000e+00	
			         2.49500	-2.00000e+01	
			         2.49667	-3.20000e+01	
			         2.49833	-4.20000e+01	
			         2.50000	-5.10000e+01	
			         2.50167	-5.80000e+01	
			         2.50333	-6.50000e+01	
			         2.50500	-7.00000e+01	
			         2.50667	-7.40000e+01	
			         2.50833	-7.60000e+01	
			         2.51000	-7.80000e+01	
			         2.51167	-7.80000e+01	
			         2.51333	-7.80000e+01	
			         2.51500	-7.60000e+01	
			         2.51667	-7.50000e+01	
			         2.51833	-7.20000e+01	
			         2.52000	-7.00000e+01	
			         2.52167	-6.80000e+01	
			         2.52333	-6.50000e+01	
			         2.52500	-6.30000e+01	
			         2.52667	-6.00000e+01	
			         2.52833	-5.80000e+01	
			         2.53000	-5.60000e+01	
			         2.53167	-5.40000e+01	
			         2.53333	-5.30000e+01	
			         2.53500	-5.10000e+01	
			         2.53667	-4.90000e+01	
			         2.53833	-4.70000e+01	
			         2.54000	-4.60000e+01	
