Velocity (TVI), in cm/s

Time (s) :	Trace 1 : 		Ecg : 		
0.00485   	8.55961e-01		         0.00000	1.54000e+02	
0.01098   	1.30161e+00		         0.00167	1.88000e+02	
0.01712   	1.66299e+00		         0.00333	2.23000e+02	
0.02326   	2.23084e+00		         0.00500	2.58000e+02	
0.02993   	2.75030e+00		         0.00667	2.92000e+02	
0.03581   	2.88181e+00		         0.00833	3.24000e+02	
0.04194   	2.15420e+00		         0.01000	3.51000e+02	
0.04808   	1.38987e+00		         0.01167	3.73000e+02	
0.05449   	5.81037e-01		         0.01333	3.89000e+02	
0.06063   	-8.92395e-02		         0.01500	3.97000e+02	
0.06676   	-3.12276e-01		         0.01667	3.97000e+02	
0.07290   	2.82360e-01		         0.01833	3.88000e+02	
0.07965   	9.41174e-01		         0.02000	3.71000e+02	
0.08545   	1.77278e+00		         0.02167	3.44000e+02	
0.09159   	2.63392e+00		         0.02333	3.08000e+02	
0.09772   	3.27623e+00		         0.02500	2.62000e+02	
0.10413   	3.77073e+00		         0.02667	2.06000e+02	
0.11027   	4.19666e+00		         0.02833	1.43000e+02	
0.11641   	4.47020e+00		         0.03000	7.40000e+01	
0.12255   	4.57952e+00		         0.03167	1.00000e+00	
0.12896   	4.69340e+00		         0.03333	-7.20000e+01	
0.13510   	4.72539e+00		         0.03500	-1.45000e+02	
0.14123   	4.74393e+00		         0.03667	-2.15000e+02	
0.14737   	4.76682e+00		         0.03833	-2.80000e+02	
0.15378   	4.82325e+00		         0.04000	-3.37000e+02	
0.15991   	4.77883e+00		         0.04167	-3.87000e+02	
0.16605   	4.77719e+00		         0.04333	-4.26000e+02	
0.17219   	4.70077e+00		         0.04500	-4.54000e+02	
0.17860   	4.68935e+00		         0.04667	-4.71000e+02	
0.18474   	4.61494e+00		         0.04833	-4.77000e+02	
0.19087   	4.52667e+00		         0.05000	-4.72000e+02	
0.19701   	4.41327e+00		         0.05167	-4.58000e+02	
0.20342   	4.37420e+00		         0.05333	-4.35000e+02	
0.20956   	4.27652e+00		         0.05500	-4.07000e+02	
0.21570   	4.16379e+00		         0.05667	-3.75000e+02	
0.22183   	4.16315e+00		         0.05833	-3.39000e+02	
0.22824   	4.19102e+00		         0.06000	-3.03000e+02	
0.23438   	4.17517e+00		         0.06167	-2.66000e+02	
0.24052   	4.10327e+00		         0.06333	-2.31000e+02	
0.24666   	4.08802e+00		         0.06500	-1.97000e+02	
0.25307   	3.96576e+00		         0.06667	-1.65000e+02	
0.25920   	3.83888e+00		         0.06833	-1.36000e+02	
0.26534   	3.66526e+00		         0.07000	-1.10000e+02	
0.27148   	3.58779e+00		         0.07167	-8.70000e+01	
0.27789   	3.42999e+00		         0.07333	-6.70000e+01	
0.28403   	3.34523e+00		         0.07500	-4.90000e+01	
0.29016   	3.23297e+00		         0.07667	-3.50000e+01	
0.29630   	3.13357e+00		         0.07833	-2.20000e+01	
0.30271   	2.97330e+00		         0.08000	-1.10000e+01	
0.30885   	2.79610e+00		         0.08167	-2.00000e+00	
0.31498   	2.56875e+00		         0.08333	6.00000e+00	
0.32112   	2.41556e+00		         0.08500	1.30000e+01	
0.32753   	2.16533e+00		         0.08667	1.90000e+01	
0.33367   	1.86541e+00		         0.08833	2.40000e+01	
0.33981   	1.58331e+00		         0.09000	2.80000e+01	
0.34594   	1.73798e+00		         0.09167	3.10000e+01	
0.35235   	1.32016e+00		         0.09333	3.40000e+01	
0.35849   	9.28879e-01		         0.09500	3.50000e+01	
0.36463   	7.03341e-01		         0.09667	3.60000e+01	
0.37077   	4.24273e-01		         0.09833	3.70000e+01	
0.37717   	-7.59542e-02		         0.10000	3.70000e+01	
0.38332   	1.23397e-01		         0.10167	3.60000e+01	
0.38945   	6.28369e-01		         0.10333	3.60000e+01	
0.39559   	9.62137e-01		         0.10500	3.50000e+01	
0.40200   	1.52652e+00		         0.10667	3.40000e+01	
0.40813   	1.85729e+00		         0.10833	3.40000e+01	
0.41427   	1.34354e+00		         0.11000	3.40000e+01	
0.42041   	2.57925e-01		         0.11167	3.30000e+01	
0.42682   	-7.74650e-01		         0.11333	3.30000e+01	
0.43296   	-1.85822e+00		         0.11500	3.30000e+01	
0.43909   	-3.07257e+00		         0.11667	3.40000e+01	
0.44523   	-3.66105e+00		         0.11833	3.40000e+01	
0.45164   	-3.98611e+00		         0.12000	3.40000e+01	
0.45778   	-4.41286e+00		         0.12167	3.40000e+01	
0.46392   	-4.80119e+00		         0.12333	3.40000e+01	
0.47005   	-4.95261e+00		         0.12500	3.50000e+01	
0.47646   	-5.07854e+00		         0.12667	3.50000e+01	
0.48260   	-5.00698e+00		         0.12833	3.60000e+01	
0.48874   	-4.79386e+00		         0.13000	3.70000e+01	
0.49488   	-4.62394e+00		         0.13167	3.70000e+01	
0.50129   	-4.46097e+00		         0.13333	3.80000e+01	
0.50742   	-4.19529e+00		         0.13500	3.90000e+01	
0.51356   	-3.91380e+00		         0.13667	3.90000e+01	
0.51970   	-3.62637e+00		         0.13833	4.00000e+01	
0.52611   	-3.30607e+00		         0.14000	4.10000e+01	
0.53225   	-2.94262e+00		         0.14167	4.20000e+01	
0.53838   	-2.58565e+00		         0.14333	4.30000e+01	
0.54472   	-2.24479e+00		         0.14500	4.30000e+01	
0.55093   	-1.86293e+00		         0.14667	4.40000e+01	
0.55707   	-1.50100e+00		         0.14833	4.40000e+01	
0.56320   	-1.23589e+00		         0.15000	4.40000e+01	
0.56934   	-1.06189e+00		         0.15167	4.40000e+01	
0.57575   	-1.02835e+00		         0.15333	4.40000e+01	
0.58189   	-1.11240e+00		         0.15500	4.40000e+01	
0.58803   	-1.33590e+00		         0.15667	4.40000e+01	
0.59453   	-1.66993e+00		         0.15833	4.40000e+01	
0.60057   	-2.03401e+00		         0.16000	4.30000e+01	
0.60671   	-2.57080e+00		         0.16167	4.40000e+01	
0.61285   	-3.30590e+00		         0.16333	4.40000e+01	
0.61899   	-4.09329e+00		         0.16500	4.40000e+01	
0.62539   	-4.86050e+00		         0.16667	4.40000e+01	
0.63153   	-5.68121e+00		         0.16833	4.50000e+01	
0.63767   	-6.37854e+00		         0.17000	4.50000e+01	
0.64381   	-6.74586e+00		         0.17167	4.60000e+01	
0.65022   	-6.87508e+00		         0.17333	4.70000e+01	
0.65635   	-6.76859e+00		         0.17500	4.80000e+01	
0.66249   	-6.39672e+00		         0.17667	4.90000e+01	
0.66863   	-5.72344e+00		         0.17833	5.10000e+01	
0.67504   	-4.94393e+00		         0.18000	5.30000e+01	
0.68117   	-4.13498e+00		         0.18167	5.40000e+01	
0.68731   	-3.36625e+00		         0.18333	5.60000e+01	
0.69345   	-2.67428e+00		         0.18500	5.80000e+01	
0.69986   	-2.05128e+00		         0.18667	6.00000e+01	
0.70600   	-1.56038e+00		         0.18833	6.10000e+01	
0.71214   	-1.17873e+00		         0.19000	6.30000e+01	
0.71827   	-7.99611e-01		         0.19167	6.50000e+01	
0.72468   	-3.78700e-01		         0.19333	6.60000e+01	
0.73082   	8.49296e-03		         0.19500	6.80000e+01	
0.73696   	4.06902e-01		         0.19667	6.90000e+01	
0.74309   	8.59157e-01		         0.19833	7.10000e+01	
0.74950   	1.41872e+00		         0.20000	7.20000e+01	
0.75564   	2.01003e+00		         0.20167	7.40000e+01	
0.76178   	2.46021e+00		         0.20333	7.60000e+01	
0.76792   	2.57688e+00		         0.20500	7.80000e+01	
0.77433   	1.94876e+00		         0.20667	8.10000e+01	
0.78047   	1.00799e+00		         0.20833	8.40000e+01	
0.78660   	1.24495e-01		         0.21000	8.70000e+01	
0.79274   	-3.17696e-01		         0.21167	9.10000e+01	
0.79915   	-3.59271e-01		         0.21333	9.50000e+01	
0.80529   	4.17533e-01		         0.21500	9.90000e+01	
0.81142   	1.50810e+00		         0.21667	1.03000e+02	
0.81756   	2.55928e+00		         0.21833	1.07000e+02	
0.82397   	3.34255e+00		         0.22000	1.12000e+02	
0.83011   	4.03985e+00		         0.22167	1.16000e+02	
0.83625   	4.63478e+00		         0.22333	1.20000e+02	
0.84238   	5.04980e+00		         0.22500	1.23000e+02	
0.84879   	5.36634e+00		         0.22667	1.27000e+02	
0.85493   	5.49109e+00		         0.22833	1.30000e+02	
0.86107   	5.64534e+00		         0.23000	1.34000e+02	
0.86721   	5.75628e+00		         0.23167	1.37000e+02	
0.87361   	5.75934e+00		         0.23333	1.41000e+02	
0.87975   	5.70159e+00		         0.23500	1.44000e+02	
0.88589   	5.61297e+00		         0.23667	1.47000e+02	
0.89203   	5.47949e+00		         0.23833	1.50000e+02	
0.89844   	5.34142e+00		         0.24000	1.52000e+02	
0.90458   	5.29650e+00		         0.24167	1.55000e+02	
0.91071   	5.23731e+00		         0.24333	1.57000e+02	
0.91685   	5.28922e+00		         0.24500	1.59000e+02	
0.92326   	5.26248e+00		         0.24667	1.61000e+02	
0.92939   	5.22358e+00		         0.24833	1.62000e+02	
0.93554   	5.17436e+00		         0.25000	1.63000e+02	
0.94167   	5.14912e+00		         0.25167	1.63000e+02	
0.94808   	5.02733e+00		         0.25333	1.63000e+02	
0.95422   	4.95737e+00		         0.25500	1.63000e+02	
0.96035   	4.90155e+00		         0.25667	1.62000e+02	
0.96649   	4.79195e+00		         0.25833	1.62000e+02	
0.97290   	4.66111e+00		         0.26000	1.61000e+02	
0.97904   	4.55060e+00		         0.26167	1.59000e+02	
0.98518   	4.49880e+00		         0.26333	1.58000e+02	
0.99131   	4.36379e+00		         0.26500	1.56000e+02	
0.99772   	4.28402e+00		         0.26667	1.54000e+02	
1.00386   	4.17137e+00		         0.26833	1.52000e+02	
1.01000   	4.02583e+00		         0.27000	1.50000e+02	
1.01614   	3.81577e+00		         0.27167	1.47000e+02	
1.02255   	3.64400e+00		         0.27333	1.44000e+02	
1.02868   	3.40008e+00		         0.27500	1.40000e+02	
1.03482   	3.19771e+00		         0.27667	1.36000e+02	
1.04096   	3.01597e+00		         0.27833	1.32000e+02	
1.04737   	2.79465e+00		         0.28000	1.27000e+02	
1.05350   	2.54383e+00		         0.28167	1.22000e+02	
1.05964   	2.29927e+00		         0.28333	1.16000e+02	
1.06578   	2.00018e+00		         0.28500	1.10000e+02	
1.07219   	1.83706e+00		         0.28667	1.03000e+02	
1.07833   	1.81144e+00		         0.28833	9.60000e+01	
1.08446   	1.41901e+00		         0.29000	8.90000e+01	
1.09060   	7.94005e-01		         0.29167	8.10000e+01	
1.09702   	5.68467e-01		         0.29333	7.30000e+01	
1.10315   	2.23739e-01		         0.29500	6.40000e+01	
1.10929   	-2.53789e-01		         0.29667	5.50000e+01	
1.11543   	-1.80112e-01		         0.29833	4.60000e+01	
1.12183   	4.03529e-01		         0.30000	3.70000e+01	
1.12797   	4.48676e-01		         0.30167	2.80000e+01	
1.13411   	9.64871e-01		         0.30333	1.80000e+01	
1.14024   	1.08014e+00		         0.30500	8.00000e+00	
1.14666   	3.24537e-01		         0.30667	-1.00000e+00	
1.15280   	-5.75700e-01		         0.30833	-1.10000e+01	
1.15902   	-1.31775e+00		         0.31000	-2.00000e+01	
1.16507   	-2.54721e+00		         0.31167	-2.90000e+01	
1.17148   	-3.49858e+00		         0.31333	-3.80000e+01	
1.17761   	-3.92738e+00		         0.31500	-4.70000e+01	
1.18375   	-4.43657e+00		         0.31667	-5.50000e+01	
1.18989   	-5.00137e+00		         0.31833	-6.20000e+01	
1.19630   	-5.53514e+00		         0.32000	-7.00000e+01	
1.20244   	-5.91870e+00		         0.32167	-7.60000e+01	
1.20894   	-6.04301e+00		         0.32333	-8.30000e+01	
1.21471   	-6.09930e+00		         0.32500	-8.80000e+01	
1.22112   	-5.85363e+00		         0.32667	-9.40000e+01	
1.22726   	-5.48440e+00		         0.32833	-9.90000e+01	
1.23340   	-5.17673e+00		         0.33000	-1.03000e+02	
1.23953   	-4.71930e+00		         0.33167	-1.07000e+02	
1.24594   	-4.39218e+00		         0.33333	-1.11000e+02	
1.25208   	-4.17169e+00		         0.33500	-1.15000e+02	
1.25822   	-3.90808e+00		         0.33667	-1.18000e+02	
1.26436   	-3.51392e+00		         0.33833	-1.21000e+02	
1.27077   	-3.17493e+00		         0.34000	-1.23000e+02	
1.27690   	-2.63641e+00		         0.34167	-1.25000e+02	
1.28304   	-2.18045e+00		         0.34333	-1.27000e+02	
1.28918   	-1.88658e+00		         0.34500	-1.28000e+02	
1.29559   	-1.65632e+00		         0.34667	-1.29000e+02	
1.30172   	-1.47501e+00		         0.34833	-1.30000e+02	
1.30786   	-1.46065e+00		         0.35000	-1.31000e+02	
1.31400   	-1.54655e+00		         0.35167	-1.31000e+02	
1.32041   	-1.62061e+00		         0.35333	-1.31000e+02	
1.32655   	-1.72906e+00		         0.35500	-1.31000e+02	
1.33268   	-1.96940e+00		         0.35667	-1.30000e+02	
1.33882   	-2.25967e+00		         0.35833	-1.30000e+02	
1.34523   	-2.55258e+00		         0.36000	-1.29000e+02	
1.35137   	-2.97511e+00		         0.36167	-1.27000e+02	
1.35751   	-3.54525e+00		         0.36333	-1.26000e+02	
1.36365   	-4.23279e+00		         0.36500	-1.24000e+02	
1.37005   	-4.98786e+00		         0.36667	-1.22000e+02	
1.37619   	-5.77264e+00		         0.36833	-1.19000e+02	
1.38233   	-6.36590e+00		         0.37000	-1.17000e+02	
1.38847   	-6.74091e+00		         0.37167	-1.14000e+02	
1.39487   	-6.83725e+00		         0.37333	-1.11000e+02	
1.40101   	-6.61710e+00		         0.37500	-1.09000e+02	
1.40715   	-6.13470e+00		         0.37667	-1.06000e+02	
1.41329   	-5.45703e+00		         0.37833	-1.04000e+02	
1.41970   	-4.66328e+00		         0.38000	-1.02000e+02	
1.42583   	-3.87475e+00		         0.38167	-9.90000e+01	
1.43197   	-3.21951e+00		         0.38333	-9.70000e+01	
1.43811   	-2.58901e+00		         0.38500	-9.50000e+01	
1.44452   	-2.12715e+00		         0.38667	-9.30000e+01	
1.45066   	-1.74555e+00		         0.38833	-9.10000e+01	
1.45679   	-1.29335e+00		         0.39000	-9.00000e+01	
1.46293   	-8.47519e-01		         0.39167	-8.80000e+01	
1.46934   	-4.42197e-01		         0.39333	-8.60000e+01	
1.47548   	-2.90781e-02		         0.39500	-8.40000e+01	
1.48162   	3.64442e-01		         0.39667	-8.10000e+01	
1.48775   	7.36759e-01		         0.39833	-7.90000e+01	
1.49416   	1.22545e+00		         0.40000	-7.70000e+01	
1.50030   	1.75805e+00		         0.40167	-7.40000e+01	
1.50644   	2.15788e+00		         0.40333	-7.20000e+01	
1.51258   	2.45578e+00		         0.40500	-7.00000e+01	
1.51899   	2.70179e+00		         0.40667	-6.80000e+01	
			         0.40833	-6.60000e+01	
			         0.41000	-6.40000e+01	
			         0.41167	-6.30000e+01	
			         0.41333	-6.10000e+01	
			         0.41500	-6.00000e+01	
			         0.41667	-5.90000e+01	
			         0.41833	-5.80000e+01	
			         0.42000	-5.70000e+01	
			         0.42167	-5.60000e+01	
			         0.42333	-5.50000e+01	
			         0.42500	-5.30000e+01	
			         0.42667	-5.10000e+01	
			         0.42833	-4.90000e+01	
			         0.43000	-4.60000e+01	
			         0.43167	-4.40000e+01	
			         0.43333	-4.20000e+01	
			         0.43500	-3.90000e+01	
			         0.43667	-3.70000e+01	
			         0.43833	-3.50000e+01	
			         0.44000	-3.30000e+01	
			         0.44167	-3.10000e+01	
			         0.44333	-2.90000e+01	
			         0.44500	-2.80000e+01	
			         0.44667	-2.70000e+01	
			         0.44833	-2.60000e+01	
			         0.45000	-2.50000e+01	
			         0.45167	-2.40000e+01	
			         0.45333	-2.30000e+01	
			         0.45500	-2.30000e+01	
			         0.45667	-2.20000e+01	
			         0.45833	-2.10000e+01	
			         0.46000	-2.00000e+01	
			         0.46167	-1.90000e+01	
			         0.46333	-1.70000e+01	
			         0.46500	-1.60000e+01	
			         0.46667	-1.50000e+01	
			         0.46833	-1.30000e+01	
			         0.47000	-1.20000e+01	
			         0.47167	-1.10000e+01	
			         0.47333	-1.10000e+01	
			         0.47500	-1.00000e+01	
			         0.47667	-1.00000e+01	
			         0.47833	-9.00000e+00	
			         0.48000	-9.00000e+00	
			         0.48167	-9.00000e+00	
			         0.48333	-9.00000e+00	
			         0.48500	-9.00000e+00	
			         0.48667	-9.00000e+00	
			         0.48833	-9.00000e+00	
			         0.49000	-9.00000e+00	
			         0.49167	-9.00000e+00	
			         0.49333	-9.00000e+00	
			         0.49500	-9.00000e+00	
			         0.49667	-9.00000e+00	
			         0.49833	-9.00000e+00	
			         0.50000	-1.00000e+01	
			         0.50167	-1.00000e+01	
			         0.50333	-1.00000e+01	
			         0.50500	-1.10000e+01	
			         0.50667	-1.20000e+01	
			         0.50833	-1.20000e+01	
			         0.51000	-1.20000e+01	
			         0.51167	-1.30000e+01	
			         0.51333	-1.30000e+01	
			         0.51500	-1.30000e+01	
			         0.51667	-1.20000e+01	
			         0.51833	-1.10000e+01	
			         0.52000	-1.00000e+01	
			         0.52167	-9.00000e+00	
			         0.52333	-7.00000e+00	
			         0.52500	-5.00000e+00	
			         0.52667	-2.00000e+00	
			         0.52833	1.00000e+00	
			         0.53000	4.00000e+00	
			         0.53167	8.00000e+00	
			         0.53333	1.10000e+01	
			         0.53500	1.50000e+01	
			         0.53667	1.90000e+01	
			         0.53833	2.30000e+01	
			         0.54000	2.60000e+01	
			         0.54167	3.00000e+01	
			         0.54333	3.40000e+01	
			         0.54500	3.70000e+01	
			         0.54667	4.00000e+01	
			         0.54833	4.20000e+01	
			         0.55000	4.40000e+01	
			         0.55167	4.60000e+01	
			         0.55333	4.80000e+01	
			         0.55500	4.90000e+01	
			         0.55667	4.90000e+01	
			         0.55833	4.90000e+01	
			         0.56000	4.90000e+01	
			         0.56167	4.80000e+01	
			         0.56333	4.70000e+01	
			         0.56500	4.50000e+01	
			         0.56667	4.40000e+01	
			         0.56833	4.20000e+01	
			         0.57000	3.90000e+01	
			         0.57167	3.60000e+01	
			         0.57333	3.30000e+01	
			         0.57500	2.90000e+01	
			         0.57667	2.60000e+01	
			         0.57833	2.20000e+01	
			         0.58000	1.80000e+01	
			         0.58167	1.40000e+01	
			         0.58333	1.00000e+01	
			         0.58500	6.00000e+00	
			         0.58667	3.00000e+00	
			         0.58833	-1.00000e+00	
			         0.59000	-4.00000e+00	
			         0.59167	-7.00000e+00	
			         0.59333	-1.00000e+01	
			         0.59500	-1.20000e+01	
			         0.59667	-1.50000e+01	
			         0.59833	-1.60000e+01	
			         0.60000	-1.80000e+01	
			         0.60167	-1.80000e+01	
			         0.60333	-1.90000e+01	
			         0.60500	-1.90000e+01	
			         0.60667	-1.90000e+01	
			         0.60833	-1.80000e+01	
			         0.61000	-1.70000e+01	
			         0.61167	-1.60000e+01	
			         0.61333	-1.50000e+01	
			         0.61500	-1.40000e+01	
			         0.61667	-1.40000e+01	
			         0.61833	-1.40000e+01	
			         0.62000	-1.50000e+01	
			         0.62167	-1.60000e+01	
			         0.62333	-1.80000e+01	
			         0.62500	-2.20000e+01	
			         0.62667	-2.60000e+01	
			         0.62833	-3.00000e+01	
			         0.63000	-3.50000e+01	
			         0.63167	-4.00000e+01	
			         0.63333	-4.50000e+01	
			         0.63500	-5.00000e+01	
			         0.63667	-5.50000e+01	
			         0.63833	-5.90000e+01	
			         0.64000	-6.20000e+01	
			         0.64167	-6.40000e+01	
			         0.64333	-6.50000e+01	
			         0.64500	-6.60000e+01	
			         0.64667	-6.60000e+01	
			         0.64833	-6.50000e+01	
			         0.65000	-6.40000e+01	
			         0.65167	-6.30000e+01	
			         0.65333	-6.10000e+01	
			         0.65500	-5.90000e+01	
			         0.65667	-5.70000e+01	
			         0.65833	-5.50000e+01	
			         0.66000	-5.30000e+01	
			         0.66167	-5.10000e+01	
			         0.66333	-4.90000e+01	
			         0.66500	-4.80000e+01	
			         0.66667	-4.60000e+01	
			         0.66833	-4.50000e+01	
			         0.67000	-4.40000e+01	
			         0.67167	-4.40000e+01	
			         0.67333	-4.30000e+01	
			         0.67500	-4.30000e+01	
			         0.67667	-4.30000e+01	
			         0.67833	-4.20000e+01	
			         0.68000	-4.20000e+01	
			         0.68167	-4.20000e+01	
			         0.68333	-4.10000e+01	
			         0.68500	-4.10000e+01	
			         0.68667	-4.00000e+01	
			         0.68833	-3.80000e+01	
			         0.69000	-3.70000e+01	
			         0.69167	-3.50000e+01	
			         0.69333	-3.40000e+01	
			         0.69500	-3.20000e+01	
			         0.69667	-3.10000e+01	
			         0.69833	-3.00000e+01	
			         0.70000	-2.90000e+01	
			         0.70167	-2.70000e+01	
			         0.70333	-2.70000e+01	
			         0.70500	-2.60000e+01	
			         0.70667	-2.50000e+01	
			         0.70833	-2.40000e+01	
			         0.71000	-2.30000e+01	
			         0.71167	-2.20000e+01	
			         0.71333	-2.10000e+01	
			         0.71500	-1.90000e+01	
			         0.71667	-1.70000e+01	
			         0.71833	-1.30000e+01	
			         0.72000	-8.00000e+00	
			         0.72167	-1.00000e+00	
			         0.72333	9.00000e+00	
			         0.72500	2.20000e+01	
			         0.72667	3.80000e+01	
			         0.72833	5.80000e+01	
			         0.73000	8.10000e+01	
			         0.73167	1.07000e+02	
			         0.73333	1.36000e+02	
			         0.73500	1.66000e+02	
			         0.73667	1.98000e+02	
			         0.73833	2.31000e+02	
			         0.74000	2.63000e+02	
			         0.74167	2.93000e+02	
			         0.74333	3.19000e+02	
			         0.74500	3.41000e+02	
			         0.74667	3.56000e+02	
			         0.74833	3.64000e+02	
			         0.75000	3.65000e+02	
			         0.75167	3.57000e+02	
			         0.75333	3.41000e+02	
			         0.75500	3.17000e+02	
			         0.75667	2.83000e+02	
			         0.75833	2.39000e+02	
			         0.76000	1.87000e+02	
			         0.76167	1.27000e+02	
			         0.76333	6.10000e+01	
			         0.76500	-8.00000e+00	
			         0.76667	-7.90000e+01	
			         0.76833	-1.50000e+02	
			         0.77000	-2.17000e+02	
			         0.77167	-2.79000e+02	
			         0.77333	-3.35000e+02	
			         0.77500	-3.83000e+02	
			         0.77667	-4.21000e+02	
			         0.77833	-4.48000e+02	
			         0.78000	-4.65000e+02	
			         0.78167	-4.70000e+02	
			         0.78333	-4.64000e+02	
			         0.78500	-4.49000e+02	
			         0.78667	-4.27000e+02	
			         0.78833	-3.98000e+02	
			         0.79000	-3.64000e+02	
			         0.79167	-3.28000e+02	
			         0.79333	-2.91000e+02	
			         0.79500	-2.53000e+02	
			         0.79667	-2.17000e+02	
			         0.79833	-1.82000e+02	
			         0.80000	-1.49000e+02	
			         0.80167	-1.19000e+02	
			         0.80333	-9.30000e+01	
			         0.80500	-6.90000e+01	
			         0.80667	-4.90000e+01	
			         0.80833	-3.20000e+01	
			         0.81000	-1.80000e+01	
			         0.81167	-6.00000e+00	
			         0.81333	4.00000e+00	
			         0.81500	1.10000e+01	
			         0.81667	1.80000e+01	
			         0.81833	2.30000e+01	
			         0.82000	2.70000e+01	
			         0.82167	3.00000e+01	
			         0.82333	3.20000e+01	
			         0.82500	3.40000e+01	
			         0.82667	3.50000e+01	
			         0.82833	3.60000e+01	
			         0.83000	3.60000e+01	
			         0.83167	3.70000e+01	
			         0.83333	3.70000e+01	
			         0.83500	3.80000e+01	
			         0.83667	3.80000e+01	
			         0.83833	3.80000e+01	
			         0.84000	3.90000e+01	
			         0.84167	3.90000e+01	
			         0.84333	3.90000e+01	
			         0.84500	4.00000e+01	
			         0.84667	4.00000e+01	
			         0.84833	4.00000e+01	
			         0.85000	4.00000e+01	
			         0.85167	3.90000e+01	
			         0.85333	3.90000e+01	
			         0.85500	3.90000e+01	
			         0.85667	3.80000e+01	
			         0.85833	3.80000e+01	
			         0.86000	3.70000e+01	
			         0.86167	3.60000e+01	
			         0.86333	3.60000e+01	
			         0.86500	3.50000e+01	
			         0.86667	3.50000e+01	
			         0.86833	3.40000e+01	
			         0.87000	3.40000e+01	
			         0.87167	3.40000e+01	
			         0.87333	3.40000e+01	
			         0.87500	3.40000e+01	
			         0.87667	3.40000e+01	
			         0.87833	3.50000e+01	
			         0.88000	3.50000e+01	
			         0.88167	3.60000e+01	
			         0.88333	3.70000e+01	
			         0.88500	3.70000e+01	
			         0.88667	3.80000e+01	
			         0.88833	3.90000e+01	
			         0.89000	4.00000e+01	
			         0.89167	4.10000e+01	
			         0.89333	4.20000e+01	
			         0.89500	4.40000e+01	
			         0.89667	4.50000e+01	
			         0.89833	4.70000e+01	
			         0.90000	4.80000e+01	
			         0.90167	5.00000e+01	
			         0.90333	5.10000e+01	
			         0.90500	5.30000e+01	
			         0.90667	5.40000e+01	
			         0.90833	5.60000e+01	
			         0.91000	5.70000e+01	
			         0.91167	5.80000e+01	
			         0.91333	5.90000e+01	
			         0.91500	6.00000e+01	
			         0.91667	6.10000e+01	
			         0.91833	6.20000e+01	
			         0.92000	6.30000e+01	
			         0.92167	6.40000e+01	
			         0.92333	6.60000e+01	
			         0.92500	6.70000e+01	
			         0.92667	6.90000e+01	
			         0.92833	7.10000e+01	
			         0.93000	7.30000e+01	
			         0.93167	7.50000e+01	
			         0.93333	7.70000e+01	
			         0.93500	7.90000e+01	
			         0.93667	8.20000e+01	
			         0.93833	8.40000e+01	
			         0.94000	8.60000e+01	
			         0.94167	8.90000e+01	
			         0.94333	9.10000e+01	
			         0.94500	9.30000e+01	
			         0.94667	9.60000e+01	
			         0.94833	9.90000e+01	
			         0.95000	1.02000e+02	
			         0.95167	1.05000e+02	
			         0.95333	1.09000e+02	
			         0.95500	1.12000e+02	
			         0.95667	1.16000e+02	
			         0.95833	1.19000e+02	
			         0.96000	1.23000e+02	
			         0.96167	1.26000e+02	
			         0.96333	1.30000e+02	
			         0.96500	1.33000e+02	
			         0.96667	1.36000e+02	
			         0.96833	1.39000e+02	
			         0.97000	1.41000e+02	
			         0.97167	1.44000e+02	
			         0.97333	1.46000e+02	
			         0.97500	1.48000e+02	
			         0.97667	1.50000e+02	
			         0.97833	1.52000e+02	
			         0.98000	1.53000e+02	
			         0.98167	1.54000e+02	
			         0.98333	1.55000e+02	
			         0.98500	1.56000e+02	
			         0.98667	1.57000e+02	
			         0.98833	1.58000e+02	
			         0.99000	1.58000e+02	
			         0.99167	1.58000e+02	
			         0.99333	1.58000e+02	
			         0.99500	1.58000e+02	
			         0.99667	1.57000e+02	
			         0.99833	1.56000e+02	
			         1.00000	1.55000e+02	
			         1.00167	1.54000e+02	
			         1.00333	1.52000e+02	
			         1.00500	1.49000e+02	
			         1.00667	1.47000e+02	
			         1.00833	1.43000e+02	
			         1.01000	1.39000e+02	
			         1.01167	1.35000e+02	
			         1.01333	1.30000e+02	
			         1.01500	1.25000e+02	
			         1.01667	1.19000e+02	
			         1.01833	1.13000e+02	
			         1.02000	1.07000e+02	
			         1.02167	1.00000e+02	
			         1.02333	9.30000e+01	
			         1.02500	8.60000e+01	
			         1.02667	7.80000e+01	
			         1.02833	7.10000e+01	
			         1.03000	6.30000e+01	
			         1.03167	5.40000e+01	
			         1.03333	4.60000e+01	
			         1.03500	3.70000e+01	
			         1.03667	2.80000e+01	
			         1.03833	1.90000e+01	
			         1.04000	9.00000e+00	
			         1.04167	0.00000e+00	
			         1.04333	-1.00000e+01	
			         1.04500	-1.90000e+01	
			         1.04667	-2.80000e+01	
			         1.04833	-3.70000e+01	
			         1.05000	-4.60000e+01	
			         1.05167	-5.40000e+01	
			         1.05333	-6.20000e+01	
			         1.05500	-6.90000e+01	
			         1.05667	-7.60000e+01	
			         1.05833	-8.20000e+01	
			         1.06000	-8.70000e+01	
			         1.06167	-9.20000e+01	
			         1.06333	-9.70000e+01	
			         1.06500	-1.01000e+02	
			         1.06667	-1.05000e+02	
			         1.06833	-1.08000e+02	
			         1.07000	-1.11000e+02	
			         1.07167	-1.14000e+02	
			         1.07333	-1.17000e+02	
			         1.07500	-1.20000e+02	
			         1.07667	-1.22000e+02	
			         1.07833	-1.24000e+02	
			         1.08000	-1.26000e+02	
			         1.08167	-1.27000e+02	
			         1.08333	-1.28000e+02	
			         1.08500	-1.29000e+02	
			         1.08667	-1.29000e+02	
			         1.08833	-1.29000e+02	
			         1.09000	-1.29000e+02	
			         1.09167	-1.29000e+02	
			         1.09333	-1.28000e+02	
			         1.09500	-1.27000e+02	
			         1.09667	-1.26000e+02	
			         1.09833	-1.24000e+02	
			         1.10000	-1.23000e+02	
			         1.10167	-1.21000e+02	
			         1.10333	-1.19000e+02	
			         1.10500	-1.17000e+02	
			         1.10667	-1.14000e+02	
			         1.10833	-1.12000e+02	
			         1.11000	-1.09000e+02	
			         1.11167	-1.06000e+02	
			         1.11333	-1.03000e+02	
			         1.11500	-1.00000e+02	
			         1.11667	-9.80000e+01	
			         1.11833	-9.50000e+01	
			         1.12000	-9.30000e+01	
			         1.12167	-9.10000e+01	
			         1.12333	-8.90000e+01	
			         1.12500	-8.80000e+01	
			         1.12667	-8.60000e+01	
			         1.12833	-8.40000e+01	
			         1.13000	-8.30000e+01	
			         1.13167	-8.10000e+01	
			         1.13333	-7.90000e+01	
			         1.13500	-7.70000e+01	
			         1.13667	-7.50000e+01	
			         1.13833	-7.20000e+01	
			         1.14000	-7.00000e+01	
			         1.14167	-6.70000e+01	
			         1.14333	-6.40000e+01	
			         1.14500	-6.20000e+01	
			         1.14667	-5.90000e+01	
			         1.14833	-5.60000e+01	
			         1.15000	-5.40000e+01	
			         1.15167	-5.20000e+01	
			         1.15333	-5.00000e+01	
			         1.15500	-4.80000e+01	
			         1.15667	-4.60000e+01	
			         1.15833	-4.50000e+01	
			         1.16000	-4.40000e+01	
			         1.16167	-4.20000e+01	
			         1.16333	-4.00000e+01	
			         1.16500	-3.90000e+01	
			         1.16667	-3.70000e+01	
			         1.16833	-3.50000e+01	
			         1.17000	-3.30000e+01	
			         1.17167	-3.10000e+01	
			         1.17333	-2.90000e+01	
			         1.17500	-2.80000e+01	
			         1.17667	-2.60000e+01	
			         1.17833	-2.40000e+01	
			         1.18000	-2.20000e+01	
			         1.18167	-2.00000e+01	
			         1.18333	-1.90000e+01	
			         1.18500	-1.70000e+01	
			         1.18667	-1.60000e+01	
			         1.18833	-1.40000e+01	
			         1.19000	-1.30000e+01	
			         1.19167	-1.20000e+01	
			         1.19333	-1.00000e+01	
			         1.19500	-9.00000e+00	
			         1.19667	-8.00000e+00	
			         1.19833	-7.00000e+00	
			         1.20000	-6.00000e+00	
			         1.20167	-5.00000e+00	
			         1.20333	-4.00000e+00	
			         1.20500	-4.00000e+00	
			         1.20667	-4.00000e+00	
			         1.20833	-4.00000e+00	
			         1.21000	-4.00000e+00	
			         1.21167	-5.00000e+00	
			         1.21333	-5.00000e+00	
			         1.21500	-6.00000e+00	
			         1.21667	-7.00000e+00	
			         1.21833	-8.00000e+00	
			         1.22000	-9.00000e+00	
			         1.22167	-1.00000e+01	
			         1.22333	-1.10000e+01	
			         1.22500	-1.20000e+01	
			         1.22667	-1.30000e+01	
			         1.22833	-1.40000e+01	
			         1.23000	-1.50000e+01	
			         1.23167	-1.60000e+01	
			         1.23333	-1.70000e+01	
			         1.23500	-1.70000e+01	
			         1.23667	-1.80000e+01	
			         1.23833	-1.80000e+01	
			         1.24000	-1.80000e+01	
			         1.24167	-1.80000e+01	
			         1.24333	-1.80000e+01	
			         1.24500	-1.80000e+01	
			         1.24667	-1.80000e+01	
			         1.24833	-1.80000e+01	
			         1.25000	-1.80000e+01	
			         1.25167	-1.90000e+01	
			         1.25333	-1.90000e+01	
			         1.25500	-1.90000e+01	
			         1.25667	-1.90000e+01	
			         1.25833	-1.80000e+01	
			         1.26000	-1.80000e+01	
			         1.26167	-1.70000e+01	
			         1.26333	-1.50000e+01	
			         1.26500	-1.40000e+01	
			         1.26667	-1.20000e+01	
			         1.26833	-9.00000e+00	
			         1.27000	-6.00000e+00	
			         1.27167	-3.00000e+00	
			         1.27333	0.00000e+00	
			         1.27500	4.00000e+00	
			         1.27667	8.00000e+00	
			         1.27833	1.20000e+01	
			         1.28000	1.60000e+01	
			         1.28167	1.90000e+01	
			         1.28333	2.20000e+01	
			         1.28500	2.50000e+01	
			         1.28667	2.80000e+01	
			         1.28833	3.10000e+01	
			         1.29000	3.30000e+01	
			         1.29167	3.50000e+01	
			         1.29333	3.70000e+01	
			         1.29500	3.90000e+01	
			         1.29667	4.00000e+01	
			         1.29833	4.10000e+01	
			         1.30000	4.20000e+01	
			         1.30167	4.20000e+01	
			         1.30333	4.20000e+01	
			         1.30500	4.30000e+01	
			         1.30667	4.20000e+01	
			         1.30833	4.10000e+01	
			         1.31000	4.00000e+01	
			         1.31167	3.80000e+01	
			         1.31333	3.60000e+01	
			         1.31500	3.30000e+01	
			         1.31667	3.00000e+01	
			         1.31833	2.60000e+01	
			         1.32000	2.20000e+01	
			         1.32167	1.80000e+01	
			         1.32333	1.30000e+01	
			         1.32500	9.00000e+00	
			         1.32667	4.00000e+00	
			         1.32833	-1.00000e+00	
			         1.33000	-5.00000e+00	
			         1.33167	-9.00000e+00	
			         1.33333	-1.30000e+01	
			         1.33500	-1.60000e+01	
			         1.33667	-1.90000e+01	
			         1.33833	-2.10000e+01	
			         1.34000	-2.20000e+01	
			         1.34167	-2.40000e+01	
			         1.34333	-2.50000e+01	
			         1.34500	-2.50000e+01	
			         1.34667	-2.60000e+01	
			         1.34833	-2.60000e+01	
			         1.35000	-2.50000e+01	
			         1.35167	-2.50000e+01	
			         1.35333	-2.40000e+01	
			         1.35500	-2.30000e+01	
			         1.35667	-2.20000e+01	
			         1.35833	-2.20000e+01	
			         1.36000	-2.10000e+01	
			         1.36167	-2.10000e+01	
			         1.36333	-2.20000e+01	
			         1.36500	-2.20000e+01	
			         1.36667	-2.40000e+01	
			         1.36833	-2.60000e+01	
			         1.37000	-2.80000e+01	
			         1.37167	-3.10000e+01	
			         1.37333	-3.40000e+01	
			         1.37500	-3.80000e+01	
			         1.37667	-4.20000e+01	
			         1.37833	-4.60000e+01	
			         1.38000	-5.00000e+01	
			         1.38167	-5.40000e+01	
			         1.38333	-5.70000e+01	
			         1.38500	-6.00000e+01	
			         1.38667	-6.30000e+01	
			         1.38833	-6.50000e+01	
			         1.39000	-6.70000e+01	
			         1.39167	-6.80000e+01	
			         1.39333	-7.00000e+01	
			         1.39500	-7.00000e+01	
			         1.39667	-7.10000e+01	
			         1.39833	-7.10000e+01	
			         1.40000	-7.10000e+01	
			         1.40167	-7.00000e+01	
			         1.40333	-6.90000e+01	
			         1.40500	-6.80000e+01	
			         1.40667	-6.70000e+01	
			         1.40833	-6.60000e+01	
			         1.41000	-6.50000e+01	
			         1.41167	-6.40000e+01	
			         1.41333	-6.20000e+01	
			         1.41500	-6.10000e+01	
			         1.41667	-5.90000e+01	
			         1.41833	-5.70000e+01	
			         1.42000	-5.50000e+01	
			         1.42167	-5.30000e+01	
			         1.42333	-5.10000e+01	
			         1.42500	-4.90000e+01	
			         1.42667	-4.80000e+01	
			         1.42833	-4.60000e+01	
			         1.43000	-4.40000e+01	
			         1.43167	-4.20000e+01	
			         1.43333	-4.10000e+01	
			         1.43500	-4.00000e+01	
			         1.43667	-3.90000e+01	
			         1.43833	-3.80000e+01	
			         1.44000	-3.70000e+01	
			         1.44167	-3.60000e+01	
			         1.44333	-3.60000e+01	
			         1.44500	-3.50000e+01	
			         1.44667	-3.40000e+01	
			         1.44833	-3.40000e+01	
			         1.45000	-3.30000e+01	
			         1.45167	-3.20000e+01	
			         1.45333	-3.20000e+01	
			         1.45500	-3.10000e+01	
			         1.45667	-3.00000e+01	
			         1.45833	-3.00000e+01	
			         1.46000	-2.90000e+01	
			         1.46167	-2.80000e+01	
			         1.46333	-2.50000e+01	
			         1.46500	-2.10000e+01	
			         1.46667	-1.50000e+01	
			         1.46833	-6.00000e+00	
			         1.47000	6.00000e+00	
			         1.47167	2.20000e+01	
			         1.47333	4.10000e+01	
			         1.47500	6.50000e+01	
			         1.47667	9.10000e+01	
			         1.47833	1.21000e+02	
			         1.48000	1.54000e+02	
			         1.48167	1.88000e+02	
			         1.48333	2.23000e+02	
			         1.48500	2.57000e+02	
			         1.48667	2.91000e+02	
			         1.48833	3.20000e+02	
			         1.49000	3.45000e+02	
			         1.49167	3.64000e+02	
			         1.49333	3.77000e+02	
			         1.49500	3.81000e+02	
			         1.49667	3.78000e+02	
			         1.49833	3.66000e+02	
			         1.50000	3.45000e+02	
			         1.50167	3.14000e+02	
			         1.50333	2.73000e+02	
			         1.50500	2.23000e+02	
			         1.50667	1.64000e+02	
			         1.50833	9.80000e+01	
			         1.51000	2.80000e+01	
			         1.51167	-4.50000e+01	
			         1.51333	-1.18000e+02	
			         1.51500	-1.90000e+02	
			         1.51667	-2.57000e+02	
			         1.51833	-3.19000e+02	
			         1.52000	-3.73000e+02	
			         1.52167	-4.18000e+02	
			         1.52333	-4.52000e+02	
			         1.52500	-4.74000e+02	
			         1.52667	-4.85000e+02	
			         1.52833	-4.85000e+02	
			         1.53000	-4.74000e+02	
			         1.53167	-4.56000e+02	
			         1.53333	-4.30000e+02	
			         1.53500	-3.99000e+02	
			         1.53667	-3.64000e+02	
			         1.53833	-3.27000e+02	
			         1.54000	-2.89000e+02	
			         1.54167	-2.52000e+02	
			         1.54333	-2.16000e+02	
			         1.54500	-1.83000e+02	
			         1.54667	-1.52000e+02	
			         1.54833	-1.23000e+02	
			         1.55000	-9.90000e+01	
			         1.55167	-7.70000e+01	
			         1.55333	-5.90000e+01	
			         1.55500	-4.40000e+01	
			         1.55667	-3.10000e+01	
			         1.55833	-2.10000e+01	
			         1.56000	-1.20000e+01	
			         1.56167	-5.00000e+00	
			         1.56333	1.00000e+00	
			         1.56500	5.00000e+00	
