Velocity (TVI), in cm/s

Time (s) :	Trace 1 : 		Ecg : 		
0.01239   	1.90710e+00		         0.00000	1.56000e+02	
0.01880   	8.14580e-01		         0.00167	1.99000e+02	
0.02522   	3.90783e-01		         0.00333	2.45000e+02	
0.03163   	-7.16060e-01		         0.00500	2.91000e+02	
0.03806   	-1.61487e+00		         0.00667	3.36000e+02	
0.04446   	-1.38025e+00		         0.00833	3.78000e+02	
0.05116   	-8.44488e-01		         0.01000	4.15000e+02	
0.05730   	3.88978e-01		         0.01167	4.46000e+02	
0.06371   	2.65145e+00		         0.01333	4.69000e+02	
0.07012   	4.70343e+00		         0.01500	4.82000e+02	
0.07654   	6.55957e+00		         0.01667	4.85000e+02	
0.08296   	7.96500e+00		         0.01833	4.75000e+02	
0.08937   	8.25375e+00		         0.02000	4.53000e+02	
0.09579   	7.23455e+00		         0.02167	4.21000e+02	
0.10221   	6.57259e+00		         0.02333	3.78000e+02	
0.10863   	5.95256e+00		         0.02500	3.28000e+02	
0.11504   	5.51175e+00		         0.02667	2.73000e+02	
0.12145   	5.28467e+00		         0.02833	2.15000e+02	
0.12787   	5.17473e+00		         0.03000	1.55000e+02	
0.13429   	5.34612e+00		         0.03167	9.60000e+01	
0.14070   	5.84998e+00		         0.03333	3.90000e+01	
0.14712   	6.28933e+00		         0.03500	-1.60000e+01	
0.15353   	6.50665e+00		         0.03667	-6.60000e+01	
0.15995   	6.47789e+00		         0.03833	-1.11000e+02	
0.16637   	5.99254e+00		         0.04000	-1.50000e+02	
0.17278   	5.30938e+00		         0.04167	-1.83000e+02	
0.17920   	4.60418e+00		         0.04333	-2.09000e+02	
0.18561   	4.12273e+00		         0.04500	-2.28000e+02	
0.19203   	3.87899e+00		         0.04667	-2.41000e+02	
0.19844   	3.87389e+00		         0.04833	-2.48000e+02	
0.20486   	3.88749e+00		         0.05000	-2.49000e+02	
0.21128   	3.94247e+00		         0.05167	-2.46000e+02	
0.21770   	3.98594e+00		         0.05333	-2.40000e+02	
0.22411   	4.07119e+00		         0.05500	-2.30000e+02	
0.23052   	4.14754e+00		         0.05667	-2.18000e+02	
0.23694   	4.14295e+00		         0.05833	-2.04000e+02	
0.24336   	4.01728e+00		         0.06000	-1.90000e+02	
0.24977   	3.83215e+00		         0.06167	-1.76000e+02	
0.25619   	3.57960e+00		         0.06333	-1.62000e+02	
0.26261   	3.21672e+00		         0.06500	-1.48000e+02	
0.26902   	2.97079e+00		         0.06667	-1.36000e+02	
0.27544   	2.84956e+00		         0.06833	-1.24000e+02	
0.28185   	2.66700e+00		         0.07000	-1.14000e+02	
0.28827   	2.51912e+00		         0.07167	-1.05000e+02	
0.29468   	2.35849e+00		         0.07333	-9.80000e+01	
0.30110   	2.14710e+00		         0.07500	-9.10000e+01	
0.30752   	1.89911e+00		         0.07667	-8.50000e+01	
0.31393   	1.71740e+00		         0.07833	-8.00000e+01	
0.32036   	1.48707e+00		         0.08000	-7.60000e+01	
0.32676   	1.24031e+00		         0.08167	-7.30000e+01	
0.33353   	9.42579e-01		         0.08333	-7.00000e+01	
0.33960   	5.74250e-01		         0.08500	-6.80000e+01	
0.34602   	1.41463e-01		         0.08667	-6.50000e+01	
0.35243   	-3.72923e-01		         0.08833	-6.30000e+01	
0.35885   	-8.47516e-01		         0.09000	-6.20000e+01	
0.36526   	-1.20875e+00		         0.09167	-6.00000e+01	
0.37168   	-1.28934e+00		         0.09333	-5.80000e+01	
0.37809   	-1.13216e+00		         0.09500	-5.70000e+01	
0.38451   	-7.91696e-01		         0.09667	-5.50000e+01	
0.39093   	-4.39748e-01		         0.09833	-5.40000e+01	
0.39734   	-1.41167e-01		         0.10000	-5.30000e+01	
0.40376   	-8.74978e-02		         0.10167	-5.10000e+01	
0.41017   	-2.03242e-01		         0.10333	-5.00000e+01	
0.41659   	-4.15535e-01		         0.10500	-4.80000e+01	
0.42301   	-7.35048e-01		         0.10667	-4.70000e+01	
0.42942   	-1.21011e+00		         0.10833	-4.60000e+01	
0.43583   	-1.69322e+00		         0.11000	-4.40000e+01	
0.44225   	-2.10012e+00		         0.11167	-4.30000e+01	
0.44867   	-2.65527e+00		         0.11333	-4.10000e+01	
0.45508   	-3.13871e+00		         0.11500	-4.00000e+01	
0.46150   	-3.61326e+00		         0.11667	-3.80000e+01	
0.46792   	-3.84537e+00		         0.11833	-3.70000e+01	
0.47433   	-4.14925e+00		         0.12000	-3.50000e+01	
0.48074   	-4.27898e+00		         0.12167	-3.40000e+01	
0.48717   	-4.32690e+00		         0.12333	-3.30000e+01	
0.49358   	-4.13923e+00		         0.12500	-3.20000e+01	
0.49999   	-4.11266e+00		         0.12667	-3.00000e+01	
0.50641   	-3.98883e+00		         0.12833	-3.00000e+01	
0.51282   	-3.80256e+00		         0.13000	-2.90000e+01	
0.51924   	-3.61199e+00		         0.13167	-2.80000e+01	
0.52566   	-3.33091e+00		         0.13333	-2.70000e+01	
0.53207   	-2.91353e+00		         0.13500	-2.70000e+01	
0.53849   	-2.44058e+00		         0.13667	-2.60000e+01	
0.54491   	-1.98370e+00		         0.13833	-2.60000e+01	
0.55132   	-1.58164e+00		         0.14000	-2.50000e+01	
0.55774   	-1.21039e+00		         0.14167	-2.40000e+01	
0.56415   	-9.11887e-01		         0.14333	-2.40000e+01	
0.57058   	-6.97448e-01		         0.14500	-2.30000e+01	
0.57699   	-5.88278e-01		         0.14667	-2.20000e+01	
0.58340   	-3.21431e-01		         0.14833	-2.00000e+01	
0.58982   	-1.66362e-01		         0.15000	-1.90000e+01	
0.59623   	-4.09435e-02		         0.15167	-1.80000e+01	
0.60265   	1.20842e-02		         0.15333	-1.60000e+01	
0.60907   	1.38419e-01		         0.15500	-1.50000e+01	
0.61567   	1.10937e-01		         0.15667	-1.30000e+01	
0.62190   	1.28491e-01		         0.15833	-1.20000e+01	
0.62831   	1.08142e-01		         0.16000	-1.00000e+01	
0.63473   	1.42260e-01		         0.16167	-9.00000e+00	
0.64114   	1.75497e-01		         0.16333	-7.00000e+00	
0.64756   	2.52076e-01		         0.16500	-6.00000e+00	
0.65398   	2.94857e-01		         0.16667	-4.00000e+00	
0.66039   	3.36321e-01		         0.16833	-3.00000e+00	
0.66681   	3.58641e-01		         0.17000	-1.00000e+00	
0.67323   	3.61077e-01		         0.17167	0.00000e+00	
0.67965   	3.03796e-01		         0.17333	2.00000e+00	
0.68606   	1.49527e-01		         0.17500	3.00000e+00	
0.69247   	-1.41447e-02		         0.17667	5.00000e+00	
0.69889   	-2.30431e-01		         0.17833	6.00000e+00	
0.70531   	-5.68547e-01		         0.18000	8.00000e+00	
0.71172   	-1.10323e+00		         0.18167	9.00000e+00	
0.71814   	-1.82041e+00		         0.18333	1.10000e+01	
0.72455   	-2.80201e+00		         0.18500	1.20000e+01	
0.73098   	-4.20173e+00		         0.18667	1.40000e+01	
0.73738   	-6.20257e+00		         0.18833	1.60000e+01	
0.74380   	-8.13194e+00		         0.19000	1.70000e+01	
0.75022   	-9.66026e+00		         0.19167	1.90000e+01	
0.75663   	-1.14690e+01		         0.19333	2.20000e+01	
0.76305   	-1.25629e+01		         0.19500	2.40000e+01	
0.76947   	-1.24350e+01		         0.19667	2.60000e+01	
0.77588   	-1.18402e+01		         0.19833	2.90000e+01	
0.78230   	-1.11912e+01		         0.20000	3.20000e+01	
0.78872   	-9.68765e+00		         0.20167	3.50000e+01	
0.79513   	-8.18385e+00		         0.20333	3.80000e+01	
0.80154   	-6.76698e+00		         0.20500	4.20000e+01	
0.80797   	-5.39647e+00		         0.20667	4.50000e+01	
0.81437   	-3.79591e+00		         0.20833	4.80000e+01	
0.82079   	-2.25900e+00		         0.21000	5.20000e+01	
0.82721   	-7.78971e-01		         0.21167	5.50000e+01	
0.83363   	3.78390e-01		         0.21333	5.80000e+01	
0.84004   	1.29456e+00		         0.21500	6.10000e+01	
0.84646   	1.80368e+00		         0.21667	6.50000e+01	
0.85287   	2.27003e+00		         0.21833	6.80000e+01	
0.85929   	2.49627e+00		         0.22000	7.10000e+01	
0.86570   	2.72873e+00		         0.22167	7.40000e+01	
0.87212   	2.97585e+00		         0.22333	7.70000e+01	
0.87854   	3.12539e+00		         0.22500	8.00000e+01	
0.88495   	2.65911e+00		         0.22667	8.30000e+01	
0.89137   	1.86193e+00		         0.22833	8.60000e+01	
0.89781   	8.43298e-01		         0.23000	8.90000e+01	
0.90420   	-3.41444e-02		         0.23167	9.10000e+01	
0.91061   	-6.60354e-01		         0.23333	9.40000e+01	
0.91703   	-7.32252e-01		         0.23500	9.60000e+01	
0.92344   	-5.34583e-01		         0.23667	9.80000e+01	
0.92986   	-6.24545e-02		         0.23833	1.00000e+02	
0.93628   	2.64608e-01		         0.24000	1.01000e+02	
0.94270   	1.14323e+00		         0.24167	1.03000e+02	
0.94911   	2.55251e+00		         0.24333	1.04000e+02	
0.95553   	4.08039e+00		         0.24500	1.05000e+02	
0.96194   	5.49295e+00		         0.24667	1.05000e+02	
0.96836   	6.71790e+00		         0.24833	1.06000e+02	
0.97477   	7.52756e+00		         0.25000	1.06000e+02	
0.98119   	7.43827e+00		         0.25167	1.06000e+02	
0.98761   	7.28654e+00		         0.25333	1.06000e+02	
0.99402   	7.18602e+00		         0.25500	1.06000e+02	
1.00044   	7.36086e+00		         0.25667	1.06000e+02	
1.00686   	7.38215e+00		         0.25833	1.06000e+02	
1.01328   	7.48020e+00		         0.26000	1.05000e+02	
1.01969   	7.45710e+00		         0.26167	1.05000e+02	
1.02610   	7.39628e+00		         0.26333	1.04000e+02	
1.03252   	7.07460e+00		         0.26500	1.03000e+02	
1.03894   	6.51417e+00		         0.26667	1.02000e+02	
1.04535   	6.30470e+00		         0.26833	1.01000e+02	
1.05177   	6.07324e+00		         0.27000	1.00000e+02	
1.05818   	5.57403e+00		         0.27167	9.80000e+01	
1.06460   	5.26866e+00		         0.27333	9.70000e+01	
1.07101   	4.97157e+00		         0.27500	9.50000e+01	
1.07743   	4.44088e+00		         0.27667	9.30000e+01	
1.08385   	4.31759e+00		         0.27833	9.00000e+01	
1.09026   	4.33958e+00		         0.28000	8.70000e+01	
1.09668   	4.38828e+00		         0.28167	8.40000e+01	
1.10309   	4.33594e+00		         0.28333	8.00000e+01	
1.10951   	4.24958e+00		         0.28500	7.60000e+01	
1.11592   	3.93489e+00		         0.28667	7.20000e+01	
1.12234   	3.61675e+00		         0.28833	6.70000e+01	
1.12875   	3.29518e+00		         0.29000	6.20000e+01	
1.13518   	3.04206e+00		         0.29167	5.70000e+01	
1.14159   	2.86017e+00		         0.29333	5.10000e+01	
1.14800   	2.67052e+00		         0.29500	4.50000e+01	
1.15442   	2.58154e+00		         0.29667	3.80000e+01	
1.16084   	2.46028e+00		         0.29833	3.20000e+01	
1.16726   	2.41177e+00		         0.30000	2.50000e+01	
1.17367   	2.30226e+00		         0.30167	1.80000e+01	
1.18008   	2.09072e+00		         0.30333	1.20000e+01	
1.18650   	1.85344e+00		         0.30500	5.00000e+00	
1.19292   	1.48422e+00		         0.30667	-2.00000e+00	
1.19933   	1.24151e+00		         0.30833	-8.00000e+00	
1.20575   	1.08721e+00		         0.31000	-1.50000e+01	
1.21216   	9.89369e-01		         0.31167	-2.10000e+01	
1.21858   	7.35256e-01		         0.31333	-2.70000e+01	
1.22500   	3.77434e-01		         0.31500	-3.30000e+01	
1.23141   	-1.56600e-01		         0.31667	-3.80000e+01	
1.23783   	-8.68821e-01		         0.31833	-4.40000e+01	
1.24424   	-1.50268e+00		         0.32000	-4.90000e+01	
1.25066   	-1.84990e+00		         0.32167	-5.40000e+01	
1.25708   	-1.93623e+00		         0.32333	-5.90000e+01	
1.26350   	-1.69975e+00		         0.32500	-6.40000e+01	
1.26991   	-1.16238e+00		         0.32667	-6.80000e+01	
1.27632   	-7.07105e-01		         0.32833	-7.20000e+01	
1.28274   	-4.00654e-01		         0.33000	-7.50000e+01	
1.28916   	-2.39032e-01		         0.33167	-7.80000e+01	
1.29557   	-2.22718e-01		         0.33333	-8.10000e+01	
1.30199   	-3.64831e-01		         0.33500	-8.40000e+01	
1.30840   	-3.77765e-01		         0.33667	-8.60000e+01	
1.31482   	-4.08876e-01		         0.33833	-8.70000e+01	
1.32124   	-5.40038e-01		         0.34000	-8.90000e+01	
1.32765   	-8.66696e-01		         0.34167	-9.00000e+01	
1.33407   	-1.31183e+00		         0.34333	-9.00000e+01	
1.34049   	-1.88881e+00		         0.34500	-9.10000e+01	
1.34690   	-2.48120e+00		         0.34667	-9.10000e+01	
1.35332   	-3.00879e+00		         0.34833	-9.10000e+01	
1.35973   	-3.51839e+00		         0.35000	-9.10000e+01	
1.36615   	-3.93332e+00		         0.35167	-9.00000e+01	
1.37257   	-4.25328e+00		         0.35333	-9.00000e+01	
1.37898   	-4.41569e+00		         0.35500	-8.90000e+01	
1.38540   	-4.39643e+00		         0.35667	-8.80000e+01	
1.39181   	-4.11431e+00		         0.35833	-8.70000e+01	
1.39823   	-3.64526e+00		         0.36000	-8.60000e+01	
1.40464   	-3.19084e+00		         0.36167	-8.50000e+01	
1.41106   	-2.89179e+00		         0.36333	-8.40000e+01	
1.41748   	-2.51187e+00		         0.36500	-8.30000e+01	
1.42389   	-2.24451e+00		         0.36667	-8.20000e+01	
1.43031   	-2.10030e+00		         0.36833	-8.10000e+01	
1.43672   	-1.91106e+00		         0.37000	-8.00000e+01	
1.44314   	-1.61716e+00		         0.37167	-7.90000e+01	
1.44956   	-1.39846e+00		         0.37333	-7.70000e+01	
1.45597   	-1.25710e+00		         0.37500	-7.60000e+01	
1.46245   	-1.14421e+00		         0.37667	-7.50000e+01	
1.46881   	-1.05166e+00		         0.37833	-7.30000e+01	
1.47523   	-1.02797e+00		         0.38000	-7.20000e+01	
1.48163   	-1.12172e+00		         0.38167	-7.00000e+01	
1.48805   	-1.22829e+00		         0.38333	-6.90000e+01	
1.49447   	-1.26554e+00		         0.38500	-6.70000e+01	
1.50088   	-1.30114e+00		         0.38667	-6.50000e+01	
1.50730   	-1.24869e+00		         0.38833	-6.40000e+01	
1.51371   	-1.07875e+00		         0.39000	-6.20000e+01	
1.52013   	-8.70124e-01		         0.39167	-6.00000e+01	
1.52655   	-7.01251e-01		         0.39333	-5.80000e+01	
1.53296   	-5.56655e-01		         0.39500	-5.70000e+01	
1.53938   	-4.19322e-01		         0.39667	-5.50000e+01	
1.54579   	-3.37673e-01		         0.39833	-5.30000e+01	
1.55221   	-2.47192e-01		         0.40000	-5.20000e+01	
1.55863   	-1.86121e-01		         0.40167	-5.10000e+01	
1.56504   	-1.12050e-01		         0.40333	-4.90000e+01	
1.57146   	-7.55021e-02		         0.40500	-4.80000e+01	
1.57788   	-1.09901e-01		         0.40667	-4.70000e+01	
1.58429   	-3.10040e-01		         0.40833	-4.60000e+01	
1.59071   	-6.90534e-01		         0.41000	-4.50000e+01	
1.59712   	-1.46445e+00		         0.41167	-4.40000e+01	
1.60354   	-2.75477e+00		         0.41333	-4.30000e+01	
1.60995   	-4.40197e+00		         0.41500	-4.20000e+01	
1.61637   	-6.25747e+00		         0.41667	-4.10000e+01	
1.62279   	-8.02779e+00		         0.41833	-4.00000e+01	
1.62921   	-9.73371e+00		         0.42000	-3.90000e+01	
1.63562   	-1.11189e+01		         0.42167	-3.70000e+01	
1.64203   	-1.18100e+01		         0.42333	-3.60000e+01	
1.64845   	-1.17529e+01		         0.42500	-3.50000e+01	
1.65487   	-1.13933e+01		         0.42667	-3.40000e+01	
1.66128   	-1.05184e+01		         0.42833	-3.30000e+01	
1.66770   	-9.18013e+00		         0.43000	-3.20000e+01	
1.67411   	-7.83731e+00		         0.43167	-3.00000e+01	
1.68054   	-6.62739e+00		         0.43333	-2.90000e+01	
1.68694   	-5.32008e+00		         0.43500	-2.80000e+01	
1.69336   	-4.00840e+00		         0.43667	-2.70000e+01	
1.69978   	-2.67696e+00		         0.43833	-2.60000e+01	
1.70620   	-1.39969e+00		         0.44000	-2.50000e+01	
1.71261   	-3.54748e-01		         0.44167	-2.50000e+01	
1.71902   	5.34020e-01		         0.44333	-2.40000e+01	
1.72543   	1.42623e+00		         0.44500	-2.30000e+01	
1.73186   	2.13977e+00		         0.44667	-2.20000e+01	
1.73827   	2.71762e+00		         0.44833	-2.10000e+01	
1.74469   	3.36451e+00		         0.45000	-2.10000e+01	
1.75111   	3.81600e+00		         0.45167	-2.00000e+01	
1.75752   	3.99383e+00		         0.45333	-1.90000e+01	
1.76393   	3.57795e+00		         0.45500	-1.80000e+01	
1.77035   	2.73391e+00		         0.45667	-1.70000e+01	
1.77677   	1.73635e+00		         0.45833	-1.60000e+01	
1.78318   	7.87438e-01		         0.46000	-1.60000e+01	
1.78960   	1.24518e-01		         0.46167	-1.50000e+01	
1.79601   	-1.46072e-02		         0.46333	-1.40000e+01	
1.80243   	1.16118e-01		         0.46500	-1.30000e+01	
1.80885   	9.80207e-02		         0.46667	-1.30000e+01	
1.81527   	1.18949e-02		         0.46833	-1.20000e+01	
1.82168   	9.96088e-01		         0.47000	-1.20000e+01	
1.82809   	2.07385e+00		         0.47167	-1.10000e+01	
1.83451   	3.38061e+00		         0.47333	-1.00000e+01	
1.84093   	5.05940e+00		         0.47500	-1.00000e+01	
1.84734   	6.55044e+00		         0.47667	-9.00000e+00	
1.85376   	6.87310e+00		         0.47833	-8.00000e+00	
1.86018   	6.76050e+00		         0.48000	-8.00000e+00	
1.86659   	6.48091e+00		         0.48167	-7.00000e+00	
1.87301   	6.22277e+00		         0.48333	-7.00000e+00	
1.87942   	6.73619e+00		         0.48500	-7.00000e+00	
1.88585   	6.92594e+00		         0.48667	-6.00000e+00	
1.89225   	7.43519e+00		         0.48833	-6.00000e+00	
1.89867   	7.64261e+00		         0.49000	-6.00000e+00	
1.90509   	7.50890e+00		         0.49167	-6.00000e+00	
1.91151   	6.66256e+00		         0.49333	-6.00000e+00	
1.91792   	6.12670e+00		         0.49500	-6.00000e+00	
1.92433   	5.66946e+00		         0.49667	-7.00000e+00	
1.93075   	5.26253e+00		         0.49833	-7.00000e+00	
1.93717   	5.10150e+00		         0.50000	-7.00000e+00	
1.94377   	4.98278e+00		         0.50167	-8.00000e+00	
1.95000   	4.79844e+00		         0.50333	-8.00000e+00	
1.95642   	4.60418e+00		         0.50500	-8.00000e+00	
1.96284   	4.71731e+00		         0.50667	-9.00000e+00	
1.96925   	4.69687e+00		         0.50833	-9.00000e+00	
1.97566   	4.74999e+00		         0.51000	-9.00000e+00	
1.98208   	4.75192e+00		         0.51167	-1.00000e+01	
1.98850   	4.43423e+00		         0.51333	-1.00000e+01	
1.99491   	4.14694e+00		         0.51500	-1.00000e+01	
2.00133   	3.74527e+00		         0.51667	-1.00000e+01	
2.00774   	3.44376e+00		         0.51833	-1.00000e+01	
2.01416   	3.17034e+00		         0.52000	-1.00000e+01	
2.02057   	3.13562e+00		         0.52167	-1.00000e+01	
2.02699   	2.98735e+00		         0.52333	-1.00000e+01	
2.03341   	2.84537e+00		         0.52500	-1.10000e+01	
2.03983   	2.66594e+00		         0.52667	-1.10000e+01	
2.04624   	2.43771e+00		         0.52833	-1.10000e+01	
2.05265   	2.19600e+00		         0.53000	-1.20000e+01	
2.05907   	1.97618e+00		         0.53167	-1.20000e+01	
2.06549   	1.91243e+00		         0.53333	-1.30000e+01	
2.07190   	1.85691e+00		         0.53500	-1.30000e+01	
2.07832   	1.82198e+00		         0.53667	-1.40000e+01	
2.08474   	1.66548e+00		         0.53833	-1.40000e+01	
2.09115   	1.37593e+00		         0.54000	-1.50000e+01	
2.09756   	8.73729e-01		         0.54167	-1.50000e+01	
2.10398   	1.59156e-01		         0.54333	-1.50000e+01	
2.11040   	-6.36661e-01		         0.54500	-1.60000e+01	
2.11681   	-1.33073e+00		         0.54667	-1.60000e+01	
2.12323   	-1.74364e+00		         0.54833	-1.60000e+01	
2.12964   	-1.85928e+00		         0.55000	-1.60000e+01	
2.13606   	-1.67483e+00		         0.55167	-1.60000e+01	
2.14248   	-1.55513e+00		         0.55333	-1.60000e+01	
2.14889   	-1.37779e+00		         0.55500	-1.60000e+01	
2.15531   	-1.32080e+00		         0.55667	-1.60000e+01	
2.16173   	-1.29642e+00		         0.55833	-1.60000e+01	
2.16814   	-1.41065e+00		         0.56000	-1.60000e+01	
2.17455   	-1.44976e+00		         0.56167	-1.60000e+01	
2.18097   	-1.55331e+00		         0.56333	-1.50000e+01	
2.18739   	-1.78170e+00		         0.56500	-1.50000e+01	
2.19380   	-2.04006e+00		         0.56667	-1.50000e+01	
2.20022   	-2.39237e+00		         0.56833	-1.50000e+01	
2.20664   	-2.61513e+00		         0.57000	-1.40000e+01	
2.21305   	-2.95893e+00		         0.57167	-1.40000e+01	
2.21947   	-3.29616e+00		         0.57333	-1.40000e+01	
2.22593   	-3.77343e+00		         0.57500	-1.30000e+01	
2.23230   	-4.16310e+00		         0.57667	-1.30000e+01	
2.23872   	-4.66902e+00		         0.57833	-1.30000e+01	
2.24513   	-4.90096e+00		         0.58000	-1.30000e+01	
2.25155   	-5.01870e+00		         0.58167	-1.30000e+01	
2.25796   	-4.99868e+00		         0.58333	-1.30000e+01	
2.26438   	-4.79045e+00		         0.58500	-1.30000e+01	
2.27080   	-4.42408e+00		         0.58667	-1.30000e+01	
2.27721   	-4.00661e+00		         0.58833	-1.30000e+01	
2.28363   	-3.62670e+00		         0.59000	-1.30000e+01	
2.29004   	-3.15156e+00		         0.59167	-1.30000e+01	
2.29647   	-2.69557e+00		         0.59333	-1.30000e+01	
2.30288   	-2.28828e+00		         0.59500	-1.30000e+01	
2.30929   	-2.14246e+00		         0.59667	-1.30000e+01	
2.31571   	-1.84389e+00		         0.59833	-1.30000e+01	
2.32212   	-1.70879e+00		         0.60000	-1.30000e+01	
2.32854   	-1.74889e+00		         0.60167	-1.30000e+01	
2.33495   	-1.76016e+00		         0.60333	-1.30000e+01	
2.34137   	-1.71747e+00		         0.60500	-1.30000e+01	
2.34779   	-1.76258e+00		         0.60667	-1.30000e+01	
2.35420   	-1.79922e+00		         0.60833	-1.30000e+01	
2.36062   	-1.72772e+00		         0.61000	-1.30000e+01	
2.36704   	-1.70659e+00		         0.61167	-1.20000e+01	
2.37345   	-1.60821e+00		         0.61333	-1.20000e+01	
2.37987   	-1.48949e+00		         0.61500	-1.20000e+01	
2.38628   	-1.33780e+00		         0.61667	-1.20000e+01	
2.39270   	-1.19611e+00		         0.61833	-1.20000e+01	
2.39912   	-1.03434e+00		         0.62000	-1.10000e+01	
2.40553   	-8.65141e-01		         0.62167	-1.10000e+01	
2.41194   	-7.17952e-01		         0.62333	-1.10000e+01	
2.41836   	-5.56820e-01		         0.62500	-1.10000e+01	
2.42506   	-3.98993e-01		         0.62667	-1.00000e+01	
2.43120   	-2.44309e-01		         0.62833	-1.00000e+01	
2.43761   	-7.37814e-02		         0.63000	-1.00000e+01	
2.44403   	6.39220e-02		         0.63167	-1.00000e+01	
2.45044   	8.50836e-02		         0.63333	-1.00000e+01	
2.45686   	-1.25726e-01		         0.63500	-1.00000e+01	
2.46328   	-6.73618e-01		         0.63667	-1.00000e+01	
2.46969   	-1.40081e+00		         0.63833	-1.00000e+01	
2.47611   	-2.46428e+00		         0.64000	-1.00000e+01	
2.48252   	-3.70371e+00		         0.64167	-1.00000e+01	
2.48894   	-4.88226e+00		         0.64333	-1.00000e+01	
2.49535   	-6.14045e+00		         0.64500	-1.00000e+01	
2.50178   	-7.48319e+00		         0.64667	-1.00000e+01	
2.50844   	-8.63184e+00		         0.64833	-9.00000e+00	
2.51460   	-9.45895e+00		         0.65000	-7.00000e+00	
2.52102   	-9.89213e+00		         0.65167	-5.00000e+00	
2.52743   	-9.96418e+00		         0.65333	-3.00000e+00	
2.53385   	-9.76105e+00		         0.65500	-1.00000e+00	
2.54026   	-9.14257e+00		         0.65667	2.00000e+00	
2.54668   	-8.30664e+00		         0.65833	6.00000e+00	
2.55310   	-7.47927e+00		         0.66000	9.00000e+00	
2.55951   	-6.30774e+00		         0.66167	1.30000e+01	
2.56593   	-4.92895e+00		         0.66333	1.70000e+01	
2.57235   	-3.55529e+00		         0.66500	2.10000e+01	
2.57877   	-2.07317e+00		         0.66667	2.50000e+01	
2.58518   	-6.62612e-01		         0.66833	2.80000e+01	
2.59159   	5.36321e-01		         0.67000	3.10000e+01	
2.59801   	1.57564e+00		         0.67167	3.40000e+01	
2.60442   	2.47018e+00		         0.67333	3.70000e+01	
2.61084   	3.00916e+00		         0.67500	3.90000e+01	
2.61726   	3.46169e+00		         0.67667	4.00000e+01	
2.62367   	3.85051e+00		         0.67833	4.20000e+01	
2.63009   	4.07726e+00		         0.68000	4.30000e+01	
2.63651   	4.14787e+00		         0.68167	4.50000e+01	
2.64292   	3.72917e+00		         0.68333	4.60000e+01	
2.64934   	3.61530e+00		         0.68500	4.80000e+01	
2.65575   	3.33436e+00		         0.68667	4.90000e+01	
			         0.68833	5.10000e+01	
			         0.69000	5.30000e+01	
			         0.69167	5.60000e+01	
			         0.69333	5.80000e+01	
			         0.69500	6.10000e+01	
			         0.69667	6.40000e+01	
			         0.69833	6.70000e+01	
			         0.70000	6.90000e+01	
			         0.70167	7.20000e+01	
			         0.70333	7.50000e+01	
			         0.70500	7.70000e+01	
			         0.70667	7.90000e+01	
			         0.70833	8.00000e+01	
			         0.71000	8.10000e+01	
			         0.71167	8.10000e+01	
			         0.71333	8.00000e+01	
			         0.71500	7.80000e+01	
			         0.71667	7.60000e+01	
			         0.71833	7.30000e+01	
			         0.72000	6.90000e+01	
			         0.72167	6.40000e+01	
			         0.72333	6.00000e+01	
			         0.72500	5.40000e+01	
			         0.72667	4.90000e+01	
			         0.72833	4.30000e+01	
			         0.73000	3.70000e+01	
			         0.73167	3.10000e+01	
			         0.73333	2.50000e+01	
			         0.73500	1.90000e+01	
			         0.73667	1.40000e+01	
			         0.73833	8.00000e+00	
			         0.74000	2.00000e+00	
			         0.74167	-3.00000e+00	
			         0.74333	-9.00000e+00	
			         0.74500	-1.60000e+01	
			         0.74667	-2.20000e+01	
			         0.74833	-2.80000e+01	
			         0.75000	-3.40000e+01	
			         0.75167	-4.00000e+01	
			         0.75333	-4.60000e+01	
			         0.75500	-5.20000e+01	
			         0.75667	-5.70000e+01	
			         0.75833	-6.20000e+01	
			         0.76000	-6.60000e+01	
			         0.76167	-7.00000e+01	
			         0.76333	-7.30000e+01	
			         0.76500	-7.60000e+01	
			         0.76667	-7.80000e+01	
			         0.76833	-7.90000e+01	
			         0.77000	-8.00000e+01	
			         0.77167	-8.10000e+01	
			         0.77333	-8.10000e+01	
			         0.77500	-8.10000e+01	
			         0.77667	-8.10000e+01	
			         0.77833	-8.00000e+01	
			         0.78000	-8.00000e+01	
			         0.78167	-7.90000e+01	
			         0.78333	-7.80000e+01	
			         0.78500	-7.70000e+01	
			         0.78667	-7.60000e+01	
			         0.78833	-7.60000e+01	
			         0.79000	-7.50000e+01	
			         0.79167	-7.40000e+01	
			         0.79333	-7.30000e+01	
			         0.79500	-7.20000e+01	
			         0.79667	-7.10000e+01	
			         0.79833	-7.00000e+01	
			         0.80000	-6.90000e+01	
			         0.80167	-6.80000e+01	
			         0.80333	-6.70000e+01	
			         0.80500	-6.60000e+01	
			         0.80667	-6.50000e+01	
			         0.80833	-6.40000e+01	
			         0.81000	-6.20000e+01	
			         0.81167	-6.10000e+01	
			         0.81333	-6.00000e+01	
			         0.81500	-5.80000e+01	
			         0.81667	-5.70000e+01	
			         0.81833	-5.50000e+01	
			         0.82000	-5.40000e+01	
			         0.82167	-5.20000e+01	
			         0.82333	-5.00000e+01	
			         0.82500	-4.90000e+01	
			         0.82667	-4.70000e+01	
			         0.82833	-4.60000e+01	
			         0.83000	-4.50000e+01	
			         0.83167	-4.30000e+01	
			         0.83333	-4.20000e+01	
			         0.83500	-4.10000e+01	
			         0.83667	-4.00000e+01	
			         0.83833	-3.90000e+01	
			         0.84000	-3.80000e+01	
			         0.84167	-3.80000e+01	
			         0.84333	-3.70000e+01	
			         0.84500	-3.60000e+01	
			         0.84667	-3.50000e+01	
			         0.84833	-3.50000e+01	
			         0.85000	-3.40000e+01	
			         0.85167	-3.30000e+01	
			         0.85333	-3.20000e+01	
			         0.85500	-3.00000e+01	
			         0.85667	-2.80000e+01	
			         0.85833	-2.50000e+01	
			         0.86000	-2.20000e+01	
			         0.86167	-1.80000e+01	
			         0.86333	-1.40000e+01	
			         0.86500	-9.00000e+00	
			         0.86667	-3.00000e+00	
			         0.86833	5.00000e+00	
			         0.87000	1.50000e+01	
			         0.87167	2.80000e+01	
			         0.87333	4.40000e+01	
			         0.87500	6.50000e+01	
			         0.87667	9.20000e+01	
			         0.87833	1.24000e+02	
			         0.88000	1.60000e+02	
			         0.88167	1.99000e+02	
			         0.88333	2.40000e+02	
			         0.88500	2.79000e+02	
			         0.88667	3.17000e+02	
			         0.88833	3.51000e+02	
			         0.89000	3.79000e+02	
			         0.89167	4.00000e+02	
			         0.89333	4.13000e+02	
			         0.89500	4.16000e+02	
			         0.89667	4.07000e+02	
			         0.89833	3.88000e+02	
			         0.90000	3.58000e+02	
			         0.90167	3.19000e+02	
			         0.90333	2.73000e+02	
			         0.90500	2.23000e+02	
			         0.90667	1.69000e+02	
			         0.90833	1.15000e+02	
			         0.91000	6.10000e+01	
			         0.91167	9.00000e+00	
			         0.91333	-3.90000e+01	
			         0.91500	-8.30000e+01	
			         0.91667	-1.22000e+02	
			         0.91833	-1.55000e+02	
			         0.92000	-1.82000e+02	
			         0.92167	-2.02000e+02	
			         0.92333	-2.15000e+02	
			         0.92500	-2.23000e+02	
			         0.92667	-2.26000e+02	
			         0.92833	-2.23000e+02	
			         0.93000	-2.17000e+02	
			         0.93167	-2.08000e+02	
			         0.93333	-1.96000e+02	
			         0.93500	-1.83000e+02	
			         0.93667	-1.70000e+02	
			         0.93833	-1.56000e+02	
			         0.94000	-1.42000e+02	
			         0.94167	-1.29000e+02	
			         0.94333	-1.17000e+02	
			         0.94500	-1.06000e+02	
			         0.94667	-9.70000e+01	
			         0.94833	-8.90000e+01	
			         0.95000	-8.10000e+01	
			         0.95167	-7.50000e+01	
			         0.95333	-7.00000e+01	
			         0.95500	-6.60000e+01	
			         0.95667	-6.20000e+01	
			         0.95833	-5.90000e+01	
			         0.96000	-5.70000e+01	
			         0.96167	-5.40000e+01	
			         0.96333	-5.30000e+01	
			         0.96500	-5.10000e+01	
			         0.96667	-5.00000e+01	
			         0.96833	-4.80000e+01	
			         0.97000	-4.70000e+01	
			         0.97167	-4.60000e+01	
			         0.97333	-4.40000e+01	
			         0.97500	-4.30000e+01	
			         0.97667	-4.20000e+01	
			         0.97833	-4.10000e+01	
			         0.98000	-4.00000e+01	
			         0.98167	-3.90000e+01	
			         0.98333	-3.80000e+01	
			         0.98500	-3.70000e+01	
			         0.98667	-3.60000e+01	
			         0.98833	-3.50000e+01	
			         0.99000	-3.40000e+01	
			         0.99167	-3.30000e+01	
			         0.99333	-3.20000e+01	
			         0.99500	-3.10000e+01	
			         0.99667	-3.00000e+01	
			         0.99833	-2.90000e+01	
			         1.00000	-2.80000e+01	
			         1.00167	-2.70000e+01	
			         1.00333	-2.60000e+01	
			         1.00500	-2.50000e+01	
			         1.00667	-2.40000e+01	
			         1.00833	-2.30000e+01	
			         1.01000	-2.30000e+01	
			         1.01167	-2.20000e+01	
			         1.01333	-2.10000e+01	
			         1.01500	-2.00000e+01	
			         1.01667	-1.90000e+01	
			         1.01833	-1.80000e+01	
			         1.02000	-1.70000e+01	
			         1.02167	-1.60000e+01	
			         1.02333	-1.50000e+01	
			         1.02500	-1.40000e+01	
			         1.02667	-1.30000e+01	
			         1.02833	-1.20000e+01	
			         1.03000	-1.00000e+01	
			         1.03167	-9.00000e+00	
			         1.03333	-8.00000e+00	
			         1.03500	-7.00000e+00	
			         1.03667	-6.00000e+00	
			         1.03833	-5.00000e+00	
			         1.04000	-4.00000e+00	
			         1.04167	-3.00000e+00	
			         1.04333	-2.00000e+00	
			         1.04500	0.00000e+00	
			         1.04667	1.00000e+00	
			         1.04833	2.00000e+00	
			         1.05000	3.00000e+00	
			         1.05167	4.00000e+00	
			         1.05333	5.00000e+00	
			         1.05500	7.00000e+00	
			         1.05667	8.00000e+00	
			         1.05833	1.00000e+01	
			         1.06000	1.10000e+01	
			         1.06167	1.30000e+01	
			         1.06333	1.40000e+01	
			         1.06500	1.60000e+01	
			         1.06667	1.80000e+01	
			         1.06833	2.00000e+01	
			         1.07000	2.20000e+01	
			         1.07167	2.40000e+01	
			         1.07333	2.60000e+01	
			         1.07500	2.90000e+01	
			         1.07667	3.10000e+01	
			         1.07833	3.40000e+01	
			         1.08000	3.60000e+01	
			         1.08167	3.90000e+01	
			         1.08333	4.20000e+01	
			         1.08500	4.50000e+01	
			         1.08667	4.80000e+01	
			         1.08833	5.10000e+01	
			         1.09000	5.40000e+01	
			         1.09167	5.70000e+01	
			         1.09333	6.10000e+01	
			         1.09500	6.40000e+01	
			         1.09667	6.70000e+01	
			         1.09833	7.00000e+01	
			         1.10000	7.40000e+01	
			         1.10167	7.70000e+01	
			         1.10333	8.00000e+01	
			         1.10500	8.30000e+01	
			         1.10667	8.60000e+01	
			         1.10833	8.90000e+01	
			         1.11000	9.20000e+01	
			         1.11167	9.40000e+01	
			         1.11333	9.70000e+01	
			         1.11500	9.90000e+01	
			         1.11667	1.01000e+02	
			         1.11833	1.03000e+02	
			         1.12000	1.05000e+02	
			         1.12167	1.06000e+02	
			         1.12333	1.08000e+02	
			         1.12500	1.09000e+02	
			         1.12667	1.10000e+02	
			         1.12833	1.10000e+02	
			         1.13000	1.11000e+02	
			         1.13167	1.11000e+02	
			         1.13333	1.11000e+02	
			         1.13500	1.11000e+02	
			         1.13667	1.11000e+02	
			         1.13833	1.10000e+02	
			         1.14000	1.10000e+02	
			         1.14167	1.09000e+02	
			         1.14333	1.07000e+02	
			         1.14500	1.06000e+02	
			         1.14667	1.04000e+02	
			         1.14833	1.02000e+02	
			         1.15000	1.00000e+02	
			         1.15167	9.80000e+01	
			         1.15333	9.50000e+01	
			         1.15500	9.20000e+01	
			         1.15667	8.90000e+01	
			         1.15833	8.60000e+01	
			         1.16000	8.20000e+01	
			         1.16167	7.80000e+01	
			         1.16333	7.30000e+01	
			         1.16500	6.80000e+01	
			         1.16667	6.30000e+01	
			         1.16833	5.70000e+01	
			         1.17000	5.20000e+01	
			         1.17167	4.60000e+01	
			         1.17333	3.90000e+01	
			         1.17500	3.30000e+01	
			         1.17667	2.60000e+01	
			         1.17833	2.00000e+01	
			         1.18000	1.30000e+01	
			         1.18167	7.00000e+00	
			         1.18333	0.00000e+00	
			         1.18500	-6.00000e+00	
			         1.18667	-1.30000e+01	
			         1.18833	-1.90000e+01	
			         1.19000	-2.50000e+01	
			         1.19167	-3.10000e+01	
			         1.19333	-3.60000e+01	
			         1.19500	-4.20000e+01	
			         1.19667	-4.70000e+01	
			         1.19833	-5.10000e+01	
			         1.20000	-5.60000e+01	
			         1.20167	-6.00000e+01	
			         1.20333	-6.40000e+01	
			         1.20500	-6.80000e+01	
			         1.20667	-7.10000e+01	
			         1.20833	-7.40000e+01	
			         1.21000	-7.70000e+01	
			         1.21167	-7.90000e+01	
			         1.21333	-8.10000e+01	
			         1.21500	-8.30000e+01	
			         1.21667	-8.50000e+01	
			         1.21833	-8.60000e+01	
			         1.22000	-8.70000e+01	
			         1.22167	-8.80000e+01	
			         1.22333	-8.90000e+01	
			         1.22500	-8.90000e+01	
			         1.22667	-8.90000e+01	
			         1.22833	-8.90000e+01	
			         1.23000	-8.90000e+01	
			         1.23167	-8.90000e+01	
			         1.23333	-8.80000e+01	
			         1.23500	-8.80000e+01	
			         1.23667	-8.70000e+01	
			         1.23833	-8.60000e+01	
			         1.24000	-8.50000e+01	
			         1.24167	-8.50000e+01	
			         1.24333	-8.40000e+01	
			         1.24500	-8.30000e+01	
			         1.24667	-8.20000e+01	
			         1.24833	-8.10000e+01	
			         1.25000	-8.00000e+01	
			         1.25167	-7.90000e+01	
			         1.25333	-7.80000e+01	
			         1.25500	-7.70000e+01	
			         1.25667	-7.50000e+01	
			         1.25833	-7.40000e+01	
			         1.26000	-7.30000e+01	
			         1.26167	-7.10000e+01	
			         1.26333	-7.00000e+01	
			         1.26500	-6.90000e+01	
			         1.26667	-6.70000e+01	
			         1.26833	-6.60000e+01	
			         1.27000	-6.40000e+01	
			         1.27167	-6.30000e+01	
			         1.27333	-6.20000e+01	
			         1.27500	-6.10000e+01	
			         1.27667	-6.00000e+01	
			         1.27833	-5.90000e+01	
			         1.28000	-5.80000e+01	
			         1.28167	-5.70000e+01	
			         1.28333	-5.60000e+01	
			         1.28500	-5.50000e+01	
			         1.28667	-5.40000e+01	
			         1.28833	-5.30000e+01	
			         1.29000	-5.10000e+01	
			         1.29167	-5.00000e+01	
			         1.29333	-4.80000e+01	
			         1.29500	-4.70000e+01	
			         1.29667	-4.50000e+01	
			         1.29833	-4.30000e+01	
			         1.30000	-4.20000e+01	
			         1.30167	-4.00000e+01	
			         1.30333	-3.90000e+01	
			         1.30500	-3.70000e+01	
			         1.30667	-3.60000e+01	
			         1.30833	-3.40000e+01	
			         1.31000	-3.30000e+01	
			         1.31167	-3.20000e+01	
			         1.31333	-3.10000e+01	
			         1.31500	-2.90000e+01	
			         1.31667	-2.80000e+01	
			         1.31833	-2.70000e+01	
			         1.32000	-2.60000e+01	
			         1.32167	-2.50000e+01	
			         1.32333	-2.40000e+01	
			         1.32500	-2.30000e+01	
			         1.32667	-2.10000e+01	
			         1.32833	-2.00000e+01	
			         1.33000	-1.90000e+01	
			         1.33167	-1.80000e+01	
			         1.33333	-1.70000e+01	
			         1.33500	-1.60000e+01	
			         1.33667	-1.50000e+01	
			         1.33833	-1.30000e+01	
			         1.34000	-1.20000e+01	
			         1.34167	-1.10000e+01	
			         1.34333	-1.00000e+01	
			         1.34500	-9.00000e+00	
			         1.34667	-8.00000e+00	
			         1.34833	-7.00000e+00	
			         1.35000	-6.00000e+00	
			         1.35167	-6.00000e+00	
			         1.35333	-5.00000e+00	
			         1.35500	-5.00000e+00	
			         1.35667	-4.00000e+00	
			         1.35833	-4.00000e+00	
			         1.36000	-3.00000e+00	
			         1.36167	-3.00000e+00	
			         1.36333	-3.00000e+00	
			         1.36500	-3.00000e+00	
			         1.36667	-3.00000e+00	
			         1.36833	-3.00000e+00	
			         1.37000	-3.00000e+00	
			         1.37167	-3.00000e+00	
			         1.37333	-2.00000e+00	
			         1.37500	-2.00000e+00	
			         1.37667	-2.00000e+00	
			         1.37833	-2.00000e+00	
			         1.38000	-2.00000e+00	
			         1.38167	-1.00000e+00	
			         1.38333	-1.00000e+00	
			         1.38500	-1.00000e+00	
			         1.38667	-1.00000e+00	
			         1.38833	-1.00000e+00	
			         1.39000	-1.00000e+00	
			         1.39167	-1.00000e+00	
			         1.39333	-1.00000e+00	
			         1.39500	-2.00000e+00	
			         1.39667	-2.00000e+00	
			         1.39833	-2.00000e+00	
			         1.40000	-3.00000e+00	
			         1.40167	-3.00000e+00	
			         1.40333	-4.00000e+00	
			         1.40500	-5.00000e+00	
			         1.40667	-5.00000e+00	
			         1.40833	-5.00000e+00	
			         1.41000	-6.00000e+00	
			         1.41167	-6.00000e+00	
			         1.41333	-7.00000e+00	
			         1.41500	-7.00000e+00	
			         1.41667	-7.00000e+00	
			         1.41833	-8.00000e+00	
			         1.42000	-8.00000e+00	
			         1.42167	-9.00000e+00	
			         1.42333	-9.00000e+00	
			         1.42500	-9.00000e+00	
			         1.42667	-9.00000e+00	
			         1.42833	-1.00000e+01	
			         1.43000	-1.00000e+01	
			         1.43167	-1.00000e+01	
			         1.43333	-1.00000e+01	
			         1.43500	-1.00000e+01	
			         1.43667	-1.00000e+01	
			         1.43833	-1.00000e+01	
			         1.44000	-1.00000e+01	
			         1.44167	-1.00000e+01	
			         1.44333	-1.00000e+01	
			         1.44500	-1.00000e+01	
			         1.44667	-9.00000e+00	
			         1.44833	-9.00000e+00	
			         1.45000	-9.00000e+00	
			         1.45167	-9.00000e+00	
			         1.45333	-9.00000e+00	
			         1.45500	-9.00000e+00	
			         1.45667	-9.00000e+00	
			         1.45833	-8.00000e+00	
			         1.46000	-8.00000e+00	
			         1.46167	-8.00000e+00	
			         1.46333	-8.00000e+00	
			         1.46500	-8.00000e+00	
			         1.46667	-8.00000e+00	
			         1.46833	-8.00000e+00	
			         1.47000	-8.00000e+00	
			         1.47167	-8.00000e+00	
			         1.47333	-8.00000e+00	
			         1.47500	-8.00000e+00	
			         1.47667	-9.00000e+00	
			         1.47833	-9.00000e+00	
			         1.48000	-9.00000e+00	
			         1.48167	-9.00000e+00	
			         1.48333	-9.00000e+00	
			         1.48500	-9.00000e+00	
			         1.48667	-9.00000e+00	
			         1.48833	-9.00000e+00	
			         1.49000	-8.00000e+00	
			         1.49167	-8.00000e+00	
			         1.49333	-8.00000e+00	
			         1.49500	-8.00000e+00	
			         1.49667	-7.00000e+00	
			         1.49833	-7.00000e+00	
			         1.50000	-7.00000e+00	
			         1.50167	-7.00000e+00	
			         1.50333	-7.00000e+00	
			         1.50500	-7.00000e+00	
			         1.50667	-7.00000e+00	
			         1.50833	-7.00000e+00	
			         1.51000	-8.00000e+00	
			         1.51167	-8.00000e+00	
			         1.51333	-9.00000e+00	
			         1.51500	-9.00000e+00	
			         1.51667	-9.00000e+00	
			         1.51833	-1.00000e+01	
			         1.52000	-1.00000e+01	
			         1.52167	-1.00000e+01	
			         1.52333	-9.00000e+00	
			         1.52500	-8.00000e+00	
			         1.52667	-7.00000e+00	
			         1.52833	-5.00000e+00	
			         1.53000	-2.00000e+00	
			         1.53167	1.00000e+00	
			         1.53333	4.00000e+00	
			         1.53500	7.00000e+00	
			         1.53667	1.10000e+01	
			         1.53833	1.50000e+01	
			         1.54000	1.90000e+01	
			         1.54167	2.30000e+01	
			         1.54333	2.70000e+01	
			         1.54500	3.10000e+01	
			         1.54667	3.40000e+01	
			         1.54833	3.70000e+01	
			         1.55000	4.00000e+01	
			         1.55167	4.20000e+01	
			         1.55333	4.40000e+01	
			         1.55500	4.50000e+01	
			         1.55667	4.60000e+01	
			         1.55833	4.80000e+01	
			         1.56000	4.90000e+01	
			         1.56167	5.00000e+01	
			         1.56333	5.20000e+01	
			         1.56500	5.30000e+01	
			         1.56667	5.50000e+01	
			         1.56833	5.80000e+01	
			         1.57000	6.00000e+01	
			         1.57167	6.30000e+01	
			         1.57333	6.60000e+01	
			         1.57500	6.90000e+01	
			         1.57667	7.20000e+01	
			         1.57833	7.50000e+01	
			         1.58000	7.80000e+01	
			         1.58167	8.00000e+01	
			         1.58333	8.20000e+01	
			         1.58500	8.30000e+01	
			         1.58667	8.40000e+01	
			         1.58833	8.30000e+01	
			         1.59000	8.10000e+01	
			         1.59167	7.90000e+01	
			         1.59333	7.50000e+01	
			         1.59500	7.10000e+01	
			         1.59667	6.60000e+01	
			         1.59833	6.10000e+01	
			         1.60000	5.50000e+01	
			         1.60167	4.90000e+01	
			         1.60333	4.20000e+01	
			         1.60500	3.60000e+01	
			         1.60667	2.90000e+01	
			         1.60833	2.30000e+01	
			         1.61000	1.70000e+01	
			         1.61167	1.20000e+01	
			         1.61333	6.00000e+00	
			         1.61500	1.00000e+00	
			         1.61667	-5.00000e+00	
			         1.61833	-1.00000e+01	
			         1.62000	-1.60000e+01	
			         1.62167	-2.10000e+01	
			         1.62333	-2.70000e+01	
			         1.62500	-3.30000e+01	
			         1.62667	-3.80000e+01	
			         1.62833	-4.40000e+01	
			         1.63000	-4.90000e+01	
			         1.63167	-5.40000e+01	
			         1.63333	-5.90000e+01	
			         1.63500	-6.30000e+01	
			         1.63667	-6.70000e+01	
			         1.63833	-7.00000e+01	
			         1.64000	-7.20000e+01	
			         1.64167	-7.40000e+01	
			         1.64333	-7.50000e+01	
			         1.64500	-7.60000e+01	
			         1.64667	-7.70000e+01	
			         1.64833	-7.70000e+01	
			         1.65000	-7.70000e+01	
			         1.65167	-7.60000e+01	
			         1.65333	-7.60000e+01	
			         1.65500	-7.50000e+01	
			         1.65667	-7.40000e+01	
			         1.65833	-7.30000e+01	
			         1.66000	-7.20000e+01	
			         1.66167	-7.00000e+01	
			         1.66333	-6.90000e+01	
			         1.66500	-6.80000e+01	
			         1.66667	-6.70000e+01	
			         1.66833	-6.60000e+01	
			         1.67000	-6.50000e+01	
			         1.67167	-6.40000e+01	
			         1.67333	-6.30000e+01	
			         1.67500	-6.20000e+01	
			         1.67667	-6.10000e+01	
			         1.67833	-6.00000e+01	
			         1.68000	-5.90000e+01	
			         1.68167	-5.80000e+01	
			         1.68333	-5.70000e+01	
			         1.68500	-5.60000e+01	
			         1.68667	-5.40000e+01	
			         1.68833	-5.30000e+01	
			         1.69000	-5.20000e+01	
			         1.69167	-5.10000e+01	
			         1.69333	-5.00000e+01	
			         1.69500	-4.90000e+01	
			         1.69667	-4.80000e+01	
			         1.69833	-4.70000e+01	
			         1.70000	-4.60000e+01	
			         1.70167	-4.50000e+01	
			         1.70333	-4.40000e+01	
			         1.70500	-4.30000e+01	
			         1.70667	-4.20000e+01	
			         1.70833	-4.10000e+01	
			         1.71000	-4.00000e+01	
			         1.71167	-3.90000e+01	
			         1.71333	-3.80000e+01	
			         1.71500	-3.70000e+01	
			         1.71667	-3.60000e+01	
			         1.71833	-3.50000e+01	
			         1.72000	-3.40000e+01	
			         1.72167	-3.30000e+01	
			         1.72333	-3.20000e+01	
			         1.72500	-3.10000e+01	
			         1.72667	-3.00000e+01	
			         1.72833	-3.00000e+01	
			         1.73000	-2.90000e+01	
			         1.73167	-2.70000e+01	
			         1.73333	-2.60000e+01	
			         1.73500	-2.30000e+01	
			         1.73667	-2.00000e+01	
			         1.73833	-1.70000e+01	
			         1.74000	-1.30000e+01	
			         1.74167	-8.00000e+00	
			         1.74333	-2.00000e+00	
			         1.74500	5.00000e+00	
			         1.74667	1.40000e+01	
			         1.74833	2.50000e+01	
			         1.75000	4.00000e+01	
			         1.75167	5.80000e+01	
			         1.75333	8.10000e+01	
			         1.75500	1.10000e+02	
			         1.75667	1.44000e+02	
			         1.75833	1.81000e+02	
			         1.76000	2.21000e+02	
			         1.76167	2.62000e+02	
			         1.76333	3.01000e+02	
			         1.76500	3.38000e+02	
			         1.76667	3.71000e+02	
			         1.76833	3.97000e+02	
			         1.77000	4.16000e+02	
			         1.77167	4.26000e+02	
			         1.77333	4.26000e+02	
			         1.77500	4.15000e+02	
			         1.77667	3.92000e+02	
			         1.77833	3.60000e+02	
			         1.78000	3.19000e+02	
			         1.78167	2.72000e+02	
			         1.78333	2.20000e+02	
			         1.78500	1.66000e+02	
			         1.78667	1.11000e+02	
			         1.78833	5.80000e+01	
			         1.79000	6.00000e+00	
			         1.79167	-4.20000e+01	
			         1.79333	-8.50000e+01	
			         1.79500	-1.23000e+02	
			         1.79667	-1.56000e+02	
			         1.79833	-1.82000e+02	
			         1.80000	-2.01000e+02	
			         1.80167	-2.15000e+02	
			         1.80333	-2.22000e+02	
			         1.80500	-2.25000e+02	
			         1.80667	-2.22000e+02	
			         1.80833	-2.16000e+02	
			         1.81000	-2.07000e+02	
			         1.81167	-1.95000e+02	
			         1.81333	-1.82000e+02	
			         1.81500	-1.68000e+02	
			         1.81667	-1.54000e+02	
			         1.81833	-1.40000e+02	
			         1.82000	-1.26000e+02	
			         1.82167	-1.14000e+02	
			         1.82333	-1.03000e+02	
			         1.82500	-9.30000e+01	
			         1.82667	-8.40000e+01	
			         1.82833	-7.70000e+01	
			         1.83000	-7.00000e+01	
			         1.83167	-6.50000e+01	
			         1.83333	-6.00000e+01	
			         1.83500	-5.60000e+01	
			         1.83667	-5.30000e+01	
			         1.83833	-5.10000e+01	
			         1.84000	-4.80000e+01	
			         1.84167	-4.60000e+01	
			         1.84333	-4.50000e+01	
			         1.84500	-4.30000e+01	
			         1.84667	-4.10000e+01	
			         1.84833	-4.00000e+01	
			         1.85000	-3.90000e+01	
			         1.85167	-3.70000e+01	
			         1.85333	-3.60000e+01	
			         1.85500	-3.50000e+01	
			         1.85667	-3.30000e+01	
			         1.85833	-3.20000e+01	
			         1.86000	-3.10000e+01	
			         1.86167	-3.00000e+01	
			         1.86333	-2.90000e+01	
			         1.86500	-2.80000e+01	
			         1.86667	-2.70000e+01	
			         1.86833	-2.70000e+01	
			         1.87000	-2.60000e+01	
			         1.87167	-2.50000e+01	
			         1.87333	-2.40000e+01	
			         1.87500	-2.30000e+01	
			         1.87667	-2.30000e+01	
			         1.87833	-2.20000e+01	
			         1.88000	-2.10000e+01	
			         1.88167	-2.00000e+01	
			         1.88333	-1.90000e+01	
			         1.88500	-1.80000e+01	
			         1.88667	-1.70000e+01	
			         1.88833	-1.70000e+01	
			         1.89000	-1.60000e+01	
			         1.89167	-1.50000e+01	
			         1.89333	-1.50000e+01	
			         1.89500	-1.40000e+01	
			         1.89667	-1.40000e+01	
			         1.89833	-1.30000e+01	
			         1.90000	-1.20000e+01	
			         1.90167	-1.20000e+01	
			         1.90333	-1.10000e+01	
			         1.90500	-1.10000e+01	
			         1.90667	-1.00000e+01	
			         1.90833	-9.00000e+00	
			         1.91000	-8.00000e+00	
			         1.91167	-7.00000e+00	
			         1.91333	-6.00000e+00	
			         1.91500	-5.00000e+00	
			         1.91667	-4.00000e+00	
			         1.91833	-2.00000e+00	
			         1.92000	-1.00000e+00	
			         1.92167	0.00000e+00	
			         1.92333	2.00000e+00	
			         1.92500	4.00000e+00	
			         1.92667	5.00000e+00	
			         1.92833	7.00000e+00	
			         1.93000	9.00000e+00	
			         1.93167	1.10000e+01	
			         1.93333	1.20000e+01	
			         1.93500	1.40000e+01	
			         1.93667	1.60000e+01	
			         1.93833	1.80000e+01	
			         1.94000	2.00000e+01	
			         1.94167	2.20000e+01	
			         1.94333	2.40000e+01	
			         1.94500	2.60000e+01	
			         1.94667	2.80000e+01	
			         1.94833	2.90000e+01	
			         1.95000	3.10000e+01	
			         1.95167	3.30000e+01	
			         1.95333	3.50000e+01	
			         1.95500	3.80000e+01	
			         1.95667	4.00000e+01	
			         1.95833	4.20000e+01	
			         1.96000	4.40000e+01	
			         1.96167	4.70000e+01	
			         1.96333	4.90000e+01	
			         1.96500	5.20000e+01	
			         1.96667	5.50000e+01	
			         1.96833	5.70000e+01	
			         1.97000	6.00000e+01	
			         1.97167	6.30000e+01	
			         1.97333	6.60000e+01	
			         1.97500	6.90000e+01	
			         1.97667	7.20000e+01	
			         1.97833	7.40000e+01	
			         1.98000	7.70000e+01	
			         1.98167	8.00000e+01	
			         1.98333	8.30000e+01	
			         1.98500	8.60000e+01	
			         1.98667	8.90000e+01	
			         1.98833	9.20000e+01	
			         1.99000	9.50000e+01	
			         1.99167	9.80000e+01	
			         1.99333	1.01000e+02	
			         1.99500	1.03000e+02	
			         1.99667	1.05000e+02	
			         1.99833	1.07000e+02	
			         2.00000	1.09000e+02	
			         2.00167	1.11000e+02	
			         2.00333	1.12000e+02	
			         2.00500	1.12000e+02	
			         2.00667	1.13000e+02	
			         2.00833	1.13000e+02	
			         2.01000	1.13000e+02	
			         2.01167	1.12000e+02	
			         2.01333	1.12000e+02	
			         2.01500	1.11000e+02	
			         2.01667	1.10000e+02	
			         2.01833	1.09000e+02	
			         2.02000	1.08000e+02	
			         2.02167	1.06000e+02	
			         2.02333	1.05000e+02	
			         2.02500	1.03000e+02	
			         2.02667	1.01000e+02	
			         2.02833	9.90000e+01	
			         2.03000	9.70000e+01	
			         2.03167	9.40000e+01	
			         2.03333	9.10000e+01	
			         2.03500	8.80000e+01	
			         2.03667	8.50000e+01	
			         2.03833	8.20000e+01	
			         2.04000	7.80000e+01	
			         2.04167	7.40000e+01	
			         2.04333	7.00000e+01	
			         2.04500	6.50000e+01	
			         2.04667	6.10000e+01	
			         2.04833	5.50000e+01	
			         2.05000	5.00000e+01	
			         2.05167	4.40000e+01	
			         2.05333	3.80000e+01	
			         2.05500	3.20000e+01	
			         2.05667	2.60000e+01	
			         2.05833	1.90000e+01	
			         2.06000	1.20000e+01	
			         2.06167	5.00000e+00	
			         2.06333	-2.00000e+00	
			         2.06500	-8.00000e+00	
			         2.06667	-1.50000e+01	
			         2.06833	-2.20000e+01	
			         2.07000	-2.80000e+01	
			         2.07167	-3.40000e+01	
			         2.07333	-4.00000e+01	
			         2.07500	-4.40000e+01	
			         2.07667	-4.90000e+01	
			         2.07833	-5.30000e+01	
			         2.08000	-5.60000e+01	
			         2.08167	-5.90000e+01	
			         2.08333	-6.20000e+01	
			         2.08500	-6.40000e+01	
			         2.08667	-6.60000e+01	
			         2.08833	-6.80000e+01	
			         2.09000	-6.90000e+01	
			         2.09167	-7.10000e+01	
			         2.09333	-7.30000e+01	
			         2.09500	-7.40000e+01	
			         2.09667	-7.60000e+01	
			         2.09833	-7.70000e+01	
			         2.10000	-7.90000e+01	
			         2.10167	-8.00000e+01	
			         2.10333	-8.10000e+01	
			         2.10500	-8.20000e+01	
			         2.10667	-8.20000e+01	
			         2.10833	-8.30000e+01	
			         2.11000	-8.30000e+01	
			         2.11167	-8.30000e+01	
			         2.11333	-8.30000e+01	
			         2.11500	-8.30000e+01	
			         2.11667	-8.30000e+01	
			         2.11833	-8.30000e+01	
			         2.12000	-8.30000e+01	
			         2.12167	-8.30000e+01	
			         2.12333	-8.20000e+01	
			         2.12500	-8.20000e+01	
			         2.12667	-8.10000e+01	
			         2.12833	-8.00000e+01	
			         2.13000	-7.90000e+01	
			         2.13167	-7.80000e+01	
			         2.13333	-7.70000e+01	
			         2.13500	-7.50000e+01	
			         2.13667	-7.40000e+01	
			         2.13833	-7.20000e+01	
			         2.14000	-7.00000e+01	
			         2.14167	-6.80000e+01	
			         2.14333	-6.70000e+01	
			         2.14500	-6.50000e+01	
			         2.14667	-6.30000e+01	
			         2.14833	-6.10000e+01	
			         2.15000	-5.90000e+01	
			         2.15167	-5.70000e+01	
			         2.15333	-5.50000e+01	
			         2.15500	-5.40000e+01	
			         2.15667	-5.20000e+01	
			         2.15833	-5.00000e+01	
			         2.16000	-4.90000e+01	
			         2.16167	-4.70000e+01	
			         2.16333	-4.50000e+01	
			         2.16500	-4.40000e+01	
			         2.16667	-4.30000e+01	
			         2.16833	-4.10000e+01	
			         2.17000	-4.00000e+01	
			         2.17167	-3.90000e+01	
			         2.17333	-3.80000e+01	
			         2.17500	-3.60000e+01	
			         2.17667	-3.50000e+01	
			         2.17833	-3.40000e+01	
			         2.18000	-3.30000e+01	
			         2.18167	-3.20000e+01	
			         2.18333	-3.00000e+01	
			         2.18500	-2.90000e+01	
			         2.18667	-2.70000e+01	
			         2.18833	-2.60000e+01	
			         2.19000	-2.40000e+01	
			         2.19167	-2.20000e+01	
			         2.19333	-2.10000e+01	
			         2.19500	-1.90000e+01	
			         2.19667	-1.80000e+01	
			         2.19833	-1.60000e+01	
			         2.20000	-1.50000e+01	
			         2.20167	-1.40000e+01	
			         2.20333	-1.30000e+01	
			         2.20500	-1.20000e+01	
			         2.20667	-1.10000e+01	
			         2.20833	-1.00000e+01	
			         2.21000	-1.00000e+01	
			         2.21167	-9.00000e+00	
			         2.21333	-8.00000e+00	
			         2.21500	-7.00000e+00	
			         2.21667	-6.00000e+00	
			         2.21833	-5.00000e+00	
			         2.22000	-4.00000e+00	
			         2.22167	-3.00000e+00	
			         2.22333	-3.00000e+00	
			         2.22500	-3.00000e+00	
			         2.22667	-2.00000e+00	
			         2.22833	-2.00000e+00	
			         2.23000	-2.00000e+00	
			         2.23167	-2.00000e+00	
			         2.23333	-2.00000e+00	
			         2.23500	-3.00000e+00	
			         2.23667	-3.00000e+00	
			         2.23833	-2.00000e+00	
			         2.24000	-2.00000e+00	
			         2.24167	-2.00000e+00	
			         2.24333	-1.00000e+00	
			         2.24500	-1.00000e+00	
			         2.24667	0.00000e+00	
			         2.24833	0.00000e+00	
			         2.25000	1.00000e+00	
			         2.25167	1.00000e+00	
			         2.25333	2.00000e+00	
			         2.25500	2.00000e+00	
			         2.25667	2.00000e+00	
			         2.25833	2.00000e+00	
			         2.26000	2.00000e+00	
			         2.26167	2.00000e+00	
			         2.26333	2.00000e+00	
			         2.26500	2.00000e+00	
			         2.26667	2.00000e+00	
			         2.26833	2.00000e+00	
			         2.27000	2.00000e+00	
			         2.27167	2.00000e+00	
			         2.27333	2.00000e+00	
			         2.27500	2.00000e+00	
			         2.27667	2.00000e+00	
			         2.27833	2.00000e+00	
			         2.28000	1.00000e+00	
			         2.28167	1.00000e+00	
			         2.28333	0.00000e+00	
			         2.28500	-1.00000e+00	
			         2.28667	-2.00000e+00	
			         2.28833	-3.00000e+00	
			         2.29000	-4.00000e+00	
			         2.29167	-6.00000e+00	
			         2.29333	-7.00000e+00	
			         2.29500	-8.00000e+00	
			         2.29667	-8.00000e+00	
			         2.29833	-9.00000e+00	
			         2.30000	-1.00000e+01	
			         2.30167	-1.00000e+01	
			         2.30333	-1.00000e+01	
			         2.30500	-1.10000e+01	
			         2.30667	-1.10000e+01	
			         2.30833	-1.10000e+01	
			         2.31000	-1.10000e+01	
			         2.31167	-1.10000e+01	
			         2.31333	-1.10000e+01	
			         2.31500	-1.10000e+01	
			         2.31667	-1.10000e+01	
			         2.31833	-1.10000e+01	
			         2.32000	-1.10000e+01	
			         2.32167	-1.00000e+01	
			         2.32333	-1.00000e+01	
			         2.32500	-1.00000e+01	
			         2.32667	-1.00000e+01	
			         2.32833	-9.00000e+00	
			         2.33000	-9.00000e+00	
			         2.33167	-9.00000e+00	
			         2.33333	-9.00000e+00	
			         2.33500	-8.00000e+00	
			         2.33667	-8.00000e+00	
			         2.33833	-8.00000e+00	
			         2.34000	-8.00000e+00	
			         2.34167	-8.00000e+00	
			         2.34333	-8.00000e+00	
			         2.34500	-8.00000e+00	
			         2.34667	-8.00000e+00	
			         2.34833	-8.00000e+00	
			         2.35000	-8.00000e+00	
			         2.35167	-8.00000e+00	
			         2.35333	-7.00000e+00	
			         2.35500	-7.00000e+00	
			         2.35667	-7.00000e+00	
			         2.35833	-6.00000e+00	
			         2.36000	-6.00000e+00	
			         2.36167	-5.00000e+00	
			         2.36333	-5.00000e+00	
			         2.36500	-5.00000e+00	
			         2.36667	-4.00000e+00	
			         2.36833	-4.00000e+00	
			         2.37000	-4.00000e+00	
			         2.37167	-4.00000e+00	
			         2.37333	-5.00000e+00	
			         2.37500	-5.00000e+00	
			         2.37667	-5.00000e+00	
			         2.37833	-6.00000e+00	
			         2.38000	-6.00000e+00	
			         2.38167	-6.00000e+00	
			         2.38333	-6.00000e+00	
			         2.38500	-7.00000e+00	
			         2.38667	-7.00000e+00	
			         2.38833	-7.00000e+00	
			         2.39000	-7.00000e+00	
			         2.39167	-6.00000e+00	
			         2.39333	-6.00000e+00	
			         2.39500	-5.00000e+00	
			         2.39667	-4.00000e+00	
			         2.39833	-3.00000e+00	
			         2.40000	-2.00000e+00	
			         2.40167	0.00000e+00	
			         2.40333	2.00000e+00	
			         2.40500	4.00000e+00	
			         2.40667	7.00000e+00	
			         2.40833	1.00000e+01	
			         2.41000	1.30000e+01	
			         2.41167	1.70000e+01	
			         2.41333	2.00000e+01	
			         2.41500	2.40000e+01	
			         2.41667	2.80000e+01	
			         2.41833	3.20000e+01	
			         2.42000	3.60000e+01	
			         2.42167	3.90000e+01	
			         2.42333	4.30000e+01	
			         2.42500	4.60000e+01	
			         2.42667	4.80000e+01	
			         2.42833	5.10000e+01	
			         2.43000	5.30000e+01	
			         2.43167	5.50000e+01	
			         2.43333	5.70000e+01	
			         2.43500	5.80000e+01	
			         2.43667	6.00000e+01	
			         2.43833	6.10000e+01	
			         2.44000	6.30000e+01	
			         2.44167	6.50000e+01	
			         2.44333	6.70000e+01	
			         2.44500	7.00000e+01	
			         2.44667	7.20000e+01	
			         2.44833	7.50000e+01	
			         2.45000	7.80000e+01	
			         2.45167	8.00000e+01	
			         2.45333	8.30000e+01	
			         2.45500	8.60000e+01	
			         2.45667	8.80000e+01	
			         2.45833	9.00000e+01	
			         2.46000	9.10000e+01	
			         2.46167	9.20000e+01	
			         2.46333	9.20000e+01	
			         2.46500	9.10000e+01	
			         2.46667	8.90000e+01	
			         2.46833	8.70000e+01	
			         2.47000	8.30000e+01	
			         2.47167	8.00000e+01	
			         2.47333	7.50000e+01	
			         2.47500	7.00000e+01	
			         2.47667	6.40000e+01	
			         2.47833	5.80000e+01	
			         2.48000	5.20000e+01	
			         2.48167	4.60000e+01	
			         2.48333	4.00000e+01	
			         2.48500	3.30000e+01	
			         2.48667	2.70000e+01	
			         2.48833	2.10000e+01	
			         2.49000	1.50000e+01	
			         2.49167	9.00000e+00	
			         2.49333	3.00000e+00	
			         2.49500	-4.00000e+00	
			         2.49667	-1.00000e+01	
			         2.49833	-1.70000e+01	
			         2.50000	-2.30000e+01	
			         2.50167	-3.00000e+01	
			         2.50333	-3.60000e+01	
			         2.50500	-4.20000e+01	
			         2.50667	-4.80000e+01	
			         2.50833	-5.30000e+01	
			         2.51000	-5.80000e+01	
			         2.51167	-6.20000e+01	
			         2.51333	-6.60000e+01	
			         2.51500	-6.90000e+01	
			         2.51667	-7.20000e+01	
			         2.51833	-7.30000e+01	
			         2.52000	-7.50000e+01	
			         2.52167	-7.60000e+01	
			         2.52333	-7.60000e+01	
			         2.52500	-7.60000e+01	
			         2.52667	-7.50000e+01	
			         2.52833	-7.50000e+01	
			         2.53000	-7.40000e+01	
			         2.53167	-7.30000e+01	
			         2.53333	-7.10000e+01	
			         2.53500	-7.00000e+01	
			         2.53667	-6.90000e+01	
			         2.53833	-6.70000e+01	
			         2.54000	-6.60000e+01	
			         2.54167	-6.50000e+01	
			         2.54333	-6.30000e+01	
			         2.54500	-6.20000e+01	
			         2.54667	-6.10000e+01	
			         2.54833	-6.00000e+01	
			         2.55000	-5.90000e+01	
			         2.55167	-5.90000e+01	
			         2.55333	-5.80000e+01	
			         2.55500	-5.80000e+01	
			         2.55667	-5.70000e+01	
			         2.55833	-5.70000e+01	
			         2.56000	-5.60000e+01	
			         2.56167	-5.60000e+01	
			         2.56333	-5.50000e+01	
			         2.56500	-5.40000e+01	
			         2.56667	-5.30000e+01	
			         2.56833	-5.10000e+01	
			         2.57000	-4.90000e+01	
			         2.57167	-4.80000e+01	
			         2.57333	-4.60000e+01	
			         2.57500	-4.40000e+01	
			         2.57667	-4.20000e+01	
			         2.57833	-4.00000e+01	
			         2.58000	-3.80000e+01	
			         2.58167	-3.60000e+01	
			         2.58333	-3.40000e+01	
			         2.58500	-3.20000e+01	
			         2.58667	-3.00000e+01	
			         2.58833	-2.80000e+01	
			         2.59000	-2.60000e+01	
			         2.59167	-2.40000e+01	
			         2.59333	-2.30000e+01	
			         2.59500	-2.10000e+01	
			         2.59667	-2.00000e+01	
			         2.59833	-1.80000e+01	
			         2.60000	-1.80000e+01	
			         2.60167	-1.70000e+01	
			         2.60333	-1.70000e+01	
			         2.60500	-1.70000e+01	
			         2.60667	-1.80000e+01	
			         2.60833	-1.90000e+01	
			         2.61000	-1.90000e+01	
			         2.61167	-1.90000e+01	
			         2.61333	-1.80000e+01	
			         2.61500	-1.60000e+01	
			         2.61667	-1.30000e+01	
			         2.61833	-8.00000e+00	
			         2.62000	-2.00000e+00	
			         2.62167	6.00000e+00	
			         2.62333	1.70000e+01	
			         2.62500	3.20000e+01	
			         2.62667	4.90000e+01	
			         2.62833	7.20000e+01	
			         2.63000	1.00000e+02	
			         2.63167	1.34000e+02	
			         2.63333	1.72000e+02	
			         2.63500	2.15000e+02	
			         2.63667	2.61000e+02	
			         2.63833	3.06000e+02	
			         2.64000	3.50000e+02	
			         2.64167	3.90000e+02	
			         2.64333	4.25000e+02	
			         2.64500	4.54000e+02	
			         2.64667	4.75000e+02	
			         2.64833	4.86000e+02	
			         2.65000	4.86000e+02	
			         2.65167	4.74000e+02	
			         2.65333	4.51000e+02	
			         2.65500	4.17000e+02	
			         2.65667	3.74000e+02	
			         2.65833	3.24000e+02	
			         2.66000	2.69000e+02	
			         2.66167	2.12000e+02	
			         2.66333	1.54000e+02	
			         2.66500	9.60000e+01	
			         2.66667	4.10000e+01	
			         2.66833	-1.20000e+01	
			         2.67000	-6.00000e+01	
			         2.67167	-1.04000e+02	
			         2.67333	-1.42000e+02	
			         2.67500	-1.73000e+02	
			         2.67667	-1.98000e+02	
			         2.67833	-2.17000e+02	
			         2.68000	-2.30000e+02	
			         2.68167	-2.37000e+02	
			         2.68333	-2.39000e+02	
			         2.68500	-2.36000e+02	
			         2.68667	-2.30000e+02	
			         2.68833	-2.20000e+02	
