Velocity (TVI), in cm/s

Time (s) :	Trace 1 : 		Ecg : 		
0.02752   	-1.89004e+00		         0.00000	6.30000e+01	
0.03662   	-1.09470e+00		         0.00167	7.60000e+01	
0.04602   	-4.76293e-01		         0.00333	9.00000e+01	
0.05510   	-1.41749e+00		         0.00500	1.04000e+02	
0.06421   	-2.10117e+00		         0.00667	1.19000e+02	
0.07331   	-2.09115e+00		         0.00833	1.34000e+02	
0.08271   	-1.17187e+00		         0.01000	1.48000e+02	
0.09179   	-1.48057e-02		         0.01167	1.63000e+02	
0.10090   	1.76306e+00		         0.01333	1.77000e+02	
0.11000   	3.52375e+00		         0.01500	1.92000e+02	
0.11939   	4.68858e+00		         0.01667	2.04000e+02	
0.12848   	5.27990e+00		         0.01833	2.15000e+02	
0.13798   	5.29926e+00		         0.02000	2.22000e+02	
0.14669   	5.10464e+00		         0.02167	2.24000e+02	
0.15608   	4.98339e+00		         0.02333	2.21000e+02	
0.16517   	4.89558e+00		         0.02500	2.11000e+02	
0.17428   	4.88374e+00		         0.02667	1.94000e+02	
0.18338   	4.77622e+00		         0.02833	1.72000e+02	
0.19278   	4.73021e+00		         0.03000	1.43000e+02	
0.20186   	4.65182e+00		         0.03167	1.09000e+02	
0.21097   	4.61945e+00		         0.03333	7.10000e+01	
0.22007   	4.55954e+00		         0.03500	2.90000e+01	
0.22946   	4.57658e+00		         0.03667	-1.50000e+01	
0.23855   	4.40900e+00		         0.03833	-6.00000e+01	
0.24766   	4.31125e+00		         0.04000	-1.02000e+02	
0.25676   	4.11715e+00		         0.04167	-1.42000e+02	
0.26615   	4.05428e+00		         0.04333	-1.76000e+02	
0.27524   	3.95216e+00		         0.04500	-2.05000e+02	
0.28435   	3.90675e+00		         0.04667	-2.26000e+02	
0.29345   	3.80022e+00		         0.04833	-2.41000e+02	
0.30284   	3.62544e+00		         0.05000	-2.49000e+02	
0.31193   	3.42584e+00		         0.05167	-2.50000e+02	
0.32104   	3.25680e+00		         0.05333	-2.47000e+02	
0.33014   	3.10730e+00		         0.05500	-2.39000e+02	
0.33953   	3.01835e+00		         0.05667	-2.27000e+02	
0.34862   	2.91828e+00		         0.05833	-2.12000e+02	
0.35773   	2.85750e+00		         0.06000	-1.95000e+02	
0.36683   	2.66587e+00		         0.06167	-1.77000e+02	
0.37624   	2.42629e+00		         0.06333	-1.58000e+02	
0.38531   	2.09335e+00		         0.06500	-1.39000e+02	
0.39442   	1.79850e+00		         0.06667	-1.21000e+02	
0.40352   	1.31475e+00		         0.06833	-1.05000e+02	
0.41292   	5.97854e-01		         0.07000	-9.00000e+01	
0.42200   	-5.79448e-01		         0.07167	-7.60000e+01	
0.43111   	-1.39419e+00		         0.07333	-6.40000e+01	
0.44022   	-1.23998e+00		         0.07500	-5.30000e+01	
0.44961   	-2.16956e-01		         0.07667	-4.40000e+01	
0.45869   	9.09676e-01		         0.07833	-3.60000e+01	
0.46780   	1.54884e+00		         0.08000	-2.80000e+01	
0.47690   	1.89845e+00		         0.08167	-2.20000e+01	
0.48629   	2.08117e+00		         0.08333	-1.70000e+01	
0.49539   	2.10144e+00		         0.08500	-1.20000e+01	
0.50449   	2.03726e+00		         0.08667	-8.00000e+00	
0.51359   	1.38326e+00		         0.08833	-5.00000e+00	
0.52297   	4.82479e-01		         0.09000	-3.00000e+00	
0.53207   	-1.06353e+00		         0.09167	-1.00000e+00	
0.54118   	-2.37039e+00		         0.09333	0.00000e+00	
0.55028   	-3.52659e+00		         0.09500	1.00000e+00	
0.55968   	-4.22144e+00		         0.09667	2.00000e+00	
0.56876   	-4.55446e+00		         0.09833	3.00000e+00	
0.57787   	-4.65420e+00		         0.10000	3.00000e+00	
0.58697   	-4.37860e+00		         0.10167	2.00000e+00	
0.59637   	-3.95501e+00		         0.10333	2.00000e+00	
0.60545   	-3.70914e+00		         0.10500	2.00000e+00	
0.61456   	-3.58939e+00		         0.10667	2.00000e+00	
0.62367   	-3.58464e+00		         0.10833	2.00000e+00	
0.63305   	-3.44383e+00		         0.11000	2.00000e+00	
0.64215   	-3.20893e+00		         0.11167	2.00000e+00	
0.65125   	-2.85886e+00		         0.11333	1.00000e+00	
0.66036   	-2.41273e+00		         0.11500	1.00000e+00	
0.66974   	-2.02770e+00		         0.11667	1.00000e+00	
0.67884   	-1.61851e+00		         0.11833	1.00000e+00	
0.68794   	-1.21970e+00		         0.12000	1.00000e+00	
0.69705   	-8.62303e-01		         0.12167	1.00000e+00	
0.70645   	-6.86568e-01		         0.12333	1.00000e+00	
0.71553   	-6.49634e-01		         0.12500	2.00000e+00	
0.72463   	-6.40534e-01		         0.12667	3.00000e+00	
0.73374   	-6.23836e-01		         0.12833	4.00000e+00	
0.74312   	-5.84629e-01		         0.13000	5.00000e+00	
0.75222   	-5.77889e-01		         0.13167	6.00000e+00	
0.76132   	-4.54065e-01		         0.13333	8.00000e+00	
0.77043   	-3.63184e-01		         0.13500	9.00000e+00	
0.77982   	-2.02184e-01		         0.13667	1.00000e+01	
0.78891   	-1.39986e-01		         0.13833	1.10000e+01	
0.79801   	-3.46126e-02		         0.14000	1.20000e+01	
0.80711   	-2.21574e-02		         0.14167	1.20000e+01	
0.81652   	-5.54758e-02		         0.14333	1.20000e+01	
0.82560   	-1.07913e-01		         0.14500	1.10000e+01	
0.83507   	-1.45882e-01		         0.14667	1.10000e+01	
0.84381   	-1.87071e-01		         0.14833	1.10000e+01	
0.85320   	-2.20094e-01		         0.15000	1.00000e+01	
0.86229   	-2.20682e-01		         0.15167	9.00000e+00	
0.87139   	-2.06281e-01		         0.15333	9.00000e+00	
0.88050   	-2.52735e-01		         0.15500	8.00000e+00	
0.88990   	-3.56048e-01		         0.15667	8.00000e+00	
0.89898   	-5.08520e-01		         0.15833	8.00000e+00	
0.90808   	-9.10340e-01		         0.16000	8.00000e+00	
0.91719   	-1.68234e+00		         0.16167	8.00000e+00	
0.92658   	-2.80819e+00		         0.16333	8.00000e+00	
0.93567   	-4.08968e+00		         0.16500	8.00000e+00	
0.94477   	-5.39043e+00		         0.16667	9.00000e+00	
0.95388   	-6.68946e+00		         0.16833	9.00000e+00	
0.96328   	-7.50813e+00		         0.17000	9.00000e+00	
0.97236   	-7.75892e+00		         0.17167	9.00000e+00	
0.98146   	-7.22891e+00		         0.17333	8.00000e+00	
0.99057   	-6.46398e+00		         0.17500	8.00000e+00	
0.99995   	-5.58278e+00		         0.17667	8.00000e+00	
1.00905   	-4.80754e+00		         0.17833	7.00000e+00	
1.01815   	-4.53611e+00		         0.18000	7.00000e+00	
1.02726   	-4.50228e+00		         0.18167	6.00000e+00	
1.03665   	-4.31553e+00		         0.18333	6.00000e+00	
1.04574   	-3.34666e+00		         0.18500	6.00000e+00	
1.05485   	-1.03066e+00		         0.18667	6.00000e+00	
1.06395   	-8.28789e-01		         0.18833	6.00000e+00	
1.07335   	-1.08722e+00		         0.19000	6.00000e+00	
1.08243   	-2.37473e+00		         0.19167	7.00000e+00	
1.09153   	-1.90174e+00		         0.19333	8.00000e+00	
1.10064   	-1.09657e+00		         0.19500	9.00000e+00	
1.11003   	3.27864e-02		         0.19667	1.00000e+01	
1.11912   	1.82035e+00		         0.19833	1.10000e+01	
1.12822   	3.44396e+00		         0.20000	1.30000e+01	
1.13733   	4.64994e+00		         0.20167	1.50000e+01	
1.14672   	5.02060e+00		         0.20333	1.60000e+01	
1.15581   	5.02963e+00		         0.20500	1.80000e+01	
1.16491   	4.77439e+00		         0.20667	1.90000e+01	
1.17402   	4.63566e+00		         0.20833	2.00000e+01	
1.18341   	4.58303e+00		         0.21000	2.10000e+01	
1.19250   	4.51934e+00		         0.21167	2.10000e+01	
1.20160   	4.48687e+00		         0.21333	2.10000e+01	
1.21071   	4.48198e+00		         0.21500	2.00000e+01	
1.22011   	4.50354e+00		         0.21667	2.00000e+01	
1.22919   	4.46999e+00		         0.21833	1.90000e+01	
1.23829   	4.40349e+00		         0.22000	1.80000e+01	
1.24740   	4.32031e+00		         0.22167	1.60000e+01	
1.25679   	4.24214e+00		         0.22333	1.40000e+01	
1.26588   	4.13615e+00		         0.22500	1.20000e+01	
1.27499   	4.09662e+00		         0.22667	1.10000e+01	
1.28409   	3.97247e+00		         0.22833	9.00000e+00	
1.29348   	3.95277e+00		         0.23000	8.00000e+00	
1.30257   	3.87620e+00		         0.23167	7.00000e+00	
1.31168   	3.83346e+00		         0.23333	6.00000e+00	
1.32078   	3.67961e+00		         0.23500	6.00000e+00	
1.33017   	3.53845e+00		         0.23667	6.00000e+00	
1.33926   	3.41353e+00		         0.23833	6.00000e+00	
1.34836   	3.27282e+00		         0.24000	6.00000e+00	
1.35747   	3.15136e+00		         0.24167	7.00000e+00	
1.36687   	2.97109e+00		         0.24333	7.00000e+00	
1.37595   	2.75566e+00		         0.24500	7.00000e+00	
1.38506   	2.47912e+00		         0.24667	7.00000e+00	
1.39416   	2.29151e+00		         0.24833	7.00000e+00	
1.40355   	2.15355e+00		         0.25000	7.00000e+00	
1.41264   	1.85093e+00		         0.25167	6.00000e+00	
1.42175   	1.34347e+00		         0.25333	5.00000e+00	
1.43085   	5.32316e-01		         0.25500	4.00000e+00	
1.44024   	-3.94099e-01		         0.25667	4.00000e+00	
1.44942   	-8.28413e-01		         0.25833	3.00000e+00	
1.45844   	-1.59807e-01		         0.26000	2.00000e+00	
1.46754   	9.72941e-01		         0.26167	2.00000e+00	
1.47694   	1.82726e+00		         0.26333	2.00000e+00	
1.48602   	1.99197e+00		         0.26500	2.00000e+00	
1.49513   	2.12817e+00		         0.26667	3.00000e+00	
1.50423   	2.32255e+00		         0.26833	4.00000e+00	
1.51362   	2.47751e+00		         0.27000	5.00000e+00	
1.52271   	2.21193e+00		         0.27167	7.00000e+00	
1.53182   	1.58431e+00		         0.27333	9.00000e+00	
1.54092   	-9.25685e-02		         0.27500	1.10000e+01	
1.55031   	-1.63737e+00		         0.27667	1.30000e+01	
1.55940   	-3.37693e+00		         0.27833	1.60000e+01	
1.56851   	-4.13739e+00		         0.28000	1.80000e+01	
1.57761   	-4.82862e+00		         0.28167	2.00000e+01	
1.58702   	-4.89935e+00		         0.28333	2.20000e+01	
1.59609   	-4.77653e+00		         0.28500	2.40000e+01	
1.60520   	-4.47907e+00		         0.28667	2.50000e+01	
1.61430   	-4.26438e+00		         0.28833	2.60000e+01	
1.62370   	-4.13200e+00		         0.29000	2.60000e+01	
1.63278   	-4.02784e+00		         0.29167	2.60000e+01	
1.64189   	-3.87246e+00		         0.29333	2.60000e+01	
1.65099   	-3.66698e+00		         0.29500	2.50000e+01	
1.66039   	-3.35695e+00		         0.29667	2.50000e+01	
1.66948   	-2.98657e+00		         0.29833	2.50000e+01	
1.67858   	-2.53047e+00		         0.30000	2.40000e+01	
1.68768   	-2.06475e+00		         0.30167	2.40000e+01	
1.69708   	-1.65586e+00		         0.30333	2.40000e+01	
1.70616   	-1.47800e+00		         0.30500	2.50000e+01	
1.71527   	-1.29088e+00		         0.30667	2.50000e+01	
1.72437   	-1.18476e+00		         0.30833	2.50000e+01	
1.73376   	-1.07065e+00		         0.31000	2.50000e+01	
1.74285   	-1.07439e+00		         0.31167	2.60000e+01	
1.75196   	-1.01633e+00		         0.31333	2.60000e+01	
1.76106   	-9.27430e-01		         0.31500	2.50000e+01	
1.77047   	-7.34466e-01		         0.31667	2.50000e+01	
1.77954   	-5.54285e-01		         0.31833	2.40000e+01	
1.78865   	-3.70101e-01		         0.32000	2.20000e+01	
1.79790   	-3.08052e-01		         0.32167	2.00000e+01	
1.80714   	-2.42888e-01		         0.32333	1.80000e+01	
1.81623   	-1.54533e-01		         0.32500	1.60000e+01	
1.82534   	-1.16370e-01		         0.32667	1.40000e+01	
1.83444   	-1.90620e-01		         0.32833	1.20000e+01	
1.84383   	-2.69775e-01		         0.33000	1.00000e+01	
1.85293   	-3.49174e-01		         0.33167	8.00000e+00	
1.86203   	-3.98636e-01		         0.33333	6.00000e+00	
1.87114   	-4.56906e-01		         0.33500	4.00000e+00	
1.88053   	-4.62240e-01		         0.33667	3.00000e+00	
1.88962   	-3.83978e-01		         0.33833	3.00000e+00	
1.89872   	-3.07935e-01		         0.34000	3.00000e+00	
1.90783   	-3.13128e-01		         0.34167	3.00000e+00	
1.91722   	-4.98560e-01		         0.34333	3.00000e+00	
1.92631   	-9.47991e-01		         0.34500	4.00000e+00	
1.93541   	-1.69549e+00		         0.34667	4.00000e+00	
1.94452   	-2.83933e+00		         0.34833	5.00000e+00	
1.95391   	-4.19795e+00		         0.35000	6.00000e+00	
1.96299   	-5.80259e+00		         0.35167	6.00000e+00	
1.97210   	-7.09673e+00		         0.35333	7.00000e+00	
1.98120   	-7.92423e+00		         0.35500	8.00000e+00	
1.99061   	-8.06500e+00		         0.35667	8.00000e+00	
1.99969   	-7.71844e+00		         0.35833	8.00000e+00	
2.00879   	-7.05445e+00		         0.36000	7.00000e+00	
2.01790   	-5.99184e+00		         0.36167	7.00000e+00	
2.02729   	-4.64607e+00		         0.36333	6.00000e+00	
2.03637   	-3.68102e+00		         0.36500	5.00000e+00	
2.04548   	-3.36067e+00		         0.36667	5.00000e+00	
2.05459   	-3.11160e+00		         0.36833	4.00000e+00	
2.06398   	-2.36442e+00		         0.37000	3.00000e+00	
2.07307   	-7.94221e-01		         0.37167	2.00000e+00	
2.08217   	-5.45528e-01		         0.37333	1.00000e+00	
2.09128   	-1.14808e+00		         0.37500	0.00000e+00	
2.10068   	-1.98405e+00		         0.37667	-1.00000e+00	
2.10976   	-1.89833e+00		         0.37833	-2.00000e+00	
2.11887   	-9.05825e-01		         0.38000	-3.00000e+00	
2.12797   	3.83919e-01		         0.38167	-4.00000e+00	
2.13736   	2.32034e+00		         0.38333	-6.00000e+00	
2.14669   	4.03403e+00		         0.38500	-7.00000e+00	
2.15555   	5.14444e+00		         0.38667	-8.00000e+00	
2.16466   	5.46077e+00		         0.38833	-9.00000e+00	
2.17406   	5.42662e+00		         0.39000	-1.00000e+01	
2.18314   	5.22119e+00		         0.39167	-1.10000e+01	
2.19225   	5.09440e+00		         0.39333	-1.20000e+01	
2.20135   	4.99221e+00		         0.39500	-1.30000e+01	
2.21075   	4.99501e+00		         0.39667	-1.30000e+01	
2.21983   	4.92156e+00		         0.39833	-1.30000e+01	
2.22893   	4.90664e+00		         0.40000	-1.30000e+01	
2.23804   	4.81642e+00		         0.40167	-1.20000e+01	
2.24742   	4.82522e+00		         0.40333	-1.20000e+01	
2.25652   	4.74708e+00		         0.40500	-1.20000e+01	
2.26562   	4.69553e+00		         0.40667	-1.20000e+01	
2.27473   	4.56589e+00		         0.40833	-1.20000e+01	
2.28412   	4.53685e+00		         0.41000	-1.20000e+01	
2.29321   	4.44100e+00		         0.41167	-1.20000e+01	
2.30231   	4.38985e+00		         0.41333	-1.20000e+01	
2.31142   	4.29096e+00		         0.41500	-1.20000e+01	
2.32081   	4.21957e+00		         0.41667	-1.20000e+01	
2.32990   	4.08453e+00		         0.41833	-1.20000e+01	
2.33900   	3.91219e+00		         0.42000	-1.20000e+01	
2.34811   	3.73090e+00		         0.42167	-1.30000e+01	
2.35751   	3.54400e+00		         0.42333	-1.30000e+01	
2.36659   	3.35513e+00		         0.42500	-1.40000e+01	
2.37569   	3.20018e+00		         0.42667	-1.40000e+01	
2.38480   	3.08776e+00		         0.42833	-1.50000e+01	
2.39419   	2.89006e+00		         0.43000	-1.50000e+01	
2.40328   	2.67627e+00		         0.43167	-1.50000e+01	
2.41238   	2.40730e+00		         0.43333	-1.60000e+01	
2.42149   	2.16463e+00		         0.43500	-1.60000e+01	
2.43088   	1.75494e+00		         0.43667	-1.70000e+01	
2.43997   	1.22171e+00		         0.43833	-1.70000e+01	
2.44908   	4.01447e-01		         0.44000	-1.70000e+01	
2.45818   	-5.20098e-01		         0.44167	-1.70000e+01	
2.46757   	-1.29220e+00		         0.44333	-1.70000e+01	
2.47666   	-8.56366e-01		         0.44500	-1.70000e+01	
2.48577   	9.88736e-02		         0.44667	-1.80000e+01	
2.49518   	1.14745e+00		         0.44833	-1.90000e+01	
2.50427   	1.58532e+00		         0.45000	-2.00000e+01	
2.51335   	1.94046e+00		         0.45167	-2.10000e+01	
2.52246   	2.30217e+00		         0.45333	-2.20000e+01	
2.53156   	2.42241e+00		         0.45500	-2.30000e+01	
2.54095   	2.28976e+00		         0.45667	-2.50000e+01	
2.55004   	1.52734e+00		         0.45833	-2.60000e+01	
2.55915   	1.74446e-01		         0.46000	-2.80000e+01	
2.56825   	-1.26884e+00		         0.46167	-2.90000e+01	
2.57765   	-2.77647e+00		         0.46333	-3.10000e+01	
2.58673   	-3.74618e+00		         0.46500	-3.10000e+01	
2.59583   	-4.73545e+00		         0.46667	-3.10000e+01	
2.60494   	-5.01209e+00		         0.46833	-3.10000e+01	
2.61433   	-4.95087e+00		         0.47000	-3.00000e+01	
2.62342   	-4.60034e+00		         0.47167	-2.90000e+01	
2.63253   	-4.29157e+00		         0.47333	-2.70000e+01	
2.64163   	-4.19267e+00		         0.47500	-2.50000e+01	
2.65103   	-4.09350e+00		         0.47667	-2.30000e+01	
2.66011   	-3.92092e+00		         0.47833	-2.00000e+01	
2.66922   	-3.63326e+00		         0.48000	-1.70000e+01	
2.67832   	-3.30244e+00		         0.48167	-1.30000e+01	
2.68771   	-2.91340e+00		         0.48333	-1.00000e+01	
2.69680   	-2.47186e+00		         0.48500	-7.00000e+00	
2.70591   	-2.01940e+00		         0.48667	-4.00000e+00	
2.71501   	-1.66900e+00		         0.48833	-1.00000e+00	
2.72441   	-1.39939e+00		         0.49000	1.00000e+00	
2.73349   	-1.19583e+00		         0.49167	2.00000e+00	
2.74260   	-1.02491e+00		         0.49333	3.00000e+00	
2.75170   	-9.77832e-01		         0.49500	3.00000e+00	
2.76109   	-1.05794e+00		         0.49667	3.00000e+00	
2.77018   	-1.10791e+00		         0.49833	3.00000e+00	
2.77929   	-1.14927e+00		         0.50000	2.00000e+00	
2.78839   	-9.25632e-01		         0.50167	1.00000e+00	
2.79779   	-7.89585e-01		         0.50333	0.00000e+00	
2.80687   	-5.25822e-01		         0.50500	-1.00000e+00	
2.81598   	-4.37627e-01		         0.50667	-2.00000e+00	
2.82508   	-2.70324e-01		         0.50833	-2.00000e+00	
2.83447   	-2.20110e-01		         0.51000	-2.00000e+00	
2.84390   	-1.73732e-01		         0.51167	-2.00000e+00	
2.85267   	-1.77753e-01		         0.51333	-1.00000e+00	
2.86177   	-1.96203e-01		         0.51500	0.00000e+00	
2.87116   	-2.91833e-01		         0.51667	2.00000e+00	
2.88025   	-4.08791e-01		         0.51833	4.00000e+00	
2.88936   	-4.98049e-01		         0.52000	6.00000e+00	
2.89846   	-4.95977e-01		         0.52167	7.00000e+00	
2.90787   	-4.32923e-01		         0.52333	9.00000e+00	
2.91694   	-3.72060e-01		         0.52500	1.10000e+01	
2.92605   	-4.11111e-01		         0.52667	1.20000e+01	
2.93516   	-5.51417e-01		         0.52833	1.40000e+01	
2.94455   	-8.25303e-01		         0.53000	1.50000e+01	
2.95364   	-1.43641e+00		         0.53167	1.60000e+01	
2.96274   	-2.56445e+00		         0.53333	1.70000e+01	
2.97184   	-4.00727e+00		         0.53500	1.70000e+01	
2.98127   	-5.54549e+00		         0.53667	1.80000e+01	
2.99032   	-6.81182e+00		         0.53833	1.80000e+01	
2.99943   	-7.76203e+00		         0.54000	1.70000e+01	
3.00853   	-8.10583e+00		         0.54167	1.70000e+01	
3.01793   	-7.89319e+00		         0.54333	1.60000e+01	
3.02701   	-7.11995e+00		         0.54500	1.60000e+01	
3.03613   	-6.10819e+00		         0.54667	1.50000e+01	
3.04522   	-4.96925e+00		         0.54833	1.50000e+01	
3.05462   	-4.19136e+00		         0.55000	1.50000e+01	
3.06371   	-4.09339e+00		         0.55167	1.50000e+01	
3.07281   	-3.88075e+00		         0.55333	1.50000e+01	
3.08192   	-3.21173e+00		         0.55500	1.40000e+01	
3.09132   	-1.37880e+00		         0.55667	1.40000e+01	
3.10040   	-3.89109e-01		         0.55833	1.30000e+01	
3.10960   	2.52519e-01		         0.56000	1.30000e+01	
			         0.56167	1.20000e+01	
			         0.56333	1.10000e+01	
			         0.56500	1.00000e+01	
			         0.56667	9.00000e+00	
			         0.56833	7.00000e+00	
			         0.57000	5.00000e+00	
			         0.57167	4.00000e+00	
			         0.57333	3.00000e+00	
			         0.57500	2.00000e+00	
			         0.57667	2.00000e+00	
			         0.57833	2.00000e+00	
			         0.58000	2.00000e+00	
			         0.58167	2.00000e+00	
			         0.58333	2.00000e+00	
			         0.58500	2.00000e+00	
			         0.58667	2.00000e+00	
			         0.58833	2.00000e+00	
			         0.59000	3.00000e+00	
			         0.59167	3.00000e+00	
			         0.59333	4.00000e+00	
			         0.59500	4.00000e+00	
			         0.59667	5.00000e+00	
			         0.59833	5.00000e+00	
			         0.60000	5.00000e+00	
			         0.60167	5.00000e+00	
			         0.60333	6.00000e+00	
			         0.60500	6.00000e+00	
			         0.60667	6.00000e+00	
			         0.60833	7.00000e+00	
			         0.61000	7.00000e+00	
			         0.61167	7.00000e+00	
			         0.61333	6.00000e+00	
			         0.61500	5.00000e+00	
			         0.61667	4.00000e+00	
			         0.61833	3.00000e+00	
			         0.62000	2.00000e+00	
			         0.62167	1.00000e+00	
			         0.62333	-1.00000e+00	
			         0.62500	-2.00000e+00	
			         0.62667	-3.00000e+00	
			         0.62833	-4.00000e+00	
			         0.63000	-5.00000e+00	
			         0.63167	-6.00000e+00	
			         0.63333	-7.00000e+00	
			         0.63500	-8.00000e+00	
			         0.63667	-9.00000e+00	
			         0.63833	-1.00000e+01	
			         0.64000	-1.00000e+01	
			         0.64167	-1.10000e+01	
			         0.64333	-1.20000e+01	
			         0.64500	-1.30000e+01	
			         0.64667	-1.40000e+01	
			         0.64833	-1.40000e+01	
			         0.65000	-1.50000e+01	
			         0.65167	-1.60000e+01	
			         0.65333	-1.60000e+01	
			         0.65500	-1.70000e+01	
			         0.65667	-1.70000e+01	
			         0.65833	-1.80000e+01	
			         0.66000	-1.80000e+01	
			         0.66167	-1.80000e+01	
			         0.66333	-1.80000e+01	
			         0.66500	-1.90000e+01	
			         0.66667	-1.90000e+01	
			         0.66833	-1.90000e+01	
			         0.67000	-2.00000e+01	
			         0.67167	-2.00000e+01	
			         0.67333	-2.00000e+01	
			         0.67500	-2.00000e+01	
			         0.67667	-1.90000e+01	
			         0.67833	-1.90000e+01	
			         0.68000	-1.90000e+01	
			         0.68167	-1.80000e+01	
			         0.68333	-1.80000e+01	
			         0.68500	-1.70000e+01	
			         0.68667	-1.60000e+01	
			         0.68833	-1.60000e+01	
			         0.69000	-1.50000e+01	
			         0.69167	-1.50000e+01	
			         0.69333	-1.50000e+01	
			         0.69500	-1.50000e+01	
			         0.69667	-1.50000e+01	
			         0.69833	-1.50000e+01	
			         0.70000	-1.50000e+01	
			         0.70167	-1.50000e+01	
			         0.70333	-1.60000e+01	
			         0.70500	-1.60000e+01	
			         0.70667	-1.60000e+01	
			         0.70833	-1.60000e+01	
			         0.71000	-1.60000e+01	
			         0.71167	-1.50000e+01	
			         0.71333	-1.50000e+01	
			         0.71500	-1.40000e+01	
			         0.71667	-1.30000e+01	
			         0.71833	-1.20000e+01	
			         0.72000	-1.10000e+01	
			         0.72167	-9.00000e+00	
			         0.72333	-8.00000e+00	
			         0.72500	-6.00000e+00	
			         0.72667	-4.00000e+00	
			         0.72833	-3.00000e+00	
			         0.73000	-1.00000e+00	
			         0.73167	0.00000e+00	
			         0.73333	1.00000e+00	
			         0.73500	1.00000e+00	
			         0.73667	1.00000e+00	
			         0.73833	1.00000e+00	
			         0.74000	0.00000e+00	
			         0.74167	-1.00000e+00	
			         0.74333	-3.00000e+00	
			         0.74500	-5.00000e+00	
			         0.74667	-7.00000e+00	
			         0.74833	-9.00000e+00	
			         0.75000	-1.10000e+01	
			         0.75167	-1.30000e+01	
			         0.75333	-1.50000e+01	
			         0.75500	-1.60000e+01	
			         0.75667	-1.70000e+01	
			         0.75833	-1.80000e+01	
			         0.76000	-1.80000e+01	
			         0.76167	-1.80000e+01	
			         0.76333	-1.70000e+01	
			         0.76500	-1.60000e+01	
			         0.76667	-1.50000e+01	
			         0.76833	-1.30000e+01	
			         0.77000	-1.10000e+01	
			         0.77167	-9.00000e+00	
			         0.77333	-7.00000e+00	
			         0.77500	-6.00000e+00	
			         0.77667	-5.00000e+00	
			         0.77833	-4.00000e+00	
			         0.78000	-3.00000e+00	
			         0.78167	-3.00000e+00	
			         0.78333	-3.00000e+00	
			         0.78500	-3.00000e+00	
			         0.78667	-3.00000e+00	
			         0.78833	-3.00000e+00	
			         0.79000	-4.00000e+00	
			         0.79167	-5.00000e+00	
			         0.79333	-5.00000e+00	
			         0.79500	-5.00000e+00	
			         0.79667	-5.00000e+00	
			         0.79833	-4.00000e+00	
			         0.80000	-4.00000e+00	
			         0.80167	-3.00000e+00	
			         0.80333	-2.00000e+00	
			         0.80500	0.00000e+00	
			         0.80667	1.00000e+00	
			         0.80833	2.00000e+00	
			         0.81000	4.00000e+00	
			         0.81167	6.00000e+00	
			         0.81333	7.00000e+00	
			         0.81500	8.00000e+00	
			         0.81667	9.00000e+00	
			         0.81833	1.00000e+01	
			         0.82000	1.00000e+01	
			         0.82167	1.00000e+01	
			         0.82333	9.00000e+00	
			         0.82500	8.00000e+00	
			         0.82667	6.00000e+00	
			         0.82833	4.00000e+00	
			         0.83000	2.00000e+00	
			         0.83167	-1.00000e+00	
			         0.83333	-3.00000e+00	
			         0.83500	-5.00000e+00	
			         0.83667	-6.00000e+00	
			         0.83833	-6.00000e+00	
			         0.84000	-6.00000e+00	
			         0.84167	-5.00000e+00	
			         0.84333	-3.00000e+00	
			         0.84500	-1.00000e+00	
			         0.84667	2.00000e+00	
			         0.84833	5.00000e+00	
			         0.85000	9.00000e+00	
			         0.85167	1.20000e+01	
			         0.85333	1.50000e+01	
			         0.85500	1.90000e+01	
			         0.85667	2.10000e+01	
			         0.85833	2.40000e+01	
			         0.86000	2.50000e+01	
			         0.86167	2.70000e+01	
			         0.86333	2.80000e+01	
			         0.86500	2.90000e+01	
			         0.86667	3.00000e+01	
			         0.86833	3.10000e+01	
			         0.87000	3.20000e+01	
			         0.87167	3.20000e+01	
			         0.87333	3.30000e+01	
			         0.87500	3.40000e+01	
			         0.87667	3.50000e+01	
			         0.87833	3.60000e+01	
			         0.88000	3.70000e+01	
			         0.88167	3.80000e+01	
			         0.88333	3.90000e+01	
			         0.88500	4.00000e+01	
			         0.88667	4.00000e+01	
			         0.88833	4.00000e+01	
			         0.89000	3.90000e+01	
			         0.89167	3.70000e+01	
			         0.89333	3.40000e+01	
			         0.89500	3.10000e+01	
			         0.89667	2.70000e+01	
			         0.89833	2.20000e+01	
			         0.90000	1.70000e+01	
			         0.90167	1.20000e+01	
			         0.90333	7.00000e+00	
			         0.90500	3.00000e+00	
			         0.90667	-1.00000e+00	
			         0.90833	-4.00000e+00	
			         0.91000	-6.00000e+00	
			         0.91167	-8.00000e+00	
			         0.91333	-8.00000e+00	
			         0.91500	-9.00000e+00	
			         0.91667	-8.00000e+00	
			         0.91833	-7.00000e+00	
			         0.92000	-5.00000e+00	
			         0.92167	-4.00000e+00	
			         0.92333	-2.00000e+00	
			         0.92500	-1.00000e+00	
			         0.92667	0.00000e+00	
			         0.92833	1.00000e+00	
			         0.93000	2.00000e+00	
			         0.93167	3.00000e+00	
			         0.93333	3.00000e+00	
			         0.93500	3.00000e+00	
			         0.93667	2.00000e+00	
			         0.93833	1.00000e+00	
			         0.94000	1.00000e+00	
			         0.94167	0.00000e+00	
			         0.94333	-1.00000e+00	
			         0.94500	-3.00000e+00	
			         0.94667	-4.00000e+00	
			         0.94833	-5.00000e+00	
			         0.95000	-7.00000e+00	
			         0.95167	-8.00000e+00	
			         0.95333	-9.00000e+00	
			         0.95500	-1.10000e+01	
			         0.95667	-1.20000e+01	
			         0.95833	-1.40000e+01	
			         0.96000	-1.50000e+01	
			         0.96167	-1.60000e+01	
			         0.96333	-1.70000e+01	
			         0.96500	-1.80000e+01	
			         0.96667	-1.80000e+01	
			         0.96833	-1.90000e+01	
			         0.97000	-1.80000e+01	
			         0.97167	-1.80000e+01	
			         0.97333	-1.80000e+01	
			         0.97500	-1.70000e+01	
			         0.97667	-1.70000e+01	
			         0.97833	-1.60000e+01	
			         0.98000	-1.60000e+01	
			         0.98167	-1.50000e+01	
			         0.98333	-1.40000e+01	
			         0.98500	-1.40000e+01	
			         0.98667	-1.30000e+01	
			         0.98833	-1.30000e+01	
			         0.99000	-1.20000e+01	
			         0.99167	-1.10000e+01	
			         0.99333	-1.00000e+01	
			         0.99500	-9.00000e+00	
			         0.99667	-7.00000e+00	
			         0.99833	-5.00000e+00	
			         1.00000	-2.00000e+00	
			         1.00167	1.00000e+00	
			         1.00333	5.00000e+00	
			         1.00500	1.00000e+01	
			         1.00667	1.50000e+01	
			         1.00833	2.30000e+01	
			         1.01000	3.10000e+01	
			         1.01167	4.10000e+01	
			         1.01333	5.20000e+01	
			         1.01500	6.40000e+01	
			         1.01667	7.70000e+01	
			         1.01833	9.10000e+01	
			         1.02000	1.06000e+02	
			         1.02167	1.20000e+02	
			         1.02333	1.36000e+02	
			         1.02500	1.51000e+02	
			         1.02667	1.66000e+02	
			         1.02833	1.82000e+02	
			         1.03000	1.97000e+02	
			         1.03167	2.11000e+02	
			         1.03333	2.24000e+02	
			         1.03500	2.34000e+02	
			         1.03667	2.39000e+02	
			         1.03833	2.39000e+02	
			         1.04000	2.33000e+02	
			         1.04167	2.20000e+02	
			         1.04333	2.01000e+02	
			         1.04500	1.75000e+02	
			         1.04667	1.44000e+02	
			         1.04833	1.07000e+02	
			         1.05000	6.70000e+01	
			         1.05167	2.30000e+01	
			         1.05333	-2.20000e+01	
			         1.05500	-6.60000e+01	
			         1.05667	-1.08000e+02	
			         1.05833	-1.45000e+02	
			         1.06000	-1.77000e+02	
			         1.06167	-2.02000e+02	
			         1.06333	-2.21000e+02	
			         1.06500	-2.33000e+02	
			         1.06667	-2.40000e+02	
			         1.06833	-2.42000e+02	
			         1.07000	-2.38000e+02	
			         1.07167	-2.31000e+02	
			         1.07333	-2.20000e+02	
			         1.07500	-2.06000e+02	
			         1.07667	-1.91000e+02	
			         1.07833	-1.74000e+02	
			         1.08000	-1.56000e+02	
			         1.08167	-1.38000e+02	
			         1.08333	-1.20000e+02	
			         1.08500	-1.03000e+02	
			         1.08667	-8.70000e+01	
			         1.08833	-7.10000e+01	
			         1.09000	-5.70000e+01	
			         1.09167	-4.40000e+01	
			         1.09333	-3.30000e+01	
			         1.09500	-2.40000e+01	
			         1.09667	-1.60000e+01	
			         1.09833	-9.00000e+00	
			         1.10000	-4.00000e+00	
			         1.10167	1.00000e+00	
			         1.10333	4.00000e+00	
			         1.10500	6.00000e+00	
			         1.10667	8.00000e+00	
			         1.10833	9.00000e+00	
			         1.11000	9.00000e+00	
			         1.11167	9.00000e+00	
			         1.11333	8.00000e+00	
			         1.11500	8.00000e+00	
			         1.11667	7.00000e+00	
			         1.11833	6.00000e+00	
			         1.12000	5.00000e+00	
			         1.12167	4.00000e+00	
			         1.12333	4.00000e+00	
			         1.12500	3.00000e+00	
			         1.12667	3.00000e+00	
			         1.12833	3.00000e+00	
			         1.13000	3.00000e+00	
			         1.13167	4.00000e+00	
			         1.13333	4.00000e+00	
			         1.13500	5.00000e+00	
			         1.13667	6.00000e+00	
			         1.13833	6.00000e+00	
			         1.14000	7.00000e+00	
			         1.14167	8.00000e+00	
			         1.14333	8.00000e+00	
			         1.14500	9.00000e+00	
			         1.14667	9.00000e+00	
			         1.14833	1.00000e+01	
			         1.15000	1.00000e+01	
			         1.15167	1.00000e+01	
			         1.15333	1.00000e+01	
			         1.15500	9.00000e+00	
			         1.15667	8.00000e+00	
			         1.15833	7.00000e+00	
			         1.16000	6.00000e+00	
			         1.16167	6.00000e+00	
			         1.16333	5.00000e+00	
			         1.16500	4.00000e+00	
			         1.16667	3.00000e+00	
			         1.16833	2.00000e+00	
			         1.17000	1.00000e+00	
			         1.17167	1.00000e+00	
			         1.17333	0.00000e+00	
			         1.17500	0.00000e+00	
			         1.17667	1.00000e+00	
			         1.17833	1.00000e+00	
			         1.18000	2.00000e+00	
			         1.18167	2.00000e+00	
			         1.18333	3.00000e+00	
			         1.18500	4.00000e+00	
			         1.18667	4.00000e+00	
			         1.18833	5.00000e+00	
			         1.19000	6.00000e+00	
			         1.19167	8.00000e+00	
			         1.19333	9.00000e+00	
			         1.19500	1.00000e+01	
			         1.19667	1.10000e+01	
			         1.19833	1.20000e+01	
			         1.20000	1.30000e+01	
			         1.20167	1.40000e+01	
			         1.20333	1.50000e+01	
			         1.20500	1.50000e+01	
			         1.20667	1.60000e+01	
			         1.20833	1.50000e+01	
			         1.21000	1.50000e+01	
			         1.21167	1.40000e+01	
			         1.21333	1.40000e+01	
			         1.21500	1.30000e+01	
			         1.21667	1.20000e+01	
			         1.21833	1.10000e+01	
			         1.22000	1.10000e+01	
			         1.22167	1.00000e+01	
			         1.22333	9.00000e+00	
			         1.22500	9.00000e+00	
			         1.22667	9.00000e+00	
			         1.22833	9.00000e+00	
			         1.23000	9.00000e+00	
			         1.23167	1.00000e+01	
			         1.23333	1.00000e+01	
			         1.23500	1.10000e+01	
			         1.23667	1.20000e+01	
			         1.23833	1.30000e+01	
			         1.24000	1.30000e+01	
			         1.24167	1.40000e+01	
			         1.24333	1.40000e+01	
			         1.24500	1.50000e+01	
			         1.24667	1.50000e+01	
			         1.24833	1.50000e+01	
			         1.25000	1.50000e+01	
			         1.25167	1.50000e+01	
			         1.25333	1.50000e+01	
			         1.25500	1.40000e+01	
			         1.25667	1.40000e+01	
			         1.25833	1.30000e+01	
			         1.26000	1.30000e+01	
			         1.26167	1.30000e+01	
			         1.26333	1.30000e+01	
			         1.26500	1.40000e+01	
			         1.26667	1.40000e+01	
			         1.26833	1.40000e+01	
			         1.27000	1.40000e+01	
			         1.27167	1.50000e+01	
			         1.27333	1.50000e+01	
			         1.27500	1.50000e+01	
			         1.27667	1.60000e+01	
			         1.27833	1.60000e+01	
			         1.28000	1.70000e+01	
			         1.28167	1.70000e+01	
			         1.28333	1.70000e+01	
			         1.28500	1.70000e+01	
			         1.28667	1.70000e+01	
			         1.28833	1.60000e+01	
			         1.29000	1.60000e+01	
			         1.29167	1.60000e+01	
			         1.29333	1.60000e+01	
			         1.29500	1.70000e+01	
			         1.29667	1.70000e+01	
			         1.29833	1.70000e+01	
			         1.30000	1.70000e+01	
			         1.30167	1.80000e+01	
			         1.30333	1.80000e+01	
			         1.30500	1.90000e+01	
			         1.30667	2.00000e+01	
			         1.30833	2.10000e+01	
			         1.31000	2.30000e+01	
			         1.31167	2.40000e+01	
			         1.31333	2.60000e+01	
			         1.31500	2.70000e+01	
			         1.31667	2.80000e+01	
			         1.31833	2.80000e+01	
			         1.32000	2.90000e+01	
			         1.32167	2.90000e+01	
			         1.32333	2.90000e+01	
			         1.32500	2.80000e+01	
			         1.32667	2.70000e+01	
			         1.32833	2.60000e+01	
			         1.33000	2.50000e+01	
			         1.33167	2.30000e+01	
			         1.33333	2.00000e+01	
			         1.33500	1.80000e+01	
			         1.33667	1.60000e+01	
			         1.33833	1.40000e+01	
			         1.34000	1.20000e+01	
			         1.34167	1.00000e+01	
			         1.34333	9.00000e+00	
			         1.34500	8.00000e+00	
			         1.34667	8.00000e+00	
			         1.34833	8.00000e+00	
			         1.35000	8.00000e+00	
			         1.35167	8.00000e+00	
			         1.35333	9.00000e+00	
			         1.35500	9.00000e+00	
			         1.35667	1.00000e+01	
			         1.35833	1.10000e+01	
			         1.36000	1.10000e+01	
			         1.36167	1.20000e+01	
			         1.36333	1.20000e+01	
			         1.36500	1.20000e+01	
			         1.36667	1.10000e+01	
			         1.36833	1.10000e+01	
			         1.37000	9.00000e+00	
			         1.37167	8.00000e+00	
			         1.37333	6.00000e+00	
			         1.37500	4.00000e+00	
			         1.37667	2.00000e+00	
			         1.37833	1.00000e+00	
			         1.38000	-1.00000e+00	
			         1.38167	-2.00000e+00	
			         1.38333	-3.00000e+00	
			         1.38500	-4.00000e+00	
			         1.38667	-5.00000e+00	
			         1.38833	-5.00000e+00	
			         1.39000	-4.00000e+00	
			         1.39167	-3.00000e+00	
			         1.39333	-2.00000e+00	
			         1.39500	-2.00000e+00	
			         1.39667	-1.00000e+00	
			         1.39833	-1.00000e+00	
			         1.40000	0.00000e+00	
			         1.40167	0.00000e+00	
			         1.40333	0.00000e+00	
			         1.40500	0.00000e+00	
			         1.40667	-1.00000e+00	
			         1.40833	-1.00000e+00	
			         1.41000	-2.00000e+00	
			         1.41167	-3.00000e+00	
			         1.41333	-4.00000e+00	
			         1.41500	-5.00000e+00	
			         1.41667	-7.00000e+00	
			         1.41833	-8.00000e+00	
			         1.42000	-1.00000e+01	
			         1.42167	-1.10000e+01	
			         1.42333	-1.20000e+01	
			         1.42500	-1.30000e+01	
			         1.42667	-1.40000e+01	
			         1.42833	-1.50000e+01	
			         1.43000	-1.60000e+01	
			         1.43167	-1.60000e+01	
			         1.43333	-1.60000e+01	
			         1.43500	-1.60000e+01	
			         1.43667	-1.60000e+01	
			         1.43833	-1.50000e+01	
			         1.44000	-1.50000e+01	
			         1.44167	-1.50000e+01	
			         1.44333	-1.50000e+01	
			         1.44500	-1.40000e+01	
			         1.44667	-1.40000e+01	
			         1.44833	-1.40000e+01	
			         1.45000	-1.40000e+01	
			         1.45167	-1.30000e+01	
			         1.45333	-1.30000e+01	
			         1.45500	-1.30000e+01	
			         1.45667	-1.30000e+01	
			         1.45833	-1.30000e+01	
			         1.46000	-1.30000e+01	
			         1.46167	-1.30000e+01	
			         1.46333	-1.30000e+01	
			         1.46500	-1.30000e+01	
			         1.46667	-1.20000e+01	
			         1.46833	-1.20000e+01	
			         1.47000	-1.20000e+01	
			         1.47167	-1.20000e+01	
			         1.47333	-1.10000e+01	
			         1.47500	-1.10000e+01	
			         1.47667	-1.00000e+01	
			         1.47833	-9.00000e+00	
			         1.48000	-8.00000e+00	
			         1.48167	-7.00000e+00	
			         1.48333	-6.00000e+00	
			         1.48500	-5.00000e+00	
			         1.48667	-4.00000e+00	
			         1.48833	-3.00000e+00	
			         1.49000	-2.00000e+00	
			         1.49167	-2.00000e+00	
			         1.49333	-2.00000e+00	
			         1.49500	-2.00000e+00	
			         1.49667	-2.00000e+00	
			         1.49833	-3.00000e+00	
			         1.50000	-3.00000e+00	
			         1.50167	-4.00000e+00	
			         1.50333	-5.00000e+00	
			         1.50500	-6.00000e+00	
			         1.50667	-7.00000e+00	
			         1.50833	-8.00000e+00	
			         1.51000	-9.00000e+00	
			         1.51167	-9.00000e+00	
			         1.51333	-9.00000e+00	
			         1.51500	-9.00000e+00	
			         1.51667	-8.00000e+00	
			         1.51833	-6.00000e+00	
			         1.52000	-4.00000e+00	
			         1.52167	-2.00000e+00	
			         1.52333	1.00000e+00	
			         1.52500	3.00000e+00	
			         1.52667	6.00000e+00	
			         1.52833	9.00000e+00	
			         1.53000	1.20000e+01	
			         1.53167	1.40000e+01	
			         1.53333	1.60000e+01	
			         1.53500	1.70000e+01	
			         1.53667	1.70000e+01	
			         1.53833	1.70000e+01	
			         1.54000	1.60000e+01	
			         1.54167	1.60000e+01	
			         1.54333	1.50000e+01	
			         1.54500	1.50000e+01	
			         1.54667	1.40000e+01	
			         1.54833	1.40000e+01	
			         1.55000	1.30000e+01	
			         1.55167	1.20000e+01	
			         1.55333	1.20000e+01	
			         1.55500	1.20000e+01	
			         1.55667	1.20000e+01	
			         1.55833	1.10000e+01	
			         1.56000	1.10000e+01	
			         1.56167	1.10000e+01	
			         1.56333	1.00000e+01	
			         1.56500	9.00000e+00	
			         1.56667	8.00000e+00	
			         1.56833	7.00000e+00	
			         1.57000	6.00000e+00	
			         1.57167	5.00000e+00	
			         1.57333	4.00000e+00	
			         1.57500	3.00000e+00	
			         1.57667	3.00000e+00	
			         1.57833	3.00000e+00	
			         1.58000	3.00000e+00	
			         1.58167	4.00000e+00	
			         1.58333	4.00000e+00	
			         1.58500	5.00000e+00	
			         1.58667	6.00000e+00	
			         1.58833	7.00000e+00	
			         1.59000	8.00000e+00	
			         1.59167	1.00000e+01	
			         1.59333	1.10000e+01	
			         1.59500	1.20000e+01	
			         1.59667	1.20000e+01	
			         1.59833	1.20000e+01	
			         1.60000	1.20000e+01	
			         1.60167	1.10000e+01	
			         1.60333	1.00000e+01	
			         1.60500	8.00000e+00	
			         1.60667	7.00000e+00	
			         1.60833	5.00000e+00	
			         1.61000	3.00000e+00	
			         1.61167	2.00000e+00	
			         1.61333	0.00000e+00	
			         1.61500	-1.00000e+00	
			         1.61667	-2.00000e+00	
			         1.61833	-2.00000e+00	
			         1.62000	-2.00000e+00	
			         1.62167	-1.00000e+00	
			         1.62333	0.00000e+00	
			         1.62500	0.00000e+00	
			         1.62667	1.00000e+00	
			         1.62833	2.00000e+00	
			         1.63000	2.00000e+00	
			         1.63167	3.00000e+00	
			         1.63333	2.00000e+00	
			         1.63500	2.00000e+00	
			         1.63667	1.00000e+00	
			         1.63833	0.00000e+00	
			         1.64000	-1.00000e+00	
			         1.64167	-2.00000e+00	
			         1.64333	-3.00000e+00	
			         1.64500	-4.00000e+00	
			         1.64667	-6.00000e+00	
			         1.64833	-7.00000e+00	
			         1.65000	-8.00000e+00	
			         1.65167	-9.00000e+00	
			         1.65333	-9.00000e+00	
			         1.65500	-1.00000e+01	
			         1.65667	-1.10000e+01	
			         1.65833	-1.10000e+01	
			         1.66000	-1.10000e+01	
			         1.66167	-1.10000e+01	
			         1.66333	-1.10000e+01	
			         1.66500	-1.10000e+01	
			         1.66667	-1.10000e+01	
			         1.66833	-1.10000e+01	
			         1.67000	-1.00000e+01	
			         1.67167	-1.00000e+01	
			         1.67333	-9.00000e+00	
			         1.67500	-8.00000e+00	
			         1.67667	-8.00000e+00	
			         1.67833	-8.00000e+00	
			         1.68000	-7.00000e+00	
			         1.68167	-7.00000e+00	
			         1.68333	-6.00000e+00	
			         1.68500	-7.00000e+00	
			         1.68667	-7.00000e+00	
			         1.68833	-7.00000e+00	
			         1.69000	-8.00000e+00	
			         1.69167	-9.00000e+00	
			         1.69333	-1.00000e+01	
			         1.69500	-1.10000e+01	
			         1.69667	-1.10000e+01	
			         1.69833	-1.20000e+01	
			         1.70000	-1.30000e+01	
			         1.70167	-1.30000e+01	
			         1.70333	-1.30000e+01	
			         1.70500	-1.30000e+01	
			         1.70667	-1.30000e+01	
			         1.70833	-1.20000e+01	
			         1.71000	-1.20000e+01	
			         1.71167	-1.20000e+01	
			         1.71333	-1.10000e+01	
			         1.71500	-1.10000e+01	
			         1.71667	-1.10000e+01	
			         1.71833	-1.10000e+01	
			         1.72000	-1.20000e+01	
			         1.72167	-1.30000e+01	
			         1.72333	-1.40000e+01	
			         1.72500	-1.50000e+01	
			         1.72667	-1.60000e+01	
			         1.72833	-1.60000e+01	
			         1.73000	-1.60000e+01	
			         1.73167	-1.60000e+01	
			         1.73333	-1.60000e+01	
			         1.73500	-1.50000e+01	
			         1.73667	-1.40000e+01	
			         1.73833	-1.40000e+01	
			         1.74000	-1.30000e+01	
			         1.74167	-1.20000e+01	
			         1.74333	-1.10000e+01	
			         1.74500	-1.10000e+01	
			         1.74667	-1.00000e+01	
			         1.74833	-1.00000e+01	
			         1.75000	-9.00000e+00	
			         1.75167	-9.00000e+00	
			         1.75333	-9.00000e+00	
			         1.75500	-9.00000e+00	
			         1.75667	-9.00000e+00	
			         1.75833	-8.00000e+00	
			         1.76000	-8.00000e+00	
			         1.76167	-7.00000e+00	
			         1.76333	-6.00000e+00	
			         1.76500	-5.00000e+00	
			         1.76667	-5.00000e+00	
			         1.76833	-5.00000e+00	
			         1.77000	-5.00000e+00	
			         1.77167	-6.00000e+00	
			         1.77333	-6.00000e+00	
			         1.77500	-7.00000e+00	
			         1.77667	-7.00000e+00	
			         1.77833	-8.00000e+00	
			         1.78000	-8.00000e+00	
			         1.78167	-9.00000e+00	
			         1.78333	-9.00000e+00	
			         1.78500	-9.00000e+00	
			         1.78667	-8.00000e+00	
			         1.78833	-7.00000e+00	
			         1.79000	-6.00000e+00	
			         1.79167	-5.00000e+00	
			         1.79333	-3.00000e+00	
			         1.79500	-2.00000e+00	
			         1.79667	-1.00000e+00	
			         1.79833	-1.00000e+00	
			         1.80000	0.00000e+00	
			         1.80167	0.00000e+00	
			         1.80333	-1.00000e+00	
			         1.80500	-1.00000e+00	
			         1.80667	-2.00000e+00	
			         1.80833	-3.00000e+00	
			         1.81000	-3.00000e+00	
			         1.81167	-4.00000e+00	
			         1.81333	-4.00000e+00	
			         1.81500	-4.00000e+00	
			         1.81667	-4.00000e+00	
			         1.81833	-3.00000e+00	
			         1.82000	-3.00000e+00	
			         1.82167	-3.00000e+00	
			         1.82333	-3.00000e+00	
			         1.82500	-3.00000e+00	
			         1.82667	-3.00000e+00	
			         1.82833	-3.00000e+00	
			         1.83000	-3.00000e+00	
			         1.83167	-4.00000e+00	
			         1.83333	-4.00000e+00	
			         1.83500	-5.00000e+00	
			         1.83667	-5.00000e+00	
			         1.83833	-6.00000e+00	
			         1.84000	-6.00000e+00	
			         1.84167	-6.00000e+00	
			         1.84333	-5.00000e+00	
			         1.84500	-5.00000e+00	
			         1.84667	-4.00000e+00	
			         1.84833	-3.00000e+00	
			         1.85000	-2.00000e+00	
			         1.85167	0.00000e+00	
			         1.85333	2.00000e+00	
			         1.85500	5.00000e+00	
			         1.85667	7.00000e+00	
			         1.85833	1.00000e+01	
			         1.86000	1.30000e+01	
			         1.86167	1.60000e+01	
			         1.86333	1.80000e+01	
			         1.86500	2.10000e+01	
			         1.86667	2.20000e+01	
			         1.86833	2.40000e+01	
			         1.87000	2.50000e+01	
			         1.87167	2.60000e+01	
			         1.87333	2.70000e+01	
			         1.87500	2.70000e+01	
			         1.87667	2.70000e+01	
			         1.87833	2.70000e+01	
			         1.88000	2.60000e+01	
			         1.88167	2.60000e+01	
			         1.88333	2.60000e+01	
			         1.88500	2.60000e+01	
			         1.88667	2.60000e+01	
			         1.88833	2.60000e+01	
			         1.89000	2.70000e+01	
			         1.89167	2.70000e+01	
			         1.89333	2.80000e+01	
			         1.89500	2.90000e+01	
			         1.89667	3.00000e+01	
			         1.89833	3.10000e+01	
			         1.90000	3.10000e+01	
			         1.90167	3.20000e+01	
			         1.90333	3.20000e+01	
			         1.90500	3.10000e+01	
			         1.90667	3.00000e+01	
			         1.90833	2.80000e+01	
			         1.91000	2.60000e+01	
			         1.91167	2.30000e+01	
			         1.91333	1.90000e+01	
			         1.91500	1.40000e+01	
			         1.91667	1.00000e+01	
			         1.91833	5.00000e+00	
			         1.92000	0.00000e+00	
			         1.92167	-4.00000e+00	
			         1.92333	-7.00000e+00	
			         1.92500	-1.00000e+01	
			         1.92667	-1.20000e+01	
			         1.92833	-1.30000e+01	
			         1.93000	-1.40000e+01	
			         1.93167	-1.30000e+01	
			         1.93333	-1.20000e+01	
			         1.93500	-1.00000e+01	
			         1.93667	-8.00000e+00	
			         1.93833	-5.00000e+00	
			         1.94000	-3.00000e+00	
			         1.94167	-1.00000e+00	
			         1.94333	1.00000e+00	
			         1.94500	3.00000e+00	
			         1.94667	4.00000e+00	
			         1.94833	5.00000e+00	
			         1.95000	6.00000e+00	
			         1.95167	7.00000e+00	
			         1.95333	7.00000e+00	
			         1.95500	6.00000e+00	
			         1.95667	5.00000e+00	
			         1.95833	4.00000e+00	
			         1.96000	2.00000e+00	
			         1.96167	0.00000e+00	
			         1.96333	-2.00000e+00	
			         1.96500	-5.00000e+00	
			         1.96667	-7.00000e+00	
			         1.96833	-1.00000e+01	
			         1.97000	-1.30000e+01	
			         1.97167	-1.50000e+01	
			         1.97333	-1.70000e+01	
			         1.97500	-1.90000e+01	
			         1.97667	-2.00000e+01	
			         1.97833	-2.10000e+01	
			         1.98000	-2.20000e+01	
			         1.98167	-2.20000e+01	
			         1.98333	-2.20000e+01	
			         1.98500	-2.20000e+01	
			         1.98667	-2.20000e+01	
			         1.98833	-2.10000e+01	
			         1.99000	-2.00000e+01	
			         1.99167	-1.90000e+01	
			         1.99333	-1.80000e+01	
			         1.99500	-1.60000e+01	
			         1.99667	-1.50000e+01	
			         1.99833	-1.30000e+01	
			         2.00000	-1.20000e+01	
			         2.00167	-1.00000e+01	
			         2.00333	-9.00000e+00	
			         2.00500	-7.00000e+00	
			         2.00667	-6.00000e+00	
			         2.00833	-5.00000e+00	
			         2.01000	-5.00000e+00	
			         2.01167	-4.00000e+00	
			         2.01333	-3.00000e+00	
			         2.01500	-2.00000e+00	
			         2.01667	-1.00000e+00	
			         2.01833	2.00000e+00	
			         2.02000	5.00000e+00	
			         2.02167	1.00000e+01	
			         2.02333	1.60000e+01	
			         2.02500	2.30000e+01	
			         2.02667	3.00000e+01	
			         2.02833	3.90000e+01	
			         2.03000	5.00000e+01	
			         2.03167	6.10000e+01	
			         2.03333	7.30000e+01	
			         2.03500	8.50000e+01	
			         2.03667	9.80000e+01	
			         2.03833	1.11000e+02	
			         2.04000	1.24000e+02	
			         2.04167	1.38000e+02	
			         2.04333	1.52000e+02	
			         2.04500	1.66000e+02	
			         2.04667	1.80000e+02	
			         2.04833	1.94000e+02	
			         2.05000	2.08000e+02	
			         2.05167	2.19000e+02	
			         2.05333	2.27000e+02	
			         2.05500	2.30000e+02	
			         2.05667	2.28000e+02	
			         2.05833	2.19000e+02	
			         2.06000	2.03000e+02	
			         2.06167	1.81000e+02	
			         2.06333	1.53000e+02	
			         2.06500	1.19000e+02	
			         2.06667	8.00000e+01	
			         2.06833	3.70000e+01	
			         2.07000	-8.00000e+00	
			         2.07167	-5.40000e+01	
			         2.07333	-9.80000e+01	
			         2.07500	-1.39000e+02	
			         2.07667	-1.75000e+02	
			         2.07833	-2.04000e+02	
			         2.08000	-2.27000e+02	
			         2.08167	-2.43000e+02	
			         2.08333	-2.52000e+02	
			         2.08500	-2.55000e+02	
			         2.08667	-2.52000e+02	
			         2.08833	-2.45000e+02	
			         2.09000	-2.33000e+02	
			         2.09167	-2.18000e+02	
			         2.09333	-2.01000e+02	
			         2.09500	-1.81000e+02	
			         2.09667	-1.61000e+02	
			         2.09833	-1.41000e+02	
			         2.10000	-1.21000e+02	
			         2.10167	-1.02000e+02	
			         2.10333	-8.40000e+01	
			         2.10500	-6.80000e+01	
			         2.10667	-5.30000e+01	
			         2.10833	-4.10000e+01	
			         2.11000	-3.00000e+01	
			         2.11167	-2.10000e+01	
			         2.11333	-1.40000e+01	
			         2.11500	-8.00000e+00	
			         2.11667	-4.00000e+00	
			         2.11833	-1.00000e+00	
			         2.12000	2.00000e+00	
			         2.12167	3.00000e+00	
			         2.12333	4.00000e+00	
			         2.12500	5.00000e+00	
			         2.12667	5.00000e+00	
			         2.12833	5.00000e+00	
			         2.13000	6.00000e+00	
			         2.13167	6.00000e+00	
			         2.13333	6.00000e+00	
			         2.13500	7.00000e+00	
			         2.13667	7.00000e+00	
			         2.13833	8.00000e+00	
			         2.14000	9.00000e+00	
			         2.14167	9.00000e+00	
			         2.14333	1.00000e+01	
			         2.14500	1.10000e+01	
			         2.14667	1.20000e+01	
			         2.14833	1.40000e+01	
			         2.15000	1.50000e+01	
			         2.15167	1.60000e+01	
			         2.15333	1.80000e+01	
			         2.15500	1.90000e+01	
			         2.15667	2.00000e+01	
			         2.15833	2.00000e+01	
			         2.16000	2.10000e+01	
			         2.16167	2.10000e+01	
			         2.16333	2.00000e+01	
			         2.16500	2.00000e+01	
			         2.16667	1.90000e+01	
			         2.16833	1.80000e+01	
			         2.17000	1.60000e+01	
			         2.17167	1.50000e+01	
			         2.17333	1.30000e+01	
			         2.17500	1.20000e+01	
			         2.17667	1.10000e+01	
			         2.17833	1.00000e+01	
			         2.18000	1.00000e+01	
			         2.18167	1.00000e+01	
			         2.18333	1.00000e+01	
			         2.18500	9.00000e+00	
			         2.18667	1.00000e+01	
			         2.18833	1.00000e+01	
			         2.19000	9.00000e+00	
			         2.19167	9.00000e+00	
			         2.19333	8.00000e+00	
			         2.19500	8.00000e+00	
			         2.19667	7.00000e+00	
			         2.19833	7.00000e+00	
			         2.20000	6.00000e+00	
			         2.20167	6.00000e+00	
			         2.20333	6.00000e+00	
			         2.20500	6.00000e+00	
			         2.20667	7.00000e+00	
			         2.20833	7.00000e+00	
			         2.21000	8.00000e+00	
			         2.21167	8.00000e+00	
			         2.21333	9.00000e+00	
			         2.21500	1.00000e+01	
			         2.21667	1.10000e+01	
			         2.21833	1.10000e+01	
			         2.22000	1.20000e+01	
			         2.22167	1.20000e+01	
			         2.22333	1.20000e+01	
			         2.22500	1.20000e+01	
			         2.22667	1.20000e+01	
			         2.22833	1.20000e+01	
			         2.23000	1.20000e+01	
			         2.23167	1.20000e+01	
			         2.23333	1.20000e+01	
			         2.23500	1.10000e+01	
			         2.23667	1.10000e+01	
			         2.23833	1.00000e+01	
			         2.24000	1.00000e+01	
			         2.24167	9.00000e+00	
			         2.24333	8.00000e+00	
			         2.24500	7.00000e+00	
			         2.24667	6.00000e+00	
			         2.24833	5.00000e+00	
			         2.25000	4.00000e+00	
			         2.25167	3.00000e+00	
			         2.25333	3.00000e+00	
			         2.25500	3.00000e+00	
			         2.25667	3.00000e+00	
			         2.25833	4.00000e+00	
			         2.26000	5.00000e+00	
			         2.26167	7.00000e+00	
			         2.26333	8.00000e+00	
			         2.26500	1.10000e+01	
			         2.26667	1.30000e+01	
			         2.26833	1.60000e+01	
			         2.27000	1.80000e+01	
			         2.27167	2.10000e+01	
			         2.27333	2.40000e+01	
			         2.27500	2.60000e+01	
			         2.27667	2.80000e+01	
			         2.27833	3.00000e+01	
			         2.28000	3.10000e+01	
			         2.28167	3.20000e+01	
			         2.28333	3.30000e+01	
			         2.28500	3.40000e+01	
			         2.28667	3.40000e+01	
			         2.28833	3.40000e+01	
			         2.29000	3.40000e+01	
			         2.29167	3.40000e+01	
			         2.29333	3.40000e+01	
			         2.29500	3.30000e+01	
			         2.29667	3.30000e+01	
			         2.29833	3.40000e+01	
			         2.30000	3.40000e+01	
			         2.30167	3.40000e+01	
			         2.30333	3.40000e+01	
			         2.30500	3.40000e+01	
			         2.30667	3.40000e+01	
			         2.30833	3.40000e+01	
			         2.31000	3.40000e+01	
			         2.31167	3.40000e+01	
			         2.31333	3.30000e+01	
			         2.31500	3.30000e+01	
			         2.31667	3.30000e+01	
			         2.31833	3.30000e+01	
			         2.32000	3.30000e+01	
			         2.32167	3.30000e+01	
			         2.32333	3.20000e+01	
			         2.32500	3.10000e+01	
			         2.32667	3.00000e+01	
			         2.32833	2.90000e+01	
			         2.33000	2.80000e+01	
			         2.33167	2.70000e+01	
			         2.33333	2.60000e+01	
			         2.33500	2.50000e+01	
			         2.33667	2.40000e+01	
			         2.33833	2.30000e+01	
			         2.34000	2.20000e+01	
			         2.34167	2.10000e+01	
			         2.34333	2.00000e+01	
			         2.34500	2.00000e+01	
			         2.34667	2.00000e+01	
			         2.34833	2.00000e+01	
			         2.35000	2.00000e+01	
			         2.35167	2.00000e+01	
			         2.35333	2.00000e+01	
			         2.35500	2.00000e+01	
			         2.35667	1.90000e+01	
			         2.35833	1.90000e+01	
			         2.36000	1.80000e+01	
			         2.36167	1.70000e+01	
			         2.36333	1.60000e+01	
			         2.36500	1.50000e+01	
			         2.36667	1.40000e+01	
			         2.36833	1.30000e+01	
			         2.37000	1.20000e+01	
			         2.37167	1.20000e+01	
			         2.37333	1.10000e+01	
			         2.37500	1.10000e+01	
			         2.37667	1.10000e+01	
			         2.37833	1.20000e+01	
			         2.38000	1.20000e+01	
			         2.38167	1.30000e+01	
			         2.38333	1.30000e+01	
			         2.38500	1.40000e+01	
			         2.38667	1.50000e+01	
			         2.38833	1.60000e+01	
			         2.39000	1.70000e+01	
			         2.39167	1.80000e+01	
			         2.39333	1.90000e+01	
			         2.39500	1.90000e+01	
			         2.39667	1.90000e+01	
			         2.39833	1.90000e+01	
			         2.40000	1.90000e+01	
			         2.40167	1.80000e+01	
			         2.40333	1.70000e+01	
			         2.40500	1.60000e+01	
			         2.40667	1.40000e+01	
			         2.40833	1.20000e+01	
			         2.41000	1.00000e+01	
			         2.41167	7.00000e+00	
			         2.41333	5.00000e+00	
			         2.41500	2.00000e+00	
			         2.41667	0.00000e+00	
			         2.41833	-2.00000e+00	
			         2.42000	-3.00000e+00	
			         2.42167	-5.00000e+00	
			         2.42333	-6.00000e+00	
			         2.42500	-6.00000e+00	
			         2.42667	-6.00000e+00	
			         2.42833	-6.00000e+00	
			         2.43000	-5.00000e+00	
			         2.43167	-4.00000e+00	
			         2.43333	-3.00000e+00	
			         2.43500	-1.00000e+00	
			         2.43667	1.00000e+00	
			         2.43833	2.00000e+00	
			         2.44000	4.00000e+00	
			         2.44167	6.00000e+00	
			         2.44333	7.00000e+00	
			         2.44500	7.00000e+00	
			         2.44667	7.00000e+00	
			         2.44833	6.00000e+00	
			         2.45000	5.00000e+00	
			         2.45167	3.00000e+00	
			         2.45333	0.00000e+00	
			         2.45500	-2.00000e+00	
			         2.45667	-6.00000e+00	
			         2.45833	-9.00000e+00	
			         2.46000	-1.20000e+01	
			         2.46167	-1.50000e+01	
			         2.46333	-1.80000e+01	
			         2.46500	-2.00000e+01	
			         2.46667	-2.10000e+01	
			         2.46833	-2.20000e+01	
			         2.47000	-2.20000e+01	
			         2.47167	-2.20000e+01	
			         2.47333	-2.20000e+01	
			         2.47500	-2.10000e+01	
			         2.47667	-1.90000e+01	
			         2.47833	-1.70000e+01	
			         2.48000	-1.50000e+01	
			         2.48167	-1.30000e+01	
			         2.48333	-1.20000e+01	
			         2.48500	-1.00000e+01	
			         2.48667	-9.00000e+00	
			         2.48833	-8.00000e+00	
			         2.49000	-8.00000e+00	
			         2.49167	-8.00000e+00	
			         2.49333	-8.00000e+00	
			         2.49500	-9.00000e+00	
			         2.49667	-1.00000e+01	
			         2.49833	-1.20000e+01	
			         2.50000	-1.30000e+01	
			         2.50167	-1.50000e+01	
			         2.50333	-1.60000e+01	
			         2.50500	-1.70000e+01	
			         2.50667	-1.70000e+01	
			         2.50833	-1.70000e+01	
			         2.51000	-1.60000e+01	
			         2.51167	-1.40000e+01	
			         2.51333	-1.30000e+01	
			         2.51500	-1.10000e+01	
			         2.51667	-8.00000e+00	
			         2.51833	-6.00000e+00	
			         2.52000	-4.00000e+00	
			         2.52167	-2.00000e+00	
			         2.52333	0.00000e+00	
			         2.52500	2.00000e+00	
			         2.52667	3.00000e+00	
			         2.52833	3.00000e+00	
			         2.53000	3.00000e+00	
			         2.53167	3.00000e+00	
			         2.53333	2.00000e+00	
			         2.53500	0.00000e+00	
			         2.53667	-1.00000e+00	
			         2.53833	-3.00000e+00	
			         2.54000	-4.00000e+00	
			         2.54167	-5.00000e+00	
			         2.54333	-6.00000e+00	
			         2.54500	-6.00000e+00	
			         2.54667	-6.00000e+00	
			         2.54833	-6.00000e+00	
			         2.55000	-4.00000e+00	
			         2.55167	-3.00000e+00	
			         2.55333	-1.00000e+00	
			         2.55500	1.00000e+00	
			         2.55667	4.00000e+00	
			         2.55833	6.00000e+00	
			         2.56000	8.00000e+00	
			         2.56167	1.00000e+01	
			         2.56333	1.20000e+01	
			         2.56500	1.30000e+01	
			         2.56667	1.40000e+01	
			         2.56833	1.50000e+01	
			         2.57000	1.60000e+01	
			         2.57167	1.60000e+01	
			         2.57333	1.60000e+01	
			         2.57500	1.70000e+01	
			         2.57667	1.70000e+01	
			         2.57833	1.60000e+01	
			         2.58000	1.60000e+01	
			         2.58167	1.50000e+01	
			         2.58333	1.40000e+01	
			         2.58500	1.40000e+01	
			         2.58667	1.30000e+01	
			         2.58833	1.30000e+01	
			         2.59000	1.20000e+01	
			         2.59167	1.20000e+01	
			         2.59333	1.10000e+01	
			         2.59500	1.10000e+01	
			         2.59667	1.00000e+01	
			         2.59833	1.00000e+01	
			         2.60000	9.00000e+00	
			         2.60167	8.00000e+00	
			         2.60333	7.00000e+00	
			         2.60500	5.00000e+00	
			         2.60667	4.00000e+00	
			         2.60833	2.00000e+00	
			         2.61000	1.00000e+00	
			         2.61167	-1.00000e+00	
			         2.61333	-3.00000e+00	
			         2.61500	-4.00000e+00	
			         2.61667	-5.00000e+00	
			         2.61833	-7.00000e+00	
			         2.62000	-7.00000e+00	
			         2.62167	-8.00000e+00	
			         2.62333	-8.00000e+00	
			         2.62500	-8.00000e+00	
			         2.62667	-8.00000e+00	
			         2.62833	-8.00000e+00	
			         2.63000	-7.00000e+00	
			         2.63167	-7.00000e+00	
			         2.63333	-7.00000e+00	
			         2.63500	-7.00000e+00	
			         2.63667	-7.00000e+00	
			         2.63833	-8.00000e+00	
			         2.64000	-8.00000e+00	
			         2.64167	-9.00000e+00	
			         2.64333	-1.00000e+01	
			         2.64500	-1.10000e+01	
			         2.64667	-1.20000e+01	
			         2.64833	-1.30000e+01	
			         2.65000	-1.40000e+01	
			         2.65167	-1.40000e+01	
			         2.65333	-1.50000e+01	
			         2.65500	-1.60000e+01	
			         2.65667	-1.60000e+01	
			         2.65833	-1.60000e+01	
			         2.66000	-1.60000e+01	
			         2.66167	-1.70000e+01	
			         2.66333	-1.70000e+01	
			         2.66500	-1.70000e+01	
			         2.66667	-1.80000e+01	
			         2.66833	-1.80000e+01	
			         2.67000	-1.80000e+01	
			         2.67167	-1.80000e+01	
			         2.67333	-1.80000e+01	
			         2.67500	-1.80000e+01	
			         2.67667	-1.80000e+01	
			         2.67833	-1.70000e+01	
			         2.68000	-1.70000e+01	
			         2.68167	-1.60000e+01	
			         2.68333	-1.60000e+01	
			         2.68500	-1.50000e+01	
			         2.68667	-1.50000e+01	
			         2.68833	-1.40000e+01	
			         2.69000	-1.40000e+01	
			         2.69167	-1.40000e+01	
			         2.69333	-1.40000e+01	
			         2.69500	-1.40000e+01	
			         2.69667	-1.30000e+01	
			         2.69833	-1.30000e+01	
			         2.70000	-1.30000e+01	
			         2.70167	-1.30000e+01	
			         2.70333	-1.30000e+01	
			         2.70500	-1.20000e+01	
			         2.70667	-1.20000e+01	
			         2.70833	-1.20000e+01	
			         2.71000	-1.10000e+01	
			         2.71167	-1.10000e+01	
			         2.71333	-1.10000e+01	
			         2.71500	-1.10000e+01	
			         2.71667	-1.20000e+01	
			         2.71833	-1.20000e+01	
			         2.72000	-1.20000e+01	
			         2.72167	-1.10000e+01	
			         2.72333	-1.10000e+01	
			         2.72500	-1.00000e+01	
			         2.72667	-1.00000e+01	
			         2.72833	-9.00000e+00	
			         2.73000	-9.00000e+00	
			         2.73167	-8.00000e+00	
			         2.73333	-7.00000e+00	
			         2.73500	-6.00000e+00	
			         2.73667	-6.00000e+00	
			         2.73833	-5.00000e+00	
			         2.74000	-5.00000e+00	
			         2.74167	-4.00000e+00	
			         2.74333	-4.00000e+00	
			         2.74500	-4.00000e+00	
			         2.74667	-4.00000e+00	
			         2.74833	-4.00000e+00	
			         2.75000	-4.00000e+00	
			         2.75167	-4.00000e+00	
			         2.75333	-5.00000e+00	
			         2.75500	-5.00000e+00	
			         2.75667	-6.00000e+00	
			         2.75833	-6.00000e+00	
			         2.76000	-7.00000e+00	
			         2.76167	-7.00000e+00	
			         2.76333	-7.00000e+00	
			         2.76500	-7.00000e+00	
			         2.76667	-8.00000e+00	
			         2.76833	-8.00000e+00	
			         2.77000	-9.00000e+00	
			         2.77167	-1.00000e+01	
			         2.77333	-1.00000e+01	
			         2.77500	-1.00000e+01	
			         2.77667	-1.10000e+01	
			         2.77833	-1.10000e+01	
			         2.78000	-1.10000e+01	
			         2.78167	-1.10000e+01	
			         2.78333	-1.10000e+01	
			         2.78500	-1.10000e+01	
			         2.78667	-1.10000e+01	
			         2.78833	-1.10000e+01	
			         2.79000	-1.00000e+01	
			         2.79167	-1.00000e+01	
			         2.79333	-9.00000e+00	
			         2.79500	-9.00000e+00	
			         2.79667	-9.00000e+00	
			         2.79833	-8.00000e+00	
			         2.80000	-8.00000e+00	
			         2.80167	-8.00000e+00	
			         2.80333	-8.00000e+00	
			         2.80500	-8.00000e+00	
			         2.80667	-8.00000e+00	
			         2.80833	-8.00000e+00	
			         2.81000	-8.00000e+00	
			         2.81167	-8.00000e+00	
			         2.81333	-9.00000e+00	
			         2.81500	-9.00000e+00	
			         2.81667	-9.00000e+00	
			         2.81833	-1.00000e+01	
			         2.82000	-1.00000e+01	
			         2.82167	-1.00000e+01	
			         2.82333	-1.10000e+01	
			         2.82500	-1.10000e+01	
			         2.82667	-1.10000e+01	
			         2.82833	-1.00000e+01	
			         2.83000	-1.00000e+01	
			         2.83167	-9.00000e+00	
			         2.83333	-7.00000e+00	
			         2.83500	-6.00000e+00	
			         2.83667	-5.00000e+00	
			         2.83833	-4.00000e+00	
			         2.84000	-3.00000e+00	
			         2.84167	-2.00000e+00	
			         2.84333	-1.00000e+00	
			         2.84500	-1.00000e+00	
			         2.84667	-1.00000e+00	
			         2.84833	-1.00000e+00	
			         2.85000	-1.00000e+00	
			         2.85167	-1.00000e+00	
			         2.85333	-1.00000e+00	
			         2.85500	-1.00000e+00	
			         2.85667	-1.00000e+00	
			         2.85833	0.00000e+00	
			         2.86000	0.00000e+00	
			         2.86167	2.00000e+00	
			         2.86333	3.00000e+00	
			         2.86500	5.00000e+00	
			         2.86667	7.00000e+00	
			         2.86833	9.00000e+00	
			         2.87000	1.10000e+01	
			         2.87167	1.40000e+01	
			         2.87333	1.60000e+01	
			         2.87500	1.80000e+01	
			         2.87667	2.00000e+01	
			         2.87833	2.10000e+01	
			         2.88000	2.20000e+01	
			         2.88167	2.30000e+01	
			         2.88333	2.30000e+01	
			         2.88500	2.20000e+01	
			         2.88667	2.20000e+01	
			         2.88833	2.10000e+01	
			         2.89000	2.00000e+01	
			         2.89167	1.90000e+01	
			         2.89333	1.90000e+01	
			         2.89500	1.90000e+01	
			         2.89667	1.90000e+01	
			         2.89833	1.90000e+01	
			         2.90000	2.00000e+01	
			         2.90167	2.10000e+01	
			         2.90333	2.20000e+01	
			         2.90500	2.30000e+01	
			         2.90667	2.50000e+01	
			         2.90833	2.70000e+01	
			         2.91000	2.80000e+01	
			         2.91167	3.00000e+01	
			         2.91333	3.20000e+01	
			         2.91500	3.40000e+01	
			         2.91667	3.60000e+01	
			         2.91833	3.70000e+01	
			         2.92000	3.90000e+01	
			         2.92167	4.00000e+01	
			         2.92333	4.00000e+01	
			         2.92500	3.90000e+01	
			         2.92667	3.70000e+01	
			         2.92833	3.50000e+01	
			         2.93000	3.20000e+01	
			         2.93167	2.80000e+01	
			         2.93333	2.30000e+01	
			         2.93500	1.80000e+01	
			         2.93667	1.20000e+01	
			         2.93833	7.00000e+00	
			         2.94000	1.00000e+00	
			         2.94167	-4.00000e+00	
			         2.94333	-9.00000e+00	
			         2.94500	-1.30000e+01	
			         2.94667	-1.50000e+01	
			         2.94833	-1.80000e+01	
			         2.95000	-1.90000e+01	
			         2.95167	-1.90000e+01	
			         2.95333	-2.00000e+01	
			         2.95500	-1.90000e+01	
			         2.95667	-1.90000e+01	
			         2.95833	-1.70000e+01	
			         2.96000	-1.60000e+01	
			         2.96167	-1.40000e+01	
			         2.96333	-1.30000e+01	
			         2.96500	-1.20000e+01	
			         2.96667	-1.00000e+01	
			         2.96833	-9.00000e+00	
			         2.97000	-9.00000e+00	
			         2.97167	-8.00000e+00	
			         2.97333	-7.00000e+00	
			         2.97500	-7.00000e+00	
			         2.97667	-6.00000e+00	
			         2.97833	-5.00000e+00	
			         2.98000	-5.00000e+00	
			         2.98167	-4.00000e+00	
			         2.98333	-4.00000e+00	
			         2.98500	-4.00000e+00	
			         2.98667	-3.00000e+00	
			         2.98833	-4.00000e+00	
			         2.99000	-4.00000e+00	
			         2.99167	-6.00000e+00	
			         2.99333	-8.00000e+00	
			         2.99500	-1.00000e+01	
			         2.99667	-1.40000e+01	
			         2.99833	-1.70000e+01	
			         3.00000	-2.10000e+01	
			         3.00167	-2.40000e+01	
			         3.00333	-2.80000e+01	
			         3.00500	-3.10000e+01	
			         3.00667	-3.40000e+01	
			         3.00833	-3.60000e+01	
			         3.01000	-3.80000e+01	
			         3.01167	-3.80000e+01	
			         3.01333	-3.70000e+01	
			         3.01500	-3.60000e+01	
			         3.01667	-3.40000e+01	
			         3.01833	-3.20000e+01	
			         3.02000	-2.90000e+01	
			         3.02167	-2.60000e+01	
			         3.02333	-2.40000e+01	
			         3.02500	-2.10000e+01	
			         3.02667	-1.90000e+01	
			         3.02833	-1.70000e+01	
			         3.03000	-1.60000e+01	
			         3.03167	-1.50000e+01	
			         3.03333	-1.40000e+01	
			         3.03500	-1.30000e+01	
			         3.03667	-1.20000e+01	
			         3.03833	-1.10000e+01	
			         3.04000	-9.00000e+00	
			         3.04167	-6.00000e+00	
			         3.04333	-3.00000e+00	
			         3.04500	1.00000e+00	
			         3.04667	7.00000e+00	
			         3.04833	1.40000e+01	
			         3.05000	2.20000e+01	
			         3.05167	3.20000e+01	
			         3.05333	4.30000e+01	
			         3.05500	5.50000e+01	
			         3.05667	6.80000e+01	
			         3.05833	8.10000e+01	
			         3.06000	9.60000e+01	
			         3.06167	1.10000e+02	
			         3.06333	1.26000e+02	
			         3.06500	1.41000e+02	
			         3.06667	1.58000e+02	
			         3.06833	1.75000e+02	
			         3.07000	1.92000e+02	
			         3.07167	2.08000e+02	
			         3.07333	2.22000e+02	
			         3.07500	2.33000e+02	
			         3.07667	2.38000e+02	
			         3.07833	2.38000e+02	
			         3.08000	2.31000e+02	
			         3.08167	2.16000e+02	
			         3.08333	1.96000e+02	
			         3.08500	1.68000e+02	
			         3.08667	1.35000e+02	
			         3.08833	9.70000e+01	
			         3.09000	5.50000e+01	
			         3.09167	1.00000e+01	
			         3.09333	-3.50000e+01	
			         3.09500	-7.90000e+01	
			         3.09667	-1.20000e+02	
			         3.09833	-1.56000e+02	
			         3.10000	-1.85000e+02	
			         3.10167	-2.08000e+02	
			         3.10333	-2.24000e+02	
			         3.10500	-2.34000e+02	
			         3.10667	-2.38000e+02	
			         3.10833	-2.37000e+02	
			         3.11000	-2.32000e+02	
			         3.11167	-2.23000e+02	
			         3.11333	-2.12000e+02	
			         3.11500	-1.98000e+02	
			         3.11667	-1.83000e+02	
			         3.11833	-1.67000e+02	
			         3.12000	-1.50000e+02	
			         3.12167	-1.34000e+02	
			         3.12333	-1.18000e+02	
			         3.12500	-1.03000e+02	
			         3.12667	-8.80000e+01	
			         3.12833	-7.40000e+01	
			         3.13000	-6.10000e+01	
			         3.13167	-4.90000e+01	
			         3.13333	-3.90000e+01	
			         3.13500	-3.00000e+01	
			         3.13667	-2.10000e+01	
			         3.13833	-1.40000e+01	
			         3.14000	-8.00000e+00	
			         3.14167	-3.00000e+00	
			         3.14333	0.00000e+00	
			         3.14500	3.00000e+00	
			         3.14667	5.00000e+00	
			         3.14833	6.00000e+00	
			         3.15000	7.00000e+00	
			         3.15167	8.00000e+00	
			         3.15333	9.00000e+00	
			         3.15500	1.00000e+01	
			         3.15667	1.10000e+01	
