Velocity (TVI), in cm/s

Time (s) :	Trace 1 : 		Ecg : 		
0.00043   	-2.24365e+00		         0.00000	1.82000e+02	
0.00983   	-1.70938e+00		         0.00167	1.74000e+02	
0.01891   	-4.86288e-01		         0.00333	1.58000e+02	
0.02802   	-1.16085e+00		         0.00500	1.32000e+02	
0.03712   	-2.26552e+00		         0.00667	9.80000e+01	
0.04652   	-3.38607e+00		         0.00833	5.70000e+01	
0.05560   	-2.87386e+00		         0.01000	9.00000e+00	
0.06471   	-1.27421e+00		         0.01167	-4.30000e+01	
0.07381   	2.78940e-01		         0.01333	-9.80000e+01	
0.08321   	2.07589e+00		         0.01500	-1.55000e+02	
0.09229   	2.87364e+00		         0.01667	-2.09000e+02	
0.10140   	3.25733e+00		         0.01833	-2.60000e+02	
0.11050   	3.29077e+00		         0.02000	-3.05000e+02	
0.11989   	3.34654e+00		         0.02167	-3.40000e+02	
0.12898   	3.39462e+00		         0.02333	-3.64000e+02	
0.13809   	3.45839e+00		         0.02500	-3.76000e+02	
0.14719   	3.48948e+00		         0.02667	-3.77000e+02	
0.15660   	3.48316e+00		         0.02833	-3.67000e+02	
0.16567   	3.56187e+00		         0.03000	-3.48000e+02	
0.17478   	3.66042e+00		         0.03167	-3.22000e+02	
0.18388   	3.82865e+00		         0.03333	-2.90000e+02	
0.19328   	3.89672e+00		         0.03500	-2.55000e+02	
0.20236   	3.92713e+00		         0.03667	-2.18000e+02	
0.21147   	3.85552e+00		         0.03833	-1.82000e+02	
0.22057   	3.69077e+00		         0.04000	-1.47000e+02	
0.22997   	3.51675e+00		         0.04167	-1.13000e+02	
0.23905   	3.39018e+00		         0.04333	-8.30000e+01	
0.24816   	3.32189e+00		         0.04500	-5.50000e+01	
0.25726   	3.25578e+00		         0.04667	-3.10000e+01	
0.26666   	3.05937e+00		         0.04833	-1.10000e+01	
0.27574   	2.88862e+00		         0.05000	6.00000e+00	
0.28485   	2.68003e+00		         0.05167	1.90000e+01	
0.29395   	2.56753e+00		         0.05333	3.00000e+01	
0.30334   	2.38767e+00		         0.05500	3.80000e+01	
0.31243   	2.22227e+00		         0.05667	4.30000e+01	
0.32154   	2.01184e+00		         0.05833	4.70000e+01	
0.33064   	1.79671e+00		         0.06000	4.90000e+01	
0.34005   	1.51032e+00		         0.06167	4.90000e+01	
0.34913   	1.15548e+00		         0.06333	4.90000e+01	
0.35823   	6.61169e-01		         0.06500	4.90000e+01	
0.36733   	1.58688e-01		         0.06667	4.80000e+01	
0.37673   	-5.64002e-01		         0.06833	4.70000e+01	
0.38582   	4.08557e-01		         0.07000	4.60000e+01	
0.39523   	9.31881e-01		         0.07167	4.60000e+01	
0.40403   	1.67462e+00		         0.07333	4.50000e+01	
0.41342   	1.24818e+00		         0.07500	4.60000e+01	
0.42251   	1.56245e+00		         0.07667	4.70000e+01	
0.43161   	2.22871e+00		         0.07833	4.80000e+01	
0.44071   	2.65409e+00		         0.08000	4.90000e+01	
0.45011   	2.85425e+00		         0.08167	5.00000e+01	
0.45919   	2.67334e+00		         0.08333	5.10000e+01	
0.46830   	2.13311e+00		         0.08500	5.10000e+01	
0.47740   	1.40193e+00		         0.08667	5.20000e+01	
0.48681   	1.50868e-02		         0.08833	5.20000e+01	
0.49588   	-1.72040e+00		         0.09000	5.10000e+01	
0.50499   	-2.75655e+00		         0.09167	5.00000e+01	
0.51410   	-3.14929e+00		         0.09333	4.90000e+01	
0.52349   	-3.16802e+00		         0.09500	4.70000e+01	
0.53258   	-3.46194e+00		         0.09667	4.60000e+01	
0.54168   	-3.80854e+00		         0.09833	4.40000e+01	
0.55079   	-3.78524e+00		         0.10000	4.20000e+01	
0.56019   	-3.84334e+00		         0.10167	4.00000e+01	
0.56927   	-3.56233e+00		         0.10333	3.70000e+01	
0.57837   	-3.27669e+00		         0.10500	3.50000e+01	
0.58748   	-2.96253e+00		         0.10667	3.30000e+01	
0.59687   	-2.73767e+00		         0.10833	3.10000e+01	
0.60596   	-2.40727e+00		         0.11000	2.90000e+01	
0.61506   	-2.10877e+00		         0.11167	2.70000e+01	
0.62417   	-1.77097e+00		         0.11333	2.50000e+01	
0.63355   	-1.59320e+00		         0.11500	2.40000e+01	
0.64265   	-1.39234e+00		         0.11667	2.30000e+01	
0.65175   	-1.16131e+00		         0.11833	2.20000e+01	
0.66086   	-1.06927e+00		         0.12000	2.10000e+01	
0.67026   	-1.02753e+00		         0.12167	2.00000e+01	
0.67933   	-9.86173e-01		         0.12333	2.00000e+01	
0.68844   	-8.65539e-01		         0.12500	2.00000e+01	
0.69755   	-7.73679e-01		         0.12667	2.10000e+01	
0.70694   	-8.09344e-01		         0.12833	2.10000e+01	
0.71603   	-1.03432e+00		         0.13000	2.10000e+01	
0.72513   	-1.57731e+00		         0.13167	2.10000e+01	
0.73424   	-2.42031e+00		         0.13333	2.10000e+01	
0.74368   	-3.53166e+00		         0.13500	2.10000e+01	
0.75272   	-4.97109e+00		         0.13667	2.10000e+01	
0.76182   	-6.62622e+00		         0.13833	2.10000e+01	
0.77093   	-8.23488e+00		         0.14000	2.10000e+01	
0.78032   	-9.24913e+00		         0.14167	2.10000e+01	
0.78941   	-9.44277e+00		         0.14333	2.00000e+01	
0.79851   	-8.65783e+00		         0.14500	2.00000e+01	
0.80762   	-7.44290e+00		         0.14667	1.90000e+01	
0.81702   	-6.07506e+00		         0.14833	1.90000e+01	
0.82610   	-4.92305e+00		         0.15000	1.90000e+01	
0.83521   	-3.74570e+00		         0.15167	1.90000e+01	
0.84431   	-2.50137e+00		         0.15333	2.00000e+01	
0.85371   	-1.05500e+00		         0.15500	2.10000e+01	
0.86279   	-3.57261e-01		         0.15667	2.10000e+01	
0.87189   	-1.34534e+00		         0.15833	2.20000e+01	
0.88100   	-3.22529e+00		         0.16000	2.30000e+01	
0.89040   	-3.94509e+00		         0.16167	2.40000e+01	
0.89948   	-3.07024e+00		         0.16333	2.40000e+01	
0.90858   	-1.20148e+00		         0.16500	2.40000e+01	
0.91769   	4.47007e-01		         0.16667	2.40000e+01	
0.92709   	1.94586e+00		         0.16833	2.30000e+01	
0.93617   	3.00785e+00		         0.17000	2.30000e+01	
0.94527   	3.54345e+00		         0.17167	2.20000e+01	
0.95438   	3.91210e+00		         0.17333	2.00000e+01	
0.96377   	4.02127e+00		         0.17500	1.90000e+01	
0.97286   	3.99513e+00		         0.17667	1.70000e+01	
0.98197   	3.95648e+00		         0.17833	1.60000e+01	
0.99107   	3.87232e+00		         0.18000	1.40000e+01	
1.00047   	3.87519e+00		         0.18167	1.30000e+01	
1.00955   	3.74326e+00		         0.18333	1.20000e+01	
1.01866   	3.79615e+00		         0.18500	1.20000e+01	
1.02776   	3.75727e+00		         0.18667	1.20000e+01	
1.03716   	3.83423e+00		         0.18833	1.30000e+01	
1.04624   	3.75662e+00		         0.19000	1.40000e+01	
1.05535   	3.74734e+00		         0.19167	1.50000e+01	
1.06445   	3.69606e+00		         0.19333	1.70000e+01	
1.07385   	3.68524e+00		         0.19500	1.90000e+01	
1.08293   	3.58261e+00		         0.19667	2.00000e+01	
1.09203   	3.42231e+00		         0.19833	2.20000e+01	
1.10114   	3.25334e+00		         0.20000	2.40000e+01	
1.11054   	3.05227e+00		         0.20167	2.70000e+01	
1.11962   	2.86457e+00		         0.20333	3.00000e+01	
1.12872   	2.65706e+00		         0.20500	3.20000e+01	
1.13783   	2.50116e+00		         0.20667	3.50000e+01	
1.14724   	2.28738e+00		         0.20833	3.70000e+01	
1.15631   	2.14241e+00		         0.21000	3.80000e+01	
1.16542   	1.91395e+00		         0.21167	3.80000e+01	
1.17452   	1.73237e+00		         0.21333	3.80000e+01	
1.18392   	1.40374e+00		         0.21500	3.70000e+01	
1.19300   	1.08631e+00		         0.21667	3.60000e+01	
1.20210   	6.64715e-01		         0.21833	3.50000e+01	
1.21121   	3.68104e-01		         0.22000	3.40000e+01	
1.22061   	-4.64329e-01		         0.22167	3.20000e+01	
1.22969   	2.40402e-01		         0.22333	3.10000e+01	
1.23880   	5.30201e-01		         0.22500	3.00000e+01	
1.24790   	1.56699e+00		         0.22667	2.90000e+01	
1.25730   	1.45417e+00		         0.22833	2.90000e+01	
1.26638   	1.83849e+00		         0.23000	3.00000e+01	
1.27548   	2.35249e+00		         0.23167	3.20000e+01	
1.28459   	2.70806e+00		         0.23333	3.50000e+01	
1.29398   	3.01153e+00		         0.23500	3.80000e+01	
1.30307   	3.05455e+00		         0.23667	4.10000e+01	
1.31218   	2.81245e+00		         0.23833	4.50000e+01	
1.32128   	2.31042e+00		         0.24000	4.90000e+01	
1.33067   	1.55234e+00		         0.24167	5.20000e+01	
1.33976   	4.54621e-01		         0.24333	5.60000e+01	
1.34887   	-5.09993e-01		         0.24500	5.90000e+01	
1.35799   	-1.70551e+00		         0.24667	6.20000e+01	
1.36736   	-2.41207e+00		         0.24833	6.50000e+01	
1.37645   	-3.09227e+00		         0.25000	6.70000e+01	
1.38556   	-3.32416e+00		         0.25167	6.90000e+01	
1.39466   	-3.47134e+00		         0.25333	7.10000e+01	
1.40406   	-3.44030e+00		         0.25500	7.30000e+01	
1.41314   	-3.28002e+00		         0.25667	7.40000e+01	
1.42225   	-2.97221e+00		         0.25833	7.60000e+01	
1.43135   	-2.66169e+00		         0.26000	7.80000e+01	
1.44103   	-2.24892e+00		         0.26167	8.00000e+01	
1.44983   	-1.89909e+00		         0.26333	8.10000e+01	
1.45894   	-1.59643e+00		         0.26500	8.20000e+01	
1.46804   	-1.43861e+00		         0.26667	8.30000e+01	
1.47745   	-1.30647e+00		         0.26833	8.40000e+01	
1.48653   	-1.18781e+00		         0.27000	8.40000e+01	
1.49563   	-1.05624e+00		         0.27167	8.40000e+01	
1.50473   	-9.50625e-01		         0.27333	8.40000e+01	
1.51411   	-8.54384e-01		         0.27500	8.50000e+01	
1.52321   	-6.97873e-01		         0.27667	8.50000e+01	
1.53232   	-5.52561e-01		         0.27833	8.50000e+01	
1.54142   	-4.60923e-01		         0.28000	8.50000e+01	
1.55081   	-4.60629e-01		         0.28167	8.50000e+01	
1.55990   	-5.14012e-01		         0.28333	8.40000e+01	
1.56901   	-7.57572e-01		         0.28500	8.30000e+01	
1.57812   	-1.11712e+00		         0.28667	8.10000e+01	
1.58750   	-1.81151e+00		         0.28833	8.00000e+01	
1.59659   	-2.75747e+00		         0.29000	7.80000e+01	
1.60570   	-4.17968e+00		         0.29167	7.70000e+01	
1.61480   	-5.93880e+00		         0.29333	7.50000e+01	
1.62420   	-7.65583e+00		         0.29500	7.20000e+01	
1.63328   	-8.89287e+00		         0.29667	7.00000e+01	
1.64239   	-9.28649e+00		         0.29833	6.70000e+01	
1.65150   	-8.77567e+00		         0.30000	6.40000e+01	
1.66090   	-7.61640e+00		         0.30167	6.10000e+01	
1.66998   	-6.26205e+00		         0.30333	5.80000e+01	
1.67908   	-5.01570e+00		         0.30500	5.50000e+01	
1.68818   	-3.82231e+00		         0.30667	5.30000e+01	
1.69757   	-2.50797e+00		         0.30833	5.10000e+01	
1.70679   	-1.46640e+00		         0.31000	4.90000e+01	
1.71577   	-1.47180e+00		         0.31167	4.70000e+01	
1.72487   	-2.13771e+00		         0.31333	4.40000e+01	
1.73427   	-2.95478e+00		         0.31500	4.20000e+01	
1.74335   	-3.16176e+00		         0.31667	3.80000e+01	
1.75246   	-2.67010e+00		         0.31833	3.40000e+01	
1.76157   	-1.41588e+00		         0.32000	3.00000e+01	
1.77097   	4.05466e-01		         0.32167	2.40000e+01	
1.78005   	2.01891e+00		         0.32333	1.90000e+01	
1.78915   	3.00643e+00		         0.32500	1.20000e+01	
1.79826   	3.56909e+00		         0.32667	6.00000e+00	
1.80765   	3.86890e+00		         0.32833	-1.00000e+00	
1.81674   	3.97501e+00		         0.33000	-8.00000e+00	
1.82584   	3.90493e+00		         0.33167	-1.50000e+01	
1.83495   	3.81769e+00		         0.33333	-2.10000e+01	
1.84433   	3.80979e+00		         0.33500	-2.70000e+01	
1.85343   	3.81873e+00		         0.33667	-3.20000e+01	
1.86253   	3.71144e+00		         0.33833	-3.70000e+01	
1.87163   	3.66200e+00		         0.34000	-4.10000e+01	
1.88102   	3.61934e+00		         0.34167	-4.40000e+01	
1.89012   	3.68542e+00		         0.34333	-4.70000e+01	
1.89922   	3.67979e+00		         0.34500	-4.90000e+01	
1.90833   	3.67576e+00		         0.34667	-5.20000e+01	
1.91773   	3.63855e+00		         0.34833	-5.30000e+01	
1.92681   	3.61631e+00		         0.35000	-5.50000e+01	
1.93591   	3.52855e+00		         0.35167	-5.70000e+01	
1.94502   	3.40931e+00		         0.35333	-5.80000e+01	
1.95440   	3.29844e+00		         0.35500	-5.90000e+01	
1.96350   	3.15730e+00		         0.35667	-5.90000e+01	
1.97260   	2.97807e+00		         0.35833	-6.00000e+01	
1.98171   	2.77081e+00		         0.36000	-6.00000e+01	
1.99111   	2.56685e+00		         0.36167	-6.00000e+01	
2.00019   	2.40065e+00		         0.36333	-6.00000e+01	
2.00930   	2.19374e+00		         0.36500	-6.00000e+01	
2.01840   	1.98222e+00		         0.36667	-6.00000e+01	
2.02778   	1.71991e+00		         0.36833	-6.00000e+01	
2.03688   	1.48676e+00		         0.37000	-6.00000e+01	
2.04598   	1.18453e+00		         0.37167	-6.00000e+01	
2.05529   	8.19956e-01		         0.37333	-6.00000e+01	
2.06449   	4.03795e-01		         0.37500	-6.00000e+01	
2.07357   	-5.31575e-01		         0.37667	-5.90000e+01	
2.08267   	-6.81949e-01		         0.37833	-5.70000e+01	
2.09178   	-3.28030e-01		         0.38000	-5.50000e+01	
2.10119   	6.67715e-01		         0.38167	-5.40000e+01	
2.11026   	1.45176e+00		         0.38333	-5.20000e+01	
2.11936   	1.92319e+00		         0.38500	-5.10000e+01	
2.12847   	2.55547e+00		         0.38667	-5.10000e+01	
2.13785   	2.90812e+00		         0.38833	-5.10000e+01	
2.14695   	3.20254e+00		         0.39000	-5.10000e+01	
2.15605   	3.20464e+00		         0.39167	-5.20000e+01	
2.16516   	3.04000e+00		         0.39333	-5.30000e+01	
2.17454   	2.66281e+00		         0.39500	-5.40000e+01	
2.18364   	2.06325e+00		         0.39667	-5.60000e+01	
2.19275   	1.03737e+00		         0.39833	-5.90000e+01	
2.20185   	-8.68045e-02		         0.40000	-6.10000e+01	
2.21124   	-9.98027e-01		         0.40167	-6.30000e+01	
2.22033   	-1.72375e+00		         0.40333	-6.50000e+01	
2.22944   	-2.36406e+00		         0.40500	-6.60000e+01	
2.23854   	-2.89436e+00		         0.40667	-6.60000e+01	
2.24793   	-3.24100e+00		         0.40833	-6.50000e+01	
2.25702   	-3.37171e+00		         0.41000	-6.30000e+01	
2.26613   	-3.34943e+00		         0.41167	-6.10000e+01	
2.27523   	-3.05691e+00		         0.41333	-5.80000e+01	
2.28463   	-2.62407e+00		         0.41500	-5.50000e+01	
2.29371   	-2.21208e+00		         0.41667	-5.20000e+01	
2.30281   	-1.90250e+00		         0.41833	-4.90000e+01	
2.31193   	-1.68281e+00		         0.42000	-4.60000e+01	
2.32130   	-1.48520e+00		         0.42167	-4.20000e+01	
2.33040   	-1.36198e+00		         0.42333	-3.80000e+01	
2.33950   	-1.28890e+00		         0.42500	-3.50000e+01	
2.34861   	-1.21862e+00		         0.42667	-3.10000e+01	
2.35801   	-1.05934e+00		         0.42833	-2.90000e+01	
2.36709   	-8.84932e-01		         0.43000	-2.70000e+01	
2.37620   	-7.08066e-01		         0.43167	-2.60000e+01	
2.38530   	-5.82518e-01		         0.43333	-2.50000e+01	
2.39470   	-4.86407e-01		         0.43500	-2.50000e+01	
2.40410   	-4.60551e-01		         0.43667	-2.50000e+01	
2.41289   	-6.44666e-01		         0.43833	-2.60000e+01	
2.42199   	-1.05743e+00		         0.44000	-2.70000e+01	
2.43140   	-1.69595e+00		         0.44167	-2.90000e+01	
2.44047   	-2.61398e+00		         0.44333	-3.00000e+01	
2.44958   	-3.80267e+00		         0.44500	-3.20000e+01	
2.45868   	-5.45771e+00		         0.44667	-3.20000e+01	
2.46808   	-7.13886e+00		         0.44833	-3.20000e+01	
2.47716   	-8.55812e+00		         0.45000	-3.10000e+01	
2.48627   	-9.14000e+00		         0.45167	-2.80000e+01	
2.49537   	-8.87484e+00		         0.45333	-2.40000e+01	
2.50476   	-8.03708e+00		         0.45500	-1.90000e+01	
2.51385   	-6.81513e+00		         0.45667	-1.40000e+01	
2.52296   	-5.63645e+00		         0.45833	-1.00000e+01	
2.53206   	-4.43636e+00		         0.46000	-5.00000e+00	
2.54146   	-3.21669e+00		         0.46167	-1.00000e+00	
2.55054   	-1.99421e+00		         0.46333	2.00000e+00	
2.55965   	-6.64129e-01		         0.46500	5.00000e+00	
2.56875   	-4.88625e+00		         0.46667	7.00000e+00	
2.57815   	-6.26650e+00		         0.46833	7.00000e+00	
2.58723   	-9.70296e+00		         0.47000	7.00000e+00	
			         0.47167	6.00000e+00	
			         0.47333	4.00000e+00	
			         0.47500	2.00000e+00	
			         0.47667	0.00000e+00	
			         0.47833	-3.00000e+00	
			         0.48000	-4.00000e+00	
			         0.48167	-5.00000e+00	
			         0.48333	-5.00000e+00	
			         0.48500	-4.00000e+00	
			         0.48667	-3.00000e+00	
			         0.48833	-2.00000e+00	
			         0.49000	0.00000e+00	
			         0.49167	2.00000e+00	
			         0.49333	4.00000e+00	
			         0.49500	6.00000e+00	
			         0.49667	8.00000e+00	
			         0.49833	9.00000e+00	
			         0.50000	1.00000e+01	
			         0.50167	1.10000e+01	
			         0.50333	1.10000e+01	
			         0.50500	1.10000e+01	
			         0.50667	1.10000e+01	
			         0.50833	1.20000e+01	
			         0.51000	1.20000e+01	
			         0.51167	1.20000e+01	
			         0.51333	1.30000e+01	
			         0.51500	1.40000e+01	
			         0.51667	1.40000e+01	
			         0.51833	1.50000e+01	
			         0.52000	1.60000e+01	
			         0.52167	1.60000e+01	
			         0.52333	1.60000e+01	
			         0.52500	1.60000e+01	
			         0.52667	1.50000e+01	
			         0.52833	1.40000e+01	
			         0.53000	1.30000e+01	
			         0.53167	1.20000e+01	
			         0.53333	1.00000e+01	
			         0.53500	9.00000e+00	
			         0.53667	8.00000e+00	
			         0.53833	7.00000e+00	
			         0.54000	6.00000e+00	
			         0.54167	6.00000e+00	
			         0.54333	6.00000e+00	
			         0.54500	6.00000e+00	
			         0.54667	6.00000e+00	
			         0.54833	6.00000e+00	
			         0.55000	6.00000e+00	
			         0.55167	6.00000e+00	
			         0.55333	6.00000e+00	
			         0.55500	5.00000e+00	
			         0.55667	4.00000e+00	
			         0.55833	2.00000e+00	
			         0.56000	1.00000e+00	
			         0.56167	-1.00000e+00	
			         0.56333	-3.00000e+00	
			         0.56500	-5.00000e+00	
			         0.56667	-7.00000e+00	
			         0.56833	-8.00000e+00	
			         0.57000	-9.00000e+00	
			         0.57167	-9.00000e+00	
			         0.57333	-9.00000e+00	
			         0.57500	-9.00000e+00	
			         0.57667	-9.00000e+00	
			         0.57833	-8.00000e+00	
			         0.58000	-7.00000e+00	
			         0.58167	-6.00000e+00	
			         0.58333	-5.00000e+00	
			         0.58500	-5.00000e+00	
			         0.58667	-4.00000e+00	
			         0.58833	-4.00000e+00	
			         0.59000	-4.00000e+00	
			         0.59167	-3.00000e+00	
			         0.59333	-3.00000e+00	
			         0.59500	-4.00000e+00	
			         0.59667	-4.00000e+00	
			         0.59833	-5.00000e+00	
			         0.60000	-6.00000e+00	
			         0.60167	-6.00000e+00	
			         0.60333	-7.00000e+00	
			         0.60500	-8.00000e+00	
			         0.60667	-9.00000e+00	
			         0.60833	-9.00000e+00	
			         0.61000	-1.00000e+01	
			         0.61167	-1.10000e+01	
			         0.61333	-1.20000e+01	
			         0.61500	-1.30000e+01	
			         0.61667	-1.40000e+01	
			         0.61833	-1.50000e+01	
			         0.62000	-1.50000e+01	
			         0.62167	-1.50000e+01	
			         0.62333	-1.40000e+01	
			         0.62500	-1.40000e+01	
			         0.62667	-1.30000e+01	
			         0.62833	-1.20000e+01	
			         0.63000	-1.00000e+01	
			         0.63167	-9.00000e+00	
			         0.63333	-7.00000e+00	
			         0.63500	-6.00000e+00	
			         0.63667	-4.00000e+00	
			         0.63833	-3.00000e+00	
			         0.64000	-2.00000e+00	
			         0.64167	-1.00000e+00	
			         0.64333	0.00000e+00	
			         0.64500	0.00000e+00	
			         0.64667	1.00000e+00	
			         0.64833	1.00000e+00	
			         0.65000	1.00000e+00	
			         0.65167	1.00000e+00	
			         0.65333	1.00000e+00	
			         0.65500	1.00000e+00	
			         0.65667	0.00000e+00	
			         0.65833	-1.00000e+00	
			         0.66000	-2.00000e+00	
			         0.66167	-3.00000e+00	
			         0.66333	-4.00000e+00	
			         0.66500	-5.00000e+00	
			         0.66667	-6.00000e+00	
			         0.66833	-6.00000e+00	
			         0.67000	-6.00000e+00	
			         0.67167	-6.00000e+00	
			         0.67333	-5.00000e+00	
			         0.67500	-3.00000e+00	
			         0.67667	-1.00000e+00	
			         0.67833	1.00000e+00	
			         0.68000	4.00000e+00	
			         0.68167	7.00000e+00	
			         0.68333	1.00000e+01	
			         0.68500	1.20000e+01	
			         0.68667	1.50000e+01	
			         0.68833	1.60000e+01	
			         0.69000	1.80000e+01	
			         0.69167	1.90000e+01	
			         0.69333	1.90000e+01	
			         0.69500	2.00000e+01	
			         0.69667	2.00000e+01	
			         0.69833	2.00000e+01	
			         0.70000	2.00000e+01	
			         0.70167	2.00000e+01	
			         0.70333	2.10000e+01	
			         0.70500	2.20000e+01	
			         0.70667	2.30000e+01	
			         0.70833	2.40000e+01	
			         0.71000	2.60000e+01	
			         0.71167	2.80000e+01	
			         0.71333	3.00000e+01	
			         0.71500	3.10000e+01	
			         0.71667	3.20000e+01	
			         0.71833	3.20000e+01	
			         0.72000	3.10000e+01	
			         0.72167	2.90000e+01	
			         0.72333	2.70000e+01	
			         0.72500	2.40000e+01	
			         0.72667	2.10000e+01	
			         0.72833	1.70000e+01	
			         0.73000	1.20000e+01	
			         0.73167	8.00000e+00	
			         0.73333	3.00000e+00	
			         0.73500	-1.00000e+00	
			         0.73667	-5.00000e+00	
			         0.73833	-8.00000e+00	
			         0.74000	-1.20000e+01	
			         0.74167	-1.40000e+01	
			         0.74333	-1.60000e+01	
			         0.74500	-1.70000e+01	
			         0.74667	-1.80000e+01	
			         0.74833	-1.80000e+01	
			         0.75000	-1.90000e+01	
			         0.75167	-1.90000e+01	
			         0.75333	-2.00000e+01	
			         0.75500	-2.00000e+01	
			         0.75667	-2.00000e+01	
			         0.75833	-2.00000e+01	
			         0.76000	-2.00000e+01	
			         0.76167	-2.00000e+01	
			         0.76333	-2.00000e+01	
			         0.76500	-2.00000e+01	
			         0.76667	-2.10000e+01	
			         0.76833	-2.10000e+01	
			         0.77000	-2.10000e+01	
			         0.77167	-2.20000e+01	
			         0.77333	-2.20000e+01	
			         0.77500	-2.20000e+01	
			         0.77667	-2.20000e+01	
			         0.77833	-2.10000e+01	
			         0.78000	-2.10000e+01	
			         0.78167	-2.10000e+01	
			         0.78333	-2.10000e+01	
			         0.78500	-2.10000e+01	
			         0.78667	-2.10000e+01	
			         0.78833	-2.10000e+01	
			         0.79000	-2.10000e+01	
			         0.79167	-2.00000e+01	
			         0.79333	-1.90000e+01	
			         0.79500	-1.80000e+01	
			         0.79667	-1.80000e+01	
			         0.79833	-1.70000e+01	
			         0.80000	-1.80000e+01	
			         0.80167	-1.80000e+01	
			         0.80333	-1.80000e+01	
			         0.80500	-1.90000e+01	
			         0.80667	-1.80000e+01	
			         0.80833	-1.70000e+01	
			         0.81000	-1.50000e+01	
			         0.81167	-1.30000e+01	
			         0.81333	-1.00000e+01	
			         0.81500	-7.00000e+00	
			         0.81667	-2.00000e+00	
			         0.81833	5.00000e+00	
			         0.82000	1.30000e+01	
			         0.82167	2.30000e+01	
			         0.82333	3.40000e+01	
			         0.82500	4.60000e+01	
			         0.82667	5.80000e+01	
			         0.82833	7.00000e+01	
			         0.83000	8.20000e+01	
			         0.83167	9.30000e+01	
			         0.83333	1.04000e+02	
			         0.83500	1.14000e+02	
			         0.83667	1.24000e+02	
			         0.83833	1.31000e+02	
			         0.84000	1.36000e+02	
			         0.84167	1.36000e+02	
			         0.84333	1.30000e+02	
			         0.84500	1.16000e+02	
			         0.84667	9.40000e+01	
			         0.84833	6.50000e+01	
			         0.85000	2.70000e+01	
			         0.85167	-1.70000e+01	
			         0.85333	-6.60000e+01	
			         0.85500	-1.19000e+02	
			         0.85667	-1.73000e+02	
			         0.85833	-2.27000e+02	
			         0.86000	-2.77000e+02	
			         0.86167	-3.22000e+02	
			         0.86333	-3.58000e+02	
			         0.86500	-3.83000e+02	
			         0.86667	-3.97000e+02	
			         0.86833	-3.98000e+02	
			         0.87000	-3.88000e+02	
			         0.87167	-3.67000e+02	
			         0.87333	-3.38000e+02	
			         0.87500	-3.03000e+02	
			         0.87667	-2.64000e+02	
			         0.87833	-2.24000e+02	
			         0.88000	-1.83000e+02	
			         0.88167	-1.44000e+02	
			         0.88333	-1.07000e+02	
			         0.88500	-7.40000e+01	
			         0.88667	-4.40000e+01	
			         0.88833	-1.90000e+01	
			         0.89000	2.00000e+00	
			         0.89167	1.90000e+01	
			         0.89333	3.30000e+01	
			         0.89500	4.30000e+01	
			         0.89667	5.10000e+01	
			         0.89833	5.70000e+01	
			         0.90000	6.10000e+01	
			         0.90167	6.30000e+01	
			         0.90333	6.50000e+01	
			         0.90500	6.50000e+01	
			         0.90667	6.40000e+01	
			         0.90833	6.20000e+01	
			         0.91000	6.00000e+01	
			         0.91167	5.80000e+01	
			         0.91333	5.60000e+01	
			         0.91500	5.40000e+01	
			         0.91667	5.30000e+01	
			         0.91833	5.20000e+01	
			         0.92000	5.10000e+01	
			         0.92167	5.00000e+01	
			         0.92333	5.00000e+01	
			         0.92500	4.90000e+01	
			         0.92667	4.90000e+01	
			         0.92833	4.80000e+01	
			         0.93000	4.70000e+01	
			         0.93167	4.60000e+01	
			         0.93333	4.50000e+01	
			         0.93500	4.30000e+01	
			         0.93667	4.10000e+01	
			         0.93833	3.90000e+01	
			         0.94000	3.80000e+01	
			         0.94167	3.60000e+01	
			         0.94333	3.50000e+01	
			         0.94500	3.40000e+01	
			         0.94667	3.30000e+01	
			         0.94833	3.30000e+01	
			         0.95000	3.30000e+01	
			         0.95167	3.40000e+01	
			         0.95333	3.40000e+01	
			         0.95500	3.40000e+01	
			         0.95667	3.50000e+01	
			         0.95833	3.50000e+01	
			         0.96000	3.40000e+01	
			         0.96167	3.40000e+01	
			         0.96333	3.30000e+01	
			         0.96500	3.20000e+01	
			         0.96667	3.00000e+01	
			         0.96833	2.80000e+01	
			         0.97000	2.60000e+01	
			         0.97167	2.40000e+01	
			         0.97333	2.20000e+01	
			         0.97500	2.10000e+01	
			         0.97667	1.90000e+01	
			         0.97833	1.80000e+01	
			         0.98000	1.80000e+01	
			         0.98167	1.80000e+01	
			         0.98333	1.90000e+01	
			         0.98500	2.00000e+01	
			         0.98667	2.10000e+01	
			         0.98833	2.30000e+01	
			         0.99000	2.40000e+01	
			         0.99167	2.50000e+01	
			         0.99333	2.70000e+01	
			         0.99500	2.80000e+01	
			         0.99667	2.90000e+01	
			         0.99833	3.00000e+01	
			         1.00000	3.00000e+01	
			         1.00167	3.00000e+01	
			         1.00333	2.90000e+01	
			         1.00500	2.80000e+01	
			         1.00667	2.80000e+01	
			         1.00833	2.70000e+01	
			         1.01000	2.60000e+01	
			         1.01167	2.50000e+01	
			         1.01333	2.40000e+01	
			         1.01500	2.30000e+01	
			         1.01667	2.20000e+01	
			         1.01833	2.10000e+01	
			         1.02000	2.00000e+01	
			         1.02167	2.00000e+01	
			         1.02333	2.00000e+01	
			         1.02500	1.90000e+01	
			         1.02667	1.90000e+01	
			         1.02833	1.90000e+01	
			         1.03000	2.00000e+01	
			         1.03167	2.00000e+01	
			         1.03333	2.10000e+01	
			         1.03500	2.20000e+01	
			         1.03667	2.40000e+01	
			         1.03833	2.50000e+01	
			         1.04000	2.70000e+01	
			         1.04167	2.80000e+01	
			         1.04333	3.00000e+01	
			         1.04500	3.20000e+01	
			         1.04667	3.30000e+01	
			         1.04833	3.40000e+01	
			         1.05000	3.50000e+01	
			         1.05167	3.60000e+01	
			         1.05333	3.70000e+01	
			         1.05500	3.80000e+01	
			         1.05667	3.80000e+01	
			         1.05833	3.90000e+01	
			         1.06000	4.00000e+01	
			         1.06167	4.00000e+01	
			         1.06333	4.10000e+01	
			         1.06500	4.20000e+01	
			         1.06667	4.30000e+01	
			         1.06833	4.40000e+01	
			         1.07000	4.60000e+01	
			         1.07167	4.80000e+01	
			         1.07333	5.00000e+01	
			         1.07500	5.30000e+01	
			         1.07667	5.60000e+01	
			         1.07833	6.00000e+01	
			         1.08000	6.40000e+01	
			         1.08167	6.80000e+01	
			         1.08333	7.20000e+01	
			         1.08500	7.50000e+01	
			         1.08667	7.80000e+01	
			         1.08833	8.00000e+01	
			         1.09000	8.30000e+01	
			         1.09167	8.40000e+01	
			         1.09333	8.50000e+01	
			         1.09500	8.60000e+01	
			         1.09667	8.50000e+01	
			         1.09833	8.40000e+01	
			         1.10000	8.30000e+01	
			         1.10167	8.10000e+01	
			         1.10333	8.00000e+01	
			         1.10500	7.90000e+01	
			         1.10667	7.80000e+01	
			         1.10833	7.70000e+01	
			         1.11000	7.50000e+01	
			         1.11167	7.40000e+01	
			         1.11333	7.40000e+01	
			         1.11500	7.30000e+01	
			         1.11667	7.30000e+01	
			         1.11833	7.40000e+01	
			         1.12000	7.40000e+01	
			         1.12167	7.40000e+01	
			         1.12333	7.40000e+01	
			         1.12500	7.30000e+01	
			         1.12667	7.20000e+01	
			         1.12833	7.20000e+01	
			         1.13000	7.10000e+01	
			         1.13167	7.10000e+01	
			         1.13333	7.00000e+01	
			         1.13500	7.00000e+01	
			         1.13667	7.00000e+01	
			         1.13833	6.90000e+01	
			         1.14000	6.80000e+01	
			         1.14167	6.60000e+01	
			         1.14333	6.40000e+01	
			         1.14500	6.20000e+01	
			         1.14667	5.90000e+01	
			         1.14833	5.60000e+01	
			         1.15000	5.20000e+01	
			         1.15167	4.80000e+01	
			         1.15333	4.30000e+01	
			         1.15500	3.70000e+01	
			         1.15667	3.00000e+01	
			         1.15833	2.30000e+01	
			         1.16000	1.60000e+01	
			         1.16167	9.00000e+00	
			         1.16333	3.00000e+00	
			         1.16500	-3.00000e+00	
			         1.16667	-8.00000e+00	
			         1.16833	-1.40000e+01	
			         1.17000	-1.90000e+01	
			         1.17167	-2.30000e+01	
			         1.17333	-2.60000e+01	
			         1.17500	-2.90000e+01	
			         1.17667	-3.20000e+01	
			         1.17833	-3.40000e+01	
			         1.18000	-3.60000e+01	
			         1.18167	-3.80000e+01	
			         1.18333	-4.10000e+01	
			         1.18500	-4.30000e+01	
			         1.18667	-4.60000e+01	
			         1.18833	-4.80000e+01	
			         1.19000	-5.10000e+01	
			         1.19167	-5.30000e+01	
			         1.19333	-5.60000e+01	
			         1.19500	-5.80000e+01	
			         1.19667	-6.10000e+01	
			         1.19833	-6.30000e+01	
			         1.20000	-6.40000e+01	
			         1.20167	-6.50000e+01	
			         1.20333	-6.60000e+01	
			         1.20500	-6.60000e+01	
			         1.20667	-6.50000e+01	
			         1.20833	-6.50000e+01	
			         1.21000	-6.40000e+01	
			         1.21167	-6.30000e+01	
			         1.21333	-6.20000e+01	
			         1.21500	-6.10000e+01	
			         1.21667	-6.10000e+01	
			         1.21833	-6.10000e+01	
			         1.22000	-6.00000e+01	
			         1.22167	-6.00000e+01	
			         1.22333	-6.10000e+01	
			         1.22500	-6.10000e+01	
			         1.22667	-6.10000e+01	
			         1.22833	-6.10000e+01	
			         1.23000	-6.10000e+01	
			         1.23167	-6.10000e+01	
			         1.23333	-6.00000e+01	
			         1.23500	-5.80000e+01	
			         1.23667	-5.70000e+01	
			         1.23833	-5.50000e+01	
			         1.24000	-5.30000e+01	
			         1.24167	-5.00000e+01	
			         1.24333	-4.80000e+01	
			         1.24500	-4.50000e+01	
			         1.24667	-4.20000e+01	
			         1.24833	-3.90000e+01	
			         1.25000	-3.60000e+01	
			         1.25167	-3.30000e+01	
			         1.25333	-3.00000e+01	
			         1.25500	-2.70000e+01	
			         1.25667	-2.50000e+01	
			         1.25833	-2.30000e+01	
			         1.26000	-2.20000e+01	
			         1.26167	-2.10000e+01	
			         1.26333	-2.10000e+01	
			         1.26500	-2.20000e+01	
			         1.26667	-2.40000e+01	
			         1.26833	-2.60000e+01	
			         1.27000	-2.80000e+01	
			         1.27167	-3.10000e+01	
			         1.27333	-3.40000e+01	
			         1.27500	-3.60000e+01	
			         1.27667	-3.80000e+01	
			         1.27833	-3.90000e+01	
			         1.28000	-4.00000e+01	
			         1.28167	-3.90000e+01	
			         1.28333	-3.80000e+01	
			         1.28500	-3.50000e+01	
			         1.28667	-3.20000e+01	
			         1.28833	-2.90000e+01	
			         1.29000	-2.40000e+01	
			         1.29167	-2.00000e+01	
			         1.29333	-1.50000e+01	
			         1.29500	-1.10000e+01	
			         1.29667	-8.00000e+00	
			         1.29833	-4.00000e+00	
			         1.30000	-2.00000e+00	
			         1.30167	0.00000e+00	
			         1.30333	1.00000e+00	
			         1.30500	1.00000e+00	
			         1.30667	1.00000e+00	
			         1.30833	-1.00000e+00	
			         1.31000	-3.00000e+00	
			         1.31167	-5.00000e+00	
			         1.31333	-7.00000e+00	
			         1.31500	-1.00000e+01	
			         1.31667	-1.20000e+01	
			         1.31833	-1.40000e+01	
			         1.32000	-1.50000e+01	
			         1.32167	-1.60000e+01	
			         1.32333	-1.60000e+01	
			         1.32500	-1.50000e+01	
			         1.32667	-1.40000e+01	
			         1.32833	-1.20000e+01	
			         1.33000	-9.00000e+00	
			         1.33167	-7.00000e+00	
			         1.33333	-4.00000e+00	
			         1.33500	-1.00000e+00	
			         1.33667	2.00000e+00	
			         1.33833	4.00000e+00	
			         1.34000	6.00000e+00	
			         1.34167	7.00000e+00	
			         1.34333	8.00000e+00	
			         1.34500	9.00000e+00	
			         1.34667	9.00000e+00	
			         1.34833	9.00000e+00	
			         1.35000	8.00000e+00	
			         1.35167	8.00000e+00	
			         1.35333	7.00000e+00	
			         1.35500	7.00000e+00	
			         1.35667	7.00000e+00	
			         1.35833	7.00000e+00	
			         1.36000	7.00000e+00	
			         1.36167	7.00000e+00	
			         1.36333	8.00000e+00	
			         1.36500	8.00000e+00	
			         1.36667	8.00000e+00	
			         1.36833	8.00000e+00	
			         1.37000	7.00000e+00	
			         1.37167	7.00000e+00	
			         1.37333	6.00000e+00	
			         1.37500	5.00000e+00	
			         1.37667	4.00000e+00	
			         1.37833	3.00000e+00	
			         1.38000	2.00000e+00	
			         1.38167	1.00000e+00	
			         1.38333	1.00000e+00	
			         1.38500	1.00000e+00	
			         1.38667	0.00000e+00	
			         1.38833	0.00000e+00	
			         1.39000	1.00000e+00	
			         1.39167	1.00000e+00	
			         1.39333	1.00000e+00	
			         1.39500	0.00000e+00	
			         1.39667	0.00000e+00	
			         1.39833	-1.00000e+00	
			         1.40000	-3.00000e+00	
			         1.40167	-4.00000e+00	
			         1.40333	-6.00000e+00	
			         1.40500	-9.00000e+00	
			         1.40667	-1.10000e+01	
			         1.40833	-1.30000e+01	
			         1.41000	-1.50000e+01	
			         1.41167	-1.60000e+01	
			         1.41333	-1.80000e+01	
			         1.41500	-1.90000e+01	
			         1.41667	-2.00000e+01	
			         1.41833	-2.00000e+01	
			         1.42000	-2.00000e+01	
			         1.42167	-1.90000e+01	
			         1.42333	-1.80000e+01	
			         1.42500	-1.70000e+01	
			         1.42667	-1.50000e+01	
			         1.42833	-1.30000e+01	
			         1.43000	-1.10000e+01	
			         1.43167	-9.00000e+00	
			         1.43333	-6.00000e+00	
			         1.43500	-3.00000e+00	
			         1.43667	-1.00000e+00	
			         1.43833	1.00000e+00	
			         1.44000	3.00000e+00	
			         1.44167	5.00000e+00	
			         1.44333	7.00000e+00	
			         1.44500	8.00000e+00	
			         1.44667	8.00000e+00	
			         1.44833	8.00000e+00	
			         1.45000	8.00000e+00	
			         1.45167	7.00000e+00	
			         1.45333	5.00000e+00	
			         1.45500	3.00000e+00	
			         1.45667	1.00000e+00	
			         1.45833	-1.00000e+00	
			         1.46000	-3.00000e+00	
			         1.46167	-5.00000e+00	
			         1.46333	-7.00000e+00	
			         1.46500	-1.00000e+01	
			         1.46667	-1.20000e+01	
			         1.46833	-1.40000e+01	
			         1.47000	-1.60000e+01	
			         1.47167	-1.70000e+01	
			         1.47333	-1.90000e+01	
			         1.47500	-2.00000e+01	
			         1.47667	-2.10000e+01	
			         1.47833	-2.20000e+01	
			         1.48000	-2.30000e+01	
			         1.48167	-2.30000e+01	
			         1.48333	-2.40000e+01	
			         1.48500	-2.40000e+01	
			         1.48667	-2.40000e+01	
			         1.48833	-2.30000e+01	
			         1.49000	-2.20000e+01	
			         1.49167	-2.10000e+01	
			         1.49333	-1.90000e+01	
			         1.49500	-1.80000e+01	
			         1.49667	-1.60000e+01	
			         1.49833	-1.40000e+01	
			         1.50000	-1.30000e+01	
			         1.50167	-1.20000e+01	
			         1.50333	-1.10000e+01	
			         1.50500	-1.00000e+01	
			         1.50667	-9.00000e+00	
			         1.50833	-8.00000e+00	
			         1.51000	-8.00000e+00	
			         1.51167	-7.00000e+00	
			         1.51333	-6.00000e+00	
			         1.51500	-5.00000e+00	
			         1.51667	-4.00000e+00	
			         1.51833	-2.00000e+00	
			         1.52000	0.00000e+00	
			         1.52167	3.00000e+00	
			         1.52333	6.00000e+00	
			         1.52500	9.00000e+00	
			         1.52667	1.20000e+01	
			         1.52833	1.40000e+01	
			         1.53000	1.50000e+01	
			         1.53167	1.60000e+01	
			         1.53333	1.60000e+01	
			         1.53500	1.60000e+01	
			         1.53667	1.50000e+01	
			         1.53833	1.40000e+01	
			         1.54000	1.20000e+01	
			         1.54167	1.00000e+01	
			         1.54333	9.00000e+00	
			         1.54500	7.00000e+00	
			         1.54667	6.00000e+00	
			         1.54833	5.00000e+00	
			         1.55000	5.00000e+00	
			         1.55167	6.00000e+00	
			         1.55333	8.00000e+00	
			         1.55500	1.10000e+01	
			         1.55667	1.30000e+01	
			         1.55833	1.60000e+01	
			         1.56000	1.80000e+01	
			         1.56167	2.00000e+01	
			         1.56333	2.20000e+01	
			         1.56500	2.30000e+01	
			         1.56667	2.40000e+01	
			         1.56833	2.50000e+01	
			         1.57000	2.40000e+01	
			         1.57167	2.30000e+01	
			         1.57333	2.20000e+01	
			         1.57500	2.00000e+01	
			         1.57667	1.70000e+01	
			         1.57833	1.50000e+01	
			         1.58000	1.20000e+01	
			         1.58167	1.00000e+01	
			         1.58333	8.00000e+00	
			         1.58500	6.00000e+00	
			         1.58667	5.00000e+00	
			         1.58833	3.00000e+00	
			         1.59000	2.00000e+00	
			         1.59167	0.00000e+00	
			         1.59333	-2.00000e+00	
			         1.59500	-4.00000e+00	
			         1.59667	-6.00000e+00	
			         1.59833	-9.00000e+00	
			         1.60000	-1.10000e+01	
			         1.60167	-1.30000e+01	
			         1.60333	-1.40000e+01	
			         1.60500	-1.60000e+01	
			         1.60667	-1.70000e+01	
			         1.60833	-1.80000e+01	
			         1.61000	-1.90000e+01	
			         1.61167	-2.00000e+01	
			         1.61333	-2.00000e+01	
			         1.61500	-2.00000e+01	
			         1.61667	-1.90000e+01	
			         1.61833	-1.80000e+01	
			         1.62000	-1.80000e+01	
			         1.62167	-1.80000e+01	
			         1.62333	-1.80000e+01	
			         1.62500	-1.90000e+01	
			         1.62667	-2.00000e+01	
			         1.62833	-2.10000e+01	
			         1.63000	-2.30000e+01	
			         1.63167	-2.40000e+01	
			         1.63333	-2.60000e+01	
			         1.63500	-2.70000e+01	
			         1.63667	-2.90000e+01	
			         1.63833	-3.00000e+01	
			         1.64000	-3.10000e+01	
			         1.64167	-3.30000e+01	
			         1.64333	-3.40000e+01	
			         1.64500	-3.50000e+01	
			         1.64667	-3.60000e+01	
			         1.64833	-3.60000e+01	
			         1.65000	-3.60000e+01	
			         1.65167	-3.50000e+01	
			         1.65333	-3.50000e+01	
			         1.65500	-3.40000e+01	
			         1.65667	-3.30000e+01	
			         1.65833	-3.10000e+01	
			         1.66000	-2.90000e+01	
			         1.66167	-2.70000e+01	
			         1.66333	-2.30000e+01	
			         1.66500	-1.80000e+01	
			         1.66667	-1.30000e+01	
			         1.66833	-6.00000e+00	
			         1.67000	1.00000e+00	
			         1.67167	9.00000e+00	
			         1.67333	1.80000e+01	
			         1.67500	2.80000e+01	
			         1.67667	3.90000e+01	
			         1.67833	5.10000e+01	
			         1.68000	6.30000e+01	
			         1.68167	7.50000e+01	
			         1.68333	8.70000e+01	
			         1.68500	9.80000e+01	
			         1.68667	1.08000e+02	
			         1.68833	1.17000e+02	
			         1.69000	1.25000e+02	
			         1.69167	1.31000e+02	
			         1.69333	1.36000e+02	
			         1.69500	1.37000e+02	
			         1.69667	1.35000e+02	
			         1.69833	1.26000e+02	
			         1.70000	1.11000e+02	
			         1.70167	8.80000e+01	
			         1.70333	5.80000e+01	
			         1.70500	2.10000e+01	
			         1.70667	-2.30000e+01	
			         1.70833	-7.10000e+01	
			         1.71000	-1.22000e+02	
			         1.71167	-1.74000e+02	
			         1.71333	-2.26000e+02	
			         1.71500	-2.75000e+02	
			         1.71667	-3.19000e+02	
			         1.71833	-3.54000e+02	
			         1.72000	-3.80000e+02	
			         1.72167	-3.94000e+02	
			         1.72333	-3.96000e+02	
			         1.72500	-3.87000e+02	
			         1.72667	-3.68000e+02	
			         1.72833	-3.40000e+02	
			         1.73000	-3.06000e+02	
			         1.73167	-2.68000e+02	
			         1.73333	-2.28000e+02	
			         1.73500	-1.87000e+02	
			         1.73667	-1.47000e+02	
			         1.73833	-1.09000e+02	
			         1.74000	-7.50000e+01	
			         1.74167	-4.40000e+01	
			         1.74333	-1.80000e+01	
			         1.74500	4.00000e+00	
			         1.74667	2.20000e+01	
			         1.74833	3.70000e+01	
			         1.75000	4.80000e+01	
			         1.75167	5.70000e+01	
			         1.75333	6.40000e+01	
			         1.75500	6.80000e+01	
			         1.75667	7.20000e+01	
			         1.75833	7.40000e+01	
			         1.76000	7.40000e+01	
			         1.76167	7.40000e+01	
			         1.76333	7.20000e+01	
			         1.76500	7.00000e+01	
			         1.76667	6.70000e+01	
			         1.76833	6.40000e+01	
			         1.77000	6.10000e+01	
			         1.77167	5.80000e+01	
			         1.77333	5.50000e+01	
			         1.77500	5.30000e+01	
			         1.77667	5.10000e+01	
			         1.77833	5.00000e+01	
			         1.78000	4.90000e+01	
			         1.78167	4.80000e+01	
			         1.78333	4.80000e+01	
			         1.78500	4.90000e+01	
			         1.78667	4.90000e+01	
			         1.78833	4.90000e+01	
			         1.79000	4.90000e+01	
			         1.79167	4.80000e+01	
			         1.79333	4.60000e+01	
			         1.79500	4.30000e+01	
			         1.79667	4.00000e+01	
			         1.79833	3.70000e+01	
			         1.80000	3.40000e+01	
			         1.80167	3.10000e+01	
			         1.80333	2.80000e+01	
			         1.80500	2.50000e+01	
			         1.80667	2.30000e+01	
			         1.80833	2.10000e+01	
			         1.81000	2.00000e+01	
			         1.81167	2.00000e+01	
			         1.81333	2.10000e+01	
			         1.81500	2.20000e+01	
			         1.81667	2.40000e+01	
			         1.81833	2.70000e+01	
			         1.82000	2.90000e+01	
			         1.82167	3.10000e+01	
			         1.82333	3.30000e+01	
			         1.82500	3.50000e+01	
			         1.82667	3.50000e+01	
			         1.82833	3.60000e+01	
			         1.83000	3.50000e+01	
			         1.83167	3.40000e+01	
			         1.83333	3.30000e+01	
			         1.83500	3.20000e+01	
			         1.83667	3.00000e+01	
			         1.83833	2.80000e+01	
			         1.84000	2.60000e+01	
			         1.84167	2.40000e+01	
			         1.84333	2.20000e+01	
			         1.84500	2.00000e+01	
			         1.84667	1.90000e+01	
			         1.84833	1.70000e+01	
			         1.85000	1.70000e+01	
			         1.85167	1.60000e+01	
			         1.85333	1.60000e+01	
			         1.85500	1.70000e+01	
			         1.85667	1.70000e+01	
			         1.85833	1.80000e+01	
			         1.86000	1.80000e+01	
			         1.86167	1.90000e+01	
			         1.86333	2.00000e+01	
			         1.86500	2.00000e+01	
			         1.86667	2.10000e+01	
			         1.86833	2.10000e+01	
			         1.87000	2.10000e+01	
			         1.87167	2.00000e+01	
			         1.87333	1.90000e+01	
			         1.87500	1.80000e+01	
			         1.87667	1.70000e+01	
			         1.87833	1.60000e+01	
			         1.88000	1.60000e+01	
			         1.88167	1.60000e+01	
			         1.88333	1.70000e+01	
			         1.88500	1.80000e+01	
			         1.88667	1.90000e+01	
			         1.88833	2.20000e+01	
			         1.89000	2.40000e+01	
			         1.89167	2.60000e+01	
			         1.89333	2.90000e+01	
			         1.89500	3.10000e+01	
			         1.89667	3.40000e+01	
			         1.89833	3.60000e+01	
			         1.90000	3.90000e+01	
			         1.90167	4.10000e+01	
			         1.90333	4.40000e+01	
			         1.90500	4.60000e+01	
			         1.90667	4.70000e+01	
			         1.90833	4.80000e+01	
			         1.91000	4.90000e+01	
			         1.91167	4.90000e+01	
			         1.91333	4.90000e+01	
			         1.91500	4.90000e+01	
			         1.91667	4.90000e+01	
			         1.91833	4.90000e+01	
			         1.92000	4.80000e+01	
			         1.92167	4.80000e+01	
			         1.92333	4.70000e+01	
			         1.92500	4.70000e+01	
			         1.92667	4.80000e+01	
			         1.92833	4.90000e+01	
			         1.93000	5.10000e+01	
			         1.93167	5.30000e+01	
			         1.93333	5.50000e+01	
			         1.93500	5.70000e+01	
			         1.93667	5.90000e+01	
			         1.93833	6.10000e+01	
			         1.94000	6.30000e+01	
			         1.94167	6.40000e+01	
			         1.94333	6.60000e+01	
			         1.94500	6.70000e+01	
			         1.94667	6.80000e+01	
			         1.94833	6.80000e+01	
			         1.95000	6.90000e+01	
			         1.95167	6.90000e+01	
			         1.95333	7.00000e+01	
			         1.95500	7.20000e+01	
			         1.95667	7.40000e+01	
			         1.95833	7.50000e+01	
			         1.96000	7.70000e+01	
			         1.96167	7.90000e+01	
			         1.96333	8.00000e+01	
			         1.96500	8.10000e+01	
			         1.96667	8.20000e+01	
			         1.96833	8.20000e+01	
			         1.97000	8.20000e+01	
			         1.97167	8.20000e+01	
			         1.97333	8.10000e+01	
			         1.97500	8.00000e+01	
			         1.97667	7.90000e+01	
			         1.97833	7.80000e+01	
			         1.98000	7.60000e+01	
			         1.98167	7.40000e+01	
			         1.98333	7.30000e+01	
			         1.98500	7.10000e+01	
			         1.98667	6.90000e+01	
			         1.98833	6.80000e+01	
			         1.99000	6.70000e+01	
			         1.99167	6.50000e+01	
			         1.99333	6.40000e+01	
			         1.99500	6.30000e+01	
			         1.99667	6.20000e+01	
			         1.99833	6.00000e+01	
			         2.00000	5.90000e+01	
			         2.00167	5.70000e+01	
			         2.00333	5.50000e+01	
			         2.00500	5.30000e+01	
			         2.00667	5.10000e+01	
			         2.00833	4.90000e+01	
			         2.01000	4.60000e+01	
			         2.01167	4.20000e+01	
			         2.01333	3.80000e+01	
			         2.01500	3.30000e+01	
			         2.01667	2.90000e+01	
			         2.01833	2.40000e+01	
			         2.02000	1.90000e+01	
			         2.02167	1.40000e+01	
			         2.02333	8.00000e+00	
			         2.02500	4.00000e+00	
			         2.02667	-1.00000e+00	
			         2.02833	-5.00000e+00	
			         2.03000	-8.00000e+00	
			         2.03167	-1.20000e+01	
			         2.03333	-1.40000e+01	
			         2.03500	-1.70000e+01	
			         2.03667	-1.90000e+01	
			         2.03833	-2.20000e+01	
			         2.04000	-2.40000e+01	
			         2.04167	-2.60000e+01	
			         2.04333	-2.80000e+01	
			         2.04500	-3.10000e+01	
			         2.04667	-3.30000e+01	
			         2.04833	-3.60000e+01	
			         2.05000	-4.00000e+01	
			         2.05167	-4.40000e+01	
			         2.05333	-4.80000e+01	
			         2.05500	-5.20000e+01	
			         2.05667	-5.50000e+01	
			         2.05833	-5.90000e+01	
			         2.06000	-6.20000e+01	
			         2.06167	-6.50000e+01	
			         2.06333	-6.80000e+01	
			         2.06500	-7.00000e+01	
			         2.06667	-7.20000e+01	
			         2.06833	-7.30000e+01	
			         2.07000	-7.30000e+01	
			         2.07167	-7.10000e+01	
			         2.07333	-7.00000e+01	
			         2.07500	-6.70000e+01	
			         2.07667	-6.50000e+01	
			         2.07833	-6.20000e+01	
			         2.08000	-6.00000e+01	
			         2.08167	-5.80000e+01	
			         2.08333	-5.60000e+01	
			         2.08500	-5.50000e+01	
			         2.08667	-5.30000e+01	
			         2.08833	-5.20000e+01	
			         2.09000	-5.20000e+01	
			         2.09167	-5.20000e+01	
			         2.09333	-5.20000e+01	
			         2.09500	-5.30000e+01	
			         2.09667	-5.30000e+01	
			         2.09833	-5.20000e+01	
			         2.10000	-5.10000e+01	
			         2.10167	-5.00000e+01	
			         2.10333	-4.80000e+01	
			         2.10500	-4.60000e+01	
			         2.10667	-4.50000e+01	
			         2.10833	-4.30000e+01	
			         2.11000	-4.20000e+01	
			         2.11167	-4.10000e+01	
			         2.11333	-4.00000e+01	
			         2.11500	-4.00000e+01	
			         2.11667	-3.90000e+01	
			         2.11833	-3.90000e+01	
			         2.12000	-3.90000e+01	
			         2.12167	-4.00000e+01	
			         2.12333	-4.10000e+01	
			         2.12500	-4.20000e+01	
			         2.12667	-4.30000e+01	
			         2.12833	-4.30000e+01	
			         2.13000	-4.30000e+01	
			         2.13167	-4.30000e+01	
			         2.13333	-4.20000e+01	
			         2.13500	-4.20000e+01	
			         2.13667	-4.10000e+01	
			         2.13833	-4.00000e+01	
			         2.14000	-3.90000e+01	
			         2.14167	-3.80000e+01	
			         2.14333	-3.60000e+01	
			         2.14500	-3.40000e+01	
			         2.14667	-3.20000e+01	
			         2.14833	-3.00000e+01	
			         2.15000	-2.80000e+01	
			         2.15167	-2.50000e+01	
			         2.15333	-2.30000e+01	
			         2.15500	-2.10000e+01	
			         2.15667	-1.80000e+01	
			         2.15833	-1.60000e+01	
			         2.16000	-1.40000e+01	
			         2.16167	-1.20000e+01	
			         2.16333	-1.00000e+01	
			         2.16500	-7.00000e+00	
			         2.16667	-5.00000e+00	
			         2.16833	-3.00000e+00	
			         2.17000	-1.00000e+00	
			         2.17167	1.00000e+00	
			         2.17333	2.00000e+00	
			         2.17500	4.00000e+00	
			         2.17667	5.00000e+00	
			         2.17833	5.00000e+00	
			         2.18000	6.00000e+00	
			         2.18167	6.00000e+00	
			         2.18333	5.00000e+00	
			         2.18500	5.00000e+00	
			         2.18667	4.00000e+00	
			         2.18833	3.00000e+00	
			         2.19000	2.00000e+00	
			         2.19167	1.00000e+00	
			         2.19333	1.00000e+00	
			         2.19500	1.00000e+00	
			         2.19667	2.00000e+00	
			         2.19833	4.00000e+00	
			         2.20000	6.00000e+00	
			         2.20167	7.00000e+00	
			         2.20333	9.00000e+00	
			         2.20500	1.10000e+01	
			         2.20667	1.20000e+01	
			         2.20833	1.30000e+01	
			         2.21000	1.30000e+01	
			         2.21167	1.30000e+01	
			         2.21333	1.20000e+01	
			         2.21500	1.10000e+01	
			         2.21667	9.00000e+00	
			         2.21833	7.00000e+00	
			         2.22000	5.00000e+00	
			         2.22167	3.00000e+00	
			         2.22333	1.00000e+00	
			         2.22500	0.00000e+00	
			         2.22667	0.00000e+00	
			         2.22833	0.00000e+00	
			         2.23000	1.00000e+00	
			         2.23167	2.00000e+00	
			         2.23333	4.00000e+00	
			         2.23500	6.00000e+00	
			         2.23667	8.00000e+00	
			         2.23833	1.00000e+01	
			         2.24000	1.10000e+01	
			         2.24167	1.10000e+01	
			         2.24333	1.00000e+01	
			         2.24500	9.00000e+00	
			         2.24667	7.00000e+00	
			         2.24833	4.00000e+00	
			         2.25000	1.00000e+00	
			         2.25167	-2.00000e+00	
			         2.25333	-5.00000e+00	
			         2.25500	-8.00000e+00	
			         2.25667	-1.10000e+01	
			         2.25833	-1.30000e+01	
			         2.26000	-1.50000e+01	
			         2.26167	-1.60000e+01	
			         2.26333	-1.60000e+01	
			         2.26500	-1.50000e+01	
			         2.26667	-1.40000e+01	
			         2.26833	-1.30000e+01	
			         2.27000	-1.20000e+01	
			         2.27167	-1.10000e+01	
			         2.27333	-1.10000e+01	
			         2.27500	-1.00000e+01	
			         2.27667	-1.10000e+01	
			         2.27833	-1.10000e+01	
			         2.28000	-1.20000e+01	
			         2.28167	-1.40000e+01	
			         2.28333	-1.50000e+01	
			         2.28500	-1.70000e+01	
			         2.28667	-1.80000e+01	
			         2.28833	-1.90000e+01	
			         2.29000	-1.90000e+01	
			         2.29167	-2.00000e+01	
			         2.29333	-2.00000e+01	
			         2.29500	-2.00000e+01	
			         2.29667	-1.90000e+01	
			         2.29833	-1.90000e+01	
			         2.30000	-1.80000e+01	
			         2.30167	-1.60000e+01	
			         2.30333	-1.50000e+01	
			         2.30500	-1.40000e+01	
			         2.30667	-1.20000e+01	
			         2.30833	-1.10000e+01	
			         2.31000	-9.00000e+00	
			         2.31167	-8.00000e+00	
			         2.31333	-8.00000e+00	
			         2.31500	-8.00000e+00	
			         2.31667	-8.00000e+00	
			         2.31833	-9.00000e+00	
			         2.32000	-1.00000e+01	
			         2.32167	-1.00000e+01	
			         2.32333	-1.10000e+01	
			         2.32500	-1.10000e+01	
			         2.32667	-1.00000e+01	
			         2.32833	-1.00000e+01	
			         2.33000	-9.00000e+00	
			         2.33167	-8.00000e+00	
			         2.33333	-6.00000e+00	
			         2.33500	-4.00000e+00	
			         2.33667	-2.00000e+00	
			         2.33833	0.00000e+00	
			         2.34000	3.00000e+00	
			         2.34167	4.00000e+00	
			         2.34333	5.00000e+00	
			         2.34500	5.00000e+00	
			         2.34667	4.00000e+00	
			         2.34833	2.00000e+00	
			         2.35000	0.00000e+00	
			         2.35167	-4.00000e+00	
			         2.35333	-7.00000e+00	
			         2.35500	-1.10000e+01	
			         2.35667	-1.40000e+01	
			         2.35833	-1.80000e+01	
			         2.36000	-2.00000e+01	
			         2.36167	-2.20000e+01	
			         2.36333	-2.30000e+01	
			         2.36500	-2.30000e+01	
			         2.36667	-2.20000e+01	
			         2.36833	-2.10000e+01	
			         2.37000	-1.80000e+01	
			         2.37167	-1.40000e+01	
			         2.37333	-1.00000e+01	
			         2.37500	-6.00000e+00	
			         2.37667	-2.00000e+00	
			         2.37833	3.00000e+00	
			         2.38000	6.00000e+00	
			         2.38167	1.00000e+01	
			         2.38333	1.30000e+01	
			         2.38500	1.50000e+01	
			         2.38667	1.70000e+01	
			         2.38833	1.90000e+01	
			         2.39000	2.10000e+01	
			         2.39167	2.20000e+01	
			         2.39333	2.20000e+01	
			         2.39500	2.30000e+01	
			         2.39667	2.30000e+01	
			         2.39833	2.40000e+01	
			         2.40000	2.50000e+01	
			         2.40167	2.60000e+01	
			         2.40333	2.70000e+01	
			         2.40500	2.80000e+01	
			         2.40667	2.90000e+01	
			         2.40833	2.90000e+01	
			         2.41000	3.00000e+01	
			         2.41167	3.00000e+01	
			         2.41333	3.00000e+01	
			         2.41500	2.90000e+01	
			         2.41667	2.80000e+01	
			         2.41833	2.70000e+01	
			         2.42000	2.50000e+01	
			         2.42167	2.30000e+01	
			         2.42333	2.10000e+01	
			         2.42500	1.90000e+01	
			         2.42667	1.60000e+01	
			         2.42833	1.40000e+01	
			         2.43000	1.10000e+01	
			         2.43167	9.00000e+00	
			         2.43333	7.00000e+00	
			         2.43500	5.00000e+00	
			         2.43667	3.00000e+00	
			         2.43833	1.00000e+00	
			         2.44000	0.00000e+00	
			         2.44167	-1.00000e+00	
			         2.44333	-2.00000e+00	
			         2.44500	-2.00000e+00	
			         2.44667	-2.00000e+00	
			         2.44833	-1.00000e+00	
			         2.45000	0.00000e+00	
			         2.45167	1.00000e+00	
			         2.45333	1.00000e+00	
			         2.45500	1.00000e+00	
			         2.45667	1.00000e+00	
			         2.45833	1.00000e+00	
			         2.46000	0.00000e+00	
			         2.46167	-2.00000e+00	
			         2.46333	-5.00000e+00	
			         2.46500	-9.00000e+00	
			         2.46667	-1.30000e+01	
			         2.46833	-1.80000e+01	
			         2.47000	-2.20000e+01	
			         2.47167	-2.60000e+01	
			         2.47333	-2.90000e+01	
			         2.47500	-3.10000e+01	
			         2.47667	-3.20000e+01	
			         2.47833	-3.20000e+01	
			         2.48000	-3.20000e+01	
			         2.48167	-3.10000e+01	
			         2.48333	-3.00000e+01	
			         2.48500	-2.90000e+01	
			         2.48667	-2.70000e+01	
			         2.48833	-2.60000e+01	
			         2.49000	-2.50000e+01	
			         2.49167	-2.50000e+01	
			         2.49333	-2.50000e+01	
			         2.49500	-2.60000e+01	
			         2.49667	-2.80000e+01	
			         2.49833	-3.00000e+01	
			         2.50000	-3.10000e+01	
			         2.50167	-3.30000e+01	
			         2.50333	-3.30000e+01	
			         2.50500	-3.20000e+01	
			         2.50667	-3.10000e+01	
			         2.50833	-2.80000e+01	
			         2.51000	-2.30000e+01	
			         2.51167	-1.70000e+01	
			         2.51333	-1.00000e+01	
			         2.51500	-2.00000e+00	
			         2.51667	7.00000e+00	
			         2.51833	1.80000e+01	
			         2.52000	2.90000e+01	
			         2.52167	4.10000e+01	
			         2.52333	5.40000e+01	
			         2.52500	6.70000e+01	
			         2.52667	7.90000e+01	
			         2.52833	9.10000e+01	
			         2.53000	1.03000e+02	
			         2.53167	1.13000e+02	
			         2.53333	1.21000e+02	
			         2.53500	1.29000e+02	
			         2.53667	1.35000e+02	
			         2.53833	1.38000e+02	
			         2.54000	1.39000e+02	
			         2.54167	1.37000e+02	
			         2.54333	1.28000e+02	
			         2.54500	1.14000e+02	
			         2.54667	9.20000e+01	
			         2.54833	6.30000e+01	
			         2.55000	2.70000e+01	
			         2.55167	-1.50000e+01	
			         2.55333	-6.20000e+01	
			         2.55500	-1.13000e+02	
			         2.55667	-1.65000e+02	
			         2.55833	-2.16000e+02	
			         2.56000	-2.66000e+02	
			         2.56167	-3.11000e+02	
			         2.56333	-3.50000e+02	
			         2.56500	-3.79000e+02	
			         2.56667	-3.98000e+02	
			         2.56833	-4.06000e+02	
			         2.57000	-4.03000e+02	
			         2.57167	-3.89000e+02	
			         2.57333	-3.65000e+02	
			         2.57500	-3.35000e+02	
			         2.57667	-2.98000e+02	
			         2.57833	-2.58000e+02	
			         2.58000	-2.16000e+02	
			         2.58167	-1.73000e+02	
			         2.58333	-1.33000e+02	
			         2.58500	-9.50000e+01	
			         2.58667	-6.00000e+01	
			         2.58833	-3.00000e+01	
			         2.59000	-4.00000e+00	
			         2.59167	1.80000e+01	
			         2.59333	3.50000e+01	
			         2.59500	4.80000e+01	
			         2.59667	5.80000e+01	
			         2.59833	6.50000e+01	
			         2.60000	6.90000e+01	
			         2.60167	7.10000e+01	
			         2.60333	7.20000e+01	
			         2.60500	7.20000e+01	
			         2.60667	7.20000e+01	
			         2.60833	7.20000e+01	
			         2.61000	7.10000e+01	
			         2.61167	7.10000e+01	
			         2.61333	7.00000e+01	
			         2.61500	6.90000e+01	
			         2.61667	6.80000e+01	
			         2.61833	6.70000e+01	
			         2.62000	6.60000e+01	
			         2.62167	6.50000e+01	
			         2.62333	6.40000e+01	
			         2.62500	6.20000e+01	
			         2.62667	6.10000e+01	
			         2.62833	5.90000e+01	
			         2.63000	5.70000e+01	
			         2.63167	5.50000e+01	
			         2.63333	5.40000e+01	
			         2.63500	5.30000e+01	
			         2.63667	5.20000e+01	
			         2.63833	5.10000e+01	
			         2.64000	5.00000e+01	
			         2.64167	4.90000e+01	
			         2.64333	4.90000e+01	
			         2.64500	4.90000e+01	
