Velocity (TVI), in cm/s

Time (s) :	Trace 1 : 		Ecg : 		
0.01248   	-3.21385e+00		         0.00000	1.87000e+02	
0.01941   	-2.74961e+00		         0.00167	2.28000e+02	
0.02634   	-2.41115e+00		         0.00333	2.71000e+02	
0.03327   	-1.75281e+00		         0.00500	3.14000e+02	
0.04020   	-1.75591e+00		         0.00667	3.58000e+02	
0.04713   	-1.84725e+00		         0.00833	3.99000e+02	
0.05406   	-3.00347e+00		         0.01000	4.36000e+02	
0.06099   	-3.61467e+00		         0.01167	4.67000e+02	
0.06792   	-3.79251e+00		         0.01333	4.90000e+02	
0.07485   	-3.62049e+00		         0.01500	5.04000e+02	
0.08178   	-3.49972e+00		         0.01667	5.07000e+02	
0.08871   	-2.41062e+00		         0.01833	4.99000e+02	
0.09603   	-1.71032e+00		         0.02000	4.79000e+02	
0.10257   	-9.50065e-01		         0.02167	4.48000e+02	
0.10950   	2.39179e-01		         0.02333	4.07000e+02	
0.11644   	1.50341e+00		         0.02500	3.57000e+02	
0.12336   	2.69296e+00		         0.02667	3.01000e+02	
0.13030   	3.78816e+00		         0.02833	2.39000e+02	
0.13723   	4.21229e+00		         0.03000	1.75000e+02	
0.14416   	4.39473e+00		         0.03167	1.09000e+02	
0.15109   	4.51566e+00		         0.03333	4.60000e+01	
0.15834   	4.51647e+00		         0.03500	-1.30000e+01	
0.16495   	4.30822e+00		         0.03667	-6.60000e+01	
0.17188   	4.42711e+00		         0.03833	-1.12000e+02	
0.17881   	4.33673e+00		         0.04000	-1.50000e+02	
0.18574   	4.30512e+00		         0.04167	-1.80000e+02	
0.19267   	4.49453e+00		         0.04333	-2.01000e+02	
0.19960   	4.67548e+00		         0.04500	-2.16000e+02	
0.20653   	4.74890e+00		         0.04667	-2.24000e+02	
0.21347   	4.79586e+00		         0.04833	-2.27000e+02	
0.22039   	4.72647e+00		         0.05000	-2.25000e+02	
0.22732   	4.61408e+00		         0.05167	-2.19000e+02	
0.23425   	4.54927e+00		         0.05333	-2.11000e+02	
0.24133   	4.41392e+00		         0.05500	-2.01000e+02	
0.24812   	4.33002e+00		         0.05667	-1.90000e+02	
0.25505   	4.27710e+00		         0.05833	-1.78000e+02	
0.26197   	4.13786e+00		         0.06000	-1.67000e+02	
0.26891   	4.00934e+00		         0.06167	-1.57000e+02	
0.27584   	3.84985e+00		         0.06333	-1.47000e+02	
0.28277   	3.70791e+00		         0.06500	-1.38000e+02	
0.28970   	3.58623e+00		         0.06667	-1.31000e+02	
0.29663   	3.40040e+00		         0.06833	-1.24000e+02	
0.30356   	3.25333e+00		         0.07000	-1.18000e+02	
0.31049   	3.15705e+00		         0.07167	-1.13000e+02	
0.31742   	3.08079e+00		         0.07333	-1.09000e+02	
0.32435   	2.88015e+00		         0.07500	-1.06000e+02	
0.33128   	2.78590e+00		         0.07667	-1.03000e+02	
0.33821   	2.70175e+00		         0.07833	-1.01000e+02	
0.34514   	2.57491e+00		         0.08000	-9.90000e+01	
0.35207   	2.45908e+00		         0.08167	-9.70000e+01	
0.35900   	2.36507e+00		         0.08333	-9.60000e+01	
0.36594   	2.26612e+00		         0.08500	-9.40000e+01	
0.37286   	2.12958e+00		         0.08667	-9.30000e+01	
0.37980   	1.98002e+00		         0.08833	-9.20000e+01	
0.38673   	1.73319e+00		         0.09000	-9.10000e+01	
0.39366   	1.55905e+00		         0.09167	-9.00000e+01	
0.40059   	1.30590e+00		         0.09333	-8.90000e+01	
0.40751   	9.64473e-01		         0.09500	-8.80000e+01	
0.41444   	5.39654e-01		         0.09667	-8.60000e+01	
0.42138   	9.96254e-02		         0.09833	-8.50000e+01	
0.42831   	-5.61778e-01		         0.10000	-8.40000e+01	
0.43524   	-1.22226e+00		         0.10167	-8.20000e+01	
0.44217   	-1.47820e+00		         0.10333	-8.10000e+01	
0.44910   	-1.30777e+00		         0.10500	-7.90000e+01	
0.45603   	-7.91875e-01		         0.10667	-7.70000e+01	
0.46296   	-1.05350e-01		         0.10833	-7.60000e+01	
0.46989   	8.63947e-01		         0.11000	-7.40000e+01	
0.47682   	1.60116e+00		         0.11167	-7.20000e+01	
0.48375   	2.21328e+00		         0.11333	-7.10000e+01	
0.49068   	2.59153e+00		         0.11500	-6.90000e+01	
0.49761   	2.97317e+00		         0.11667	-6.70000e+01	
0.50454   	3.52586e+00		         0.11833	-6.60000e+01	
0.51148   	3.85052e+00		         0.12000	-6.50000e+01	
0.51841   	3.26421e+00		         0.12167	-6.30000e+01	
0.52533   	3.03428e+00		         0.12333	-6.20000e+01	
0.53227   	2.77661e+00		         0.12500	-6.20000e+01	
0.53920   	1.98629e+00		         0.12667	-6.10000e+01	
0.54613   	1.06743e+00		         0.12833	-6.10000e+01	
0.55306   	7.16464e-01		         0.13000	-6.00000e+01	
0.55999   	-1.94799e-01		         0.13167	-6.00000e+01	
0.56692   	-1.22935e+00		         0.13333	-6.00000e+01	
0.57385   	-1.95678e+00		         0.13500	-5.90000e+01	
0.58078   	-2.61569e+00		         0.13667	-5.90000e+01	
0.58771   	-3.06756e+00		         0.13833	-5.80000e+01	
0.59464   	-3.29505e+00		         0.14000	-5.70000e+01	
0.60157   	-3.36289e+00		         0.14167	-5.60000e+01	
0.60850   	-3.43097e+00		         0.14333	-5.40000e+01	
0.61543   	-3.17331e+00		         0.14500	-5.20000e+01	
0.62236   	-3.01710e+00		         0.14667	-5.00000e+01	
0.62929   	-2.92857e+00		         0.14833	-4.80000e+01	
0.63622   	-2.82345e+00		         0.15000	-4.60000e+01	
0.64315   	-2.76059e+00		         0.15167	-4.40000e+01	
0.65009   	-2.68597e+00		         0.15333	-4.20000e+01	
0.65701   	-2.49447e+00		         0.15500	-4.00000e+01	
0.66395   	-2.14709e+00		         0.15667	-3.80000e+01	
0.67088   	-1.73921e+00		         0.15833	-3.70000e+01	
0.67781   	-1.43650e+00		         0.16000	-3.60000e+01	
0.68474   	-1.18943e+00		         0.16167	-3.50000e+01	
0.69167   	-9.34044e-01		         0.16333	-3.50000e+01	
0.69860   	-7.55486e-01		         0.16500	-3.50000e+01	
0.70553   	-6.09222e-01		         0.16667	-3.50000e+01	
0.71246   	-4.65451e-01		         0.16833	-3.50000e+01	
0.71939   	-4.22190e-01		         0.17000	-3.60000e+01	
0.72632   	-4.24571e-01		         0.17167	-3.60000e+01	
0.73325   	-4.57983e-01		         0.17333	-3.60000e+01	
0.74018   	-5.01823e-01		         0.17500	-3.70000e+01	
0.74711   	-5.63599e-01		         0.17667	-3.70000e+01	
0.75404   	-5.69239e-01		         0.17833	-3.70000e+01	
0.76098   	-5.58812e-01		         0.18000	-3.70000e+01	
0.76790   	-5.55746e-01		         0.18167	-3.70000e+01	
0.77483   	-5.34639e-01		         0.18333	-3.70000e+01	
0.78177   	-5.08830e-01		         0.18500	-3.70000e+01	
0.78869   	-4.77008e-01		         0.18667	-3.60000e+01	
0.79563   	-4.66818e-01		         0.18833	-3.60000e+01	
0.80256   	-4.40166e-01		         0.19000	-3.60000e+01	
0.80949   	-4.19314e-01		         0.19167	-3.50000e+01	
0.81642   	-3.84099e-01		         0.19333	-3.50000e+01	
0.82335   	-3.59946e-01		         0.19500	-3.40000e+01	
0.83028   	-3.15972e-01		         0.19667	-3.40000e+01	
0.83721   	-2.94574e-01		         0.19833	-3.40000e+01	
0.84414   	-2.90935e-01		         0.20000	-3.40000e+01	
0.85107   	-2.98612e-01		         0.20167	-3.40000e+01	
0.85800   	-3.08018e-01		         0.20333	-3.30000e+01	
0.86493   	-3.22935e-01		         0.20500	-3.30000e+01	
0.87193   	-3.28397e-01		         0.20667	-3.30000e+01	
0.87879   	-3.22769e-01		         0.20833	-3.20000e+01	
0.88572   	-2.93361e-01		         0.21000	-3.10000e+01	
0.89265   	-2.76435e-01		         0.21167	-3.10000e+01	
0.89958   	-2.95066e-01		         0.21333	-3.00000e+01	
0.90651   	-2.89413e-01		         0.21500	-2.90000e+01	
0.91344   	-2.90837e-01		         0.21667	-2.80000e+01	
0.92037   	-3.01206e-01		         0.21833	-2.70000e+01	
0.92731   	-3.15907e-01		         0.22000	-2.60000e+01	
0.93424   	-2.87970e-01		         0.22167	-2.40000e+01	
0.94117   	-3.10935e-01		         0.22333	-2.30000e+01	
0.94810   	-3.03610e-01		         0.22500	-2.20000e+01	
0.95522   	-3.47493e-01		         0.22667	-2.20000e+01	
0.96196   	-3.60336e-01		         0.22833	-2.10000e+01	
0.96889   	-4.04297e-01		         0.23000	-2.00000e+01	
0.97582   	-3.09515e-01		         0.23167	-2.00000e+01	
0.98275   	-1.62835e-01		         0.23333	-2.00000e+01	
0.98968   	7.11774e-02		         0.23500	-1.90000e+01	
0.99661   	5.86685e-02		         0.23667	-1.90000e+01	
1.00354   	-2.48460e-02		         0.23833	-2.00000e+01	
1.01048   	-8.02231e-01		         0.24000	-2.00000e+01	
1.01740   	-1.87239e+00		         0.24167	-2.00000e+01	
1.02433   	-3.32814e+00		         0.24333	-2.00000e+01	
1.03127   	-4.41587e+00		         0.24500	-2.10000e+01	
1.03819   	-5.65151e+00		         0.24667	-2.10000e+01	
1.04512   	-6.53349e+00		         0.24833	-2.10000e+01	
1.05205   	-7.09061e+00		         0.25000	-2.10000e+01	
1.05899   	-7.54777e+00		         0.25167	-2.10000e+01	
1.06592   	-7.51208e+00		         0.25333	-2.10000e+01	
1.07284   	-7.32531e+00		         0.25500	-2.00000e+01	
1.07978   	-6.65629e+00		         0.25667	-2.00000e+01	
1.08671   	-6.02395e+00		         0.25833	-2.00000e+01	
1.09364   	-4.92483e+00		         0.26000	-1.90000e+01	
1.10057   	-4.95229e+00		         0.26167	-1.90000e+01	
1.10750   	-5.95677e+00		         0.26333	-1.90000e+01	
1.11443   	-7.09988e+00		         0.26500	-1.80000e+01	
1.12136   	-7.15151e+00		         0.26667	-1.80000e+01	
1.12829   	-7.20012e+00		         0.26833	-1.70000e+01	
1.13522   	-6.74099e+00		         0.27000	-1.60000e+01	
1.14216   	-5.11809e+00		         0.27167	-1.50000e+01	
1.14908   	-3.23240e+00		         0.27333	-1.40000e+01	
1.15601   	-3.17187e+00		         0.27500	-1.30000e+01	
1.16294   	-3.15707e+00		         0.27667	-1.20000e+01	
1.16987   	-3.30409e+00		         0.27833	-1.00000e+01	
1.17681   	-3.49643e+00		         0.28000	-8.00000e+00	
1.18373   	-3.89473e+00		         0.28167	-7.00000e+00	
1.19066   	-3.56568e+00		         0.28333	-5.00000e+00	
1.19759   	-3.19401e+00		         0.28500	-3.00000e+00	
1.20452   	-2.83590e+00		         0.28667	-1.00000e+00	
1.21146   	-2.51038e+00		         0.28833	1.00000e+00	
1.21839   	-2.24699e+00		         0.29000	4.00000e+00	
1.22532   	-1.60215e+00		         0.29167	5.00000e+00	
1.23225   	-9.38134e-01		         0.29333	7.00000e+00	
1.23918   	1.27574e-02		         0.29500	9.00000e+00	
1.24611   	9.34025e-01		         0.29667	1.00000e+01	
1.25304   	1.88554e+00		         0.29833	1.10000e+01	
1.25997   	2.58127e+00		         0.30000	1.20000e+01	
1.26690   	2.84498e+00		         0.30167	1.30000e+01	
1.27383   	2.88390e+00		         0.30333	1.30000e+01	
1.28076   	3.20046e+00		         0.30500	1.40000e+01	
1.28769   	3.37763e+00		         0.30667	1.40000e+01	
1.29462   	3.36238e+00		         0.30833	1.50000e+01	
1.30155   	3.42327e+00		         0.31000	1.50000e+01	
1.30849   	3.67427e+00		         0.31167	1.50000e+01	
1.31542   	3.45406e+00		         0.31333	1.50000e+01	
1.32234   	3.35514e+00		         0.31500	1.60000e+01	
1.32927   	3.31892e+00		         0.31667	1.60000e+01	
1.33621   	3.40353e+00		         0.31833	1.70000e+01	
1.34314   	3.39193e+00		         0.32000	1.80000e+01	
1.35007   	3.53702e+00		         0.32167	1.90000e+01	
1.35700   	3.55333e+00		         0.32333	2.10000e+01	
1.36393   	3.55356e+00		         0.32500	2.30000e+01	
1.37086   	3.46572e+00		         0.32667	2.40000e+01	
1.37779   	3.37410e+00		         0.32833	2.60000e+01	
1.38472   	3.41031e+00		         0.33000	2.80000e+01	
1.39165   	3.27103e+00		         0.33167	3.00000e+01	
1.39858   	3.17486e+00		         0.33333	3.20000e+01	
1.40551   	3.13613e+00		         0.33500	3.40000e+01	
1.41244   	3.12301e+00		         0.33667	3.60000e+01	
1.41969   	2.90158e+00		         0.33833	3.80000e+01	
1.42630   	2.87135e+00		         0.34000	3.90000e+01	
1.43323   	2.80670e+00		         0.34167	4.00000e+01	
1.44016   	2.66595e+00		         0.34333	4.10000e+01	
1.44710   	2.56087e+00		         0.34500	4.20000e+01	
1.45402   	2.57219e+00		         0.34667	4.20000e+01	
1.46095   	2.50596e+00		         0.34833	4.30000e+01	
1.46788   	2.39152e+00		         0.35000	4.30000e+01	
1.47482   	2.28733e+00		         0.35167	4.30000e+01	
1.48175   	2.15394e+00		         0.35333	4.40000e+01	
1.48868   	2.01196e+00		         0.35500	4.40000e+01	
1.49561   	1.88299e+00		         0.35667	4.30000e+01	
1.50270   	1.74711e+00		         0.35833	4.30000e+01	
1.50947   	1.69534e+00		         0.36000	4.30000e+01	
1.51640   	1.45588e+00		         0.36167	4.20000e+01	
1.52333   	1.25185e+00		         0.36333	4.10000e+01	
1.53026   	1.03364e+00		         0.36500	4.00000e+01	
1.53719   	8.08321e-01		         0.36667	3.90000e+01	
1.54412   	5.32884e-01		         0.36833	3.80000e+01	
1.55105   	1.56362e-01		         0.37000	3.60000e+01	
1.55798   	-2.12400e-01		         0.37167	3.50000e+01	
1.56491   	6.30205e-01		         0.37333	3.30000e+01	
1.57184   	1.02086e+00		         0.37500	3.20000e+01	
1.57877   	1.68892e+00		         0.37667	3.10000e+01	
1.58572   	2.39501e+00		         0.37833	3.00000e+01	
1.59264   	3.07124e+00		         0.38000	2.90000e+01	
1.59956   	2.70698e+00		         0.38167	2.80000e+01	
1.60650   	2.81726e+00		         0.38333	2.70000e+01	
1.61343   	2.74693e+00		         0.38500	2.60000e+01	
1.62036   	2.93107e+00		         0.38667	2.50000e+01	
1.62729   	3.09838e+00		         0.38833	2.40000e+01	
1.63422   	3.08052e+00		         0.39000	2.30000e+01	
1.64115   	2.96582e+00		         0.39167	2.20000e+01	
1.64808   	2.64047e+00		         0.39333	2.00000e+01	
1.65501   	2.44817e+00		         0.39500	1.90000e+01	
1.66194   	1.94783e+00		         0.39667	1.70000e+01	
1.66887   	1.34912e+00		         0.39833	1.60000e+01	
1.67580   	6.09124e-01		         0.40000	1.40000e+01	
1.68273   	-2.54000e-01		         0.40167	1.20000e+01	
1.68966   	-1.29371e+00		         0.40333	1.00000e+01	
1.69659   	-2.12815e+00		         0.40500	9.00000e+00	
1.70352   	-2.89519e+00		         0.40667	7.00000e+00	
1.71045   	-3.37451e+00		         0.40833	6.00000e+00	
1.71738   	-3.56129e+00		         0.41000	4.00000e+00	
1.72432   	-3.84979e+00		         0.41167	3.00000e+00	
1.73125   	-3.83191e+00		         0.41333	2.00000e+00	
1.73817   	-3.83311e+00		         0.41500	0.00000e+00	
1.74511   	-3.59795e+00		         0.41667	-1.00000e+00	
1.75204   	-3.53034e+00		         0.41833	-2.00000e+00	
1.75897   	-3.25133e+00		         0.42000	-3.00000e+00	
1.76590   	-3.17888e+00		         0.42167	-4.00000e+00	
1.77283   	-2.85947e+00		         0.42333	-4.00000e+00	
1.77976   	-2.92583e+00		         0.42500	-5.00000e+00	
1.78669   	-2.70125e+00		         0.42667	-6.00000e+00	
1.79362   	-2.81006e+00		         0.42833	-6.00000e+00	
1.80055   	-2.82306e+00		         0.43000	-7.00000e+00	
1.80748   	-2.73480e+00		         0.43167	-7.00000e+00	
1.81441   	-2.56842e+00		         0.43333	-7.00000e+00	
1.82134   	-2.38600e+00		         0.43500	-7.00000e+00	
1.82827   	-2.02848e+00		         0.43667	-7.00000e+00	
1.83520   	-1.67165e+00		         0.43833	-6.00000e+00	
1.84213   	-1.62531e+00		         0.44000	-6.00000e+00	
1.84906   	-1.52373e+00		         0.44167	-6.00000e+00	
1.85600   	-1.49965e+00		         0.44333	-5.00000e+00	
1.86293   	-1.39559e+00		         0.44500	-5.00000e+00	
1.86985   	-1.36337e+00		         0.44667	-4.00000e+00	
1.87679   	-1.19225e+00		         0.44833	-4.00000e+00	
1.88371   	-9.82701e-01		         0.45000	-4.00000e+00	
1.89065   	-8.26314e-01		         0.45167	-4.00000e+00	
1.89758   	-7.32381e-01		         0.45333	-4.00000e+00	
1.90451   	-6.37622e-01		         0.45500	-4.00000e+00	
1.91144   	-6.14957e-01		         0.45667	-4.00000e+00	
1.91837   	-7.48116e-01		         0.45833	-5.00000e+00	
1.92530   	-9.86017e-01		         0.46000	-5.00000e+00	
1.93223   	-1.28035e+00		         0.46167	-5.00000e+00	
1.93916   	-1.46534e+00		         0.46333	-5.00000e+00	
1.94609   	-1.57225e+00		         0.46500	-5.00000e+00	
1.95302   	-1.50209e+00		         0.46667	-5.00000e+00	
1.95995   	-1.26209e+00		         0.46833	-5.00000e+00	
1.96688   	-8.88789e-01		         0.47000	-5.00000e+00	
1.97381   	-5.98525e-01		         0.47167	-4.00000e+00	
1.98074   	-3.72847e-01		         0.47333	-4.00000e+00	
1.98767   	-2.52014e-01		         0.47500	-4.00000e+00	
1.99460   	-2.14479e-01		         0.47667	-4.00000e+00	
2.00153   	-1.98749e-01		         0.47833	-3.00000e+00	
2.00847   	-2.01590e-01		         0.48000	-3.00000e+00	
2.01539   	-1.76109e-01		         0.48167	-3.00000e+00	
2.02233   	-1.43789e-01		         0.48333	-3.00000e+00	
2.02926   	-1.13155e-01		         0.48500	-3.00000e+00	
2.03619   	-9.71404e-02		         0.48667	-3.00000e+00	
2.04312   	-9.38529e-02		         0.48833	-3.00000e+00	
2.05005   	-1.26182e-01		         0.49000	-3.00000e+00	
2.05698   	-1.60646e-01		         0.49167	-3.00000e+00	
2.06391   	-1.94012e-01		         0.49333	-3.00000e+00	
2.07084   	-1.99245e-01		         0.49500	-4.00000e+00	
2.07777   	-2.05685e-01		         0.49667	-4.00000e+00	
2.08470   	-1.74596e-01		         0.49833	-4.00000e+00	
2.09163   	-1.41760e-01		         0.50000	-4.00000e+00	
2.09856   	-2.47234e-02		         0.50167	-4.00000e+00	
2.10549   	8.41124e-02		         0.50333	-5.00000e+00	
2.11242   	5.33177e-01		         0.50500	-5.00000e+00	
2.11935   	8.56018e-01		         0.50667	-5.00000e+00	
2.12628   	9.85241e-01		         0.50833	-6.00000e+00	
2.13321   	-8.11214e-01		         0.51000	-6.00000e+00	
2.14015   	-1.97292e+00		         0.51167	-6.00000e+00	
2.14707   	-3.69705e+00		         0.51333	-6.00000e+00	
2.15401   	-5.49436e+00		         0.51500	-7.00000e+00	
2.16094   	-6.77910e+00		         0.51667	-7.00000e+00	
2.16787   	-6.71098e+00		         0.51833	-7.00000e+00	
2.17480   	-7.28519e+00		         0.52000	-7.00000e+00	
2.18173   	-7.38215e+00		         0.52167	-7.00000e+00	
2.18866   	-7.29791e+00		         0.52333	-7.00000e+00	
2.19559   	-7.31820e+00		         0.52500	-7.00000e+00	
2.20252   	-6.82327e+00		         0.52667	-7.00000e+00	
2.20945   	-6.34108e+00		         0.52833	-7.00000e+00	
2.21638   	-5.95667e+00		         0.53000	-7.00000e+00	
2.22331   	-5.43937e+00		         0.53167	-7.00000e+00	
2.23024   	-5.04922e+00		         0.53333	-6.00000e+00	
2.23717   	-4.53912e+00		         0.53500	-6.00000e+00	
2.24410   	-4.00084e+00		         0.53667	-5.00000e+00	
2.25103   	-3.80278e+00		         0.53833	-5.00000e+00	
2.25796   	-3.38897e+00		         0.54000	-4.00000e+00	
2.26489   	-3.00279e+00		         0.54167	-4.00000e+00	
2.27183   	-2.62559e+00		         0.54333	-3.00000e+00	
2.27876   	-2.26958e+00		         0.54500	-3.00000e+00	
2.28568   	-1.77998e+00		         0.54667	-2.00000e+00	
2.29262   	-2.12032e+00		         0.54833	-2.00000e+00	
2.29955   	-2.58151e+00		         0.55000	-2.00000e+00	
2.30648   	-2.86661e+00		         0.55167	-2.00000e+00	
2.31341   	-3.04761e+00		         0.55333	-1.00000e+00	
2.32034   	-2.99029e+00		         0.55500	-1.00000e+00	
2.32727   	-2.42786e+00		         0.55667	-1.00000e+00	
2.33420   	-2.10135e+00		         0.55833	-1.00000e+00	
2.34113   	-1.67912e+00		         0.56000	-1.00000e+00	
2.34806   	-8.32828e-01		         0.56167	-1.00000e+00	
2.35499   	4.23413e-02		         0.56333	-1.00000e+00	
2.36192   	1.01395e+00		         0.56500	-2.00000e+00	
2.36885   	2.26092e+00		         0.56667	-2.00000e+00	
2.37578   	3.18460e+00		         0.56833	-2.00000e+00	
2.38292   	3.56618e+00		         0.57000	-2.00000e+00	
2.38964   	3.76504e+00		         0.57167	-2.00000e+00	
2.39657   	3.88813e+00		         0.57333	-3.00000e+00	
2.40351   	3.98834e+00		         0.57500	-3.00000e+00	
2.41044   	3.97923e+00		         0.57667	-4.00000e+00	
2.41737   	4.05465e+00		         0.57833	-4.00000e+00	
2.42430   	4.05893e+00		         0.58000	-5.00000e+00	
2.43122   	3.94930e+00		         0.58167	-6.00000e+00	
2.43816   	4.00825e+00		         0.58333	-6.00000e+00	
2.44509   	4.06426e+00		         0.58500	-7.00000e+00	
2.45202   	4.06634e+00		         0.58667	-7.00000e+00	
2.45895   	4.09964e+00		         0.58833	-8.00000e+00	
2.46591   	4.17372e+00		         0.59000	-8.00000e+00	
2.47281   	4.24915e+00		         0.59167	-9.00000e+00	
2.47974   	4.17591e+00		         0.59333	-9.00000e+00	
2.48667   	4.16708e+00		         0.59500	-9.00000e+00	
2.49360   	4.10507e+00		         0.59667	-9.00000e+00	
2.50053   	4.07053e+00		         0.59833	-9.00000e+00	
2.50746   	3.87263e+00		         0.60000	-9.00000e+00	
2.51439   	3.79684e+00		         0.60167	-8.00000e+00	
2.52132   	3.59388e+00		         0.60333	-8.00000e+00	
2.52826   	3.51775e+00		         0.60500	-8.00000e+00	
2.53518   	3.28823e+00		         0.60667	-7.00000e+00	
2.54212   	3.12306e+00		         0.60833	-7.00000e+00	
2.54904   	2.95795e+00		         0.61000	-7.00000e+00	
2.55598   	2.87846e+00		         0.61167	-6.00000e+00	
2.56291   	2.71387e+00		         0.61333	-6.00000e+00	
2.56984   	2.64485e+00		         0.61500	-6.00000e+00	
2.57677   	2.54132e+00		         0.61667	-5.00000e+00	
2.58370   	2.47693e+00		         0.61833	-5.00000e+00	
2.59063   	2.39295e+00		         0.62000	-5.00000e+00	
2.59756   	2.26555e+00		         0.62167	-5.00000e+00	
2.60449   	2.14610e+00		         0.62333	-5.00000e+00	
2.61142   	2.03761e+00		         0.62500	-5.00000e+00	
2.61835   	1.89960e+00		         0.62667	-5.00000e+00	
2.62528   	1.71824e+00		         0.62833	-6.00000e+00	
2.63221   	1.54485e+00		         0.63000	-6.00000e+00	
2.63914   	1.38008e+00		         0.63167	-6.00000e+00	
2.64607   	1.13483e+00		         0.63333	-7.00000e+00	
2.65300   	8.20245e-01		         0.63500	-7.00000e+00	
2.65993   	3.80622e-01		         0.63667	-8.00000e+00	
2.66686   	-1.74367e-01		         0.63833	-9.00000e+00	
2.67380   	-8.75661e-01		         0.64000	-9.00000e+00	
2.68073   	-1.60247e+00		         0.64167	-1.00000e+01	
2.68766   	-1.95135e+00		         0.64333	-1.10000e+01	
2.69459   	-1.62346e+00		         0.64500	-1.20000e+01	
2.70152   	-1.27117e+00		         0.64667	-1.20000e+01	
2.70844   	-4.86191e-01		         0.64833	-1.20000e+01	
2.71538   	4.46173e-01		         0.65000	-1.20000e+01	
2.72231   	1.30149e+00		         0.65167	-1.20000e+01	
2.72924   	1.76093e+00		         0.65333	-1.10000e+01	
2.73617   	2.36400e+00		         0.65500	-1.00000e+01	
2.74310   	2.94114e+00		         0.65667	-9.00000e+00	
2.75003   	3.50186e+00		         0.65833	-8.00000e+00	
2.75696   	3.93773e+00		         0.66000	-7.00000e+00	
2.76389   	4.48392e+00		         0.66167	-6.00000e+00	
2.77082   	4.07766e+00		         0.66333	-5.00000e+00	
2.77775   	3.39783e+00		         0.66500	-4.00000e+00	
2.78468   	2.92896e+00		         0.66667	-3.00000e+00	
2.79161   	1.60270e+00		         0.66833	-2.00000e+00	
2.79854   	-1.28783e-01		         0.67000	-2.00000e+00	
2.80548   	-9.21902e-01		         0.67167	-1.00000e+00	
2.81240   	-1.22344e+00		         0.67333	-1.00000e+00	
2.81934   	-1.99876e+00		         0.67500	-2.00000e+00	
2.82627   	-2.53783e+00		         0.67667	-2.00000e+00	
2.83320   	-2.59810e+00		         0.67833	-3.00000e+00	
2.84013   	-2.76725e+00		         0.68000	-3.00000e+00	
2.84706   	-3.35276e+00		         0.68167	-4.00000e+00	
2.85399   	-3.75166e+00		         0.68333	-4.00000e+00	
2.86092   	-3.56091e+00		         0.68500	-5.00000e+00	
2.86785   	-3.74735e+00		         0.68667	-5.00000e+00	
2.87478   	-3.62562e+00		         0.68833	-5.00000e+00	
2.88171   	-3.50015e+00		         0.69000	-5.00000e+00	
2.88864   	-3.19330e+00		         0.69167	-5.00000e+00	
2.89557   	-2.93274e+00		         0.69333	-5.00000e+00	
2.90251   	-2.57442e+00		         0.69500	-5.00000e+00	
2.90943   	-2.31033e+00		         0.69667	-5.00000e+00	
2.91636   	-2.09726e+00		         0.69833	-5.00000e+00	
2.92329   	-1.96217e+00		         0.70000	-6.00000e+00	
2.93022   	-1.73488e+00		         0.70167	-6.00000e+00	
2.93716   	-1.51112e+00		         0.70333	-7.00000e+00	
2.94409   	-1.34158e+00		         0.70500	-7.00000e+00	
2.95138   	-1.09676e+00		         0.70667	-8.00000e+00	
2.95795   	-8.56195e-01		         0.70833	-9.00000e+00	
2.96487   	-6.96577e-01		         0.71000	-9.00000e+00	
2.97181   	-5.82074e-01		         0.71167	-1.00000e+01	
2.97874   	-5.21383e-01		         0.71333	-1.00000e+01	
2.98567   	-4.61577e-01		         0.71500	-1.00000e+01	
2.99260   	-5.18512e-01		         0.71667	-1.00000e+01	
2.99953   	-6.19910e-01		         0.71833	-1.00000e+01	
3.00646   	-7.53252e-01		         0.72000	-9.00000e+00	
3.01371   	-8.24599e-01		         0.72167	-9.00000e+00	
3.02032   	-9.72426e-01		         0.72333	-8.00000e+00	
3.02725   	-1.00441e+00		         0.72500	-7.00000e+00	
3.03422   	-9.90715e-01		         0.72667	-7.00000e+00	
3.04111   	-9.20622e-01		         0.72833	-6.00000e+00	
3.04804   	-8.87791e-01		         0.73000	-6.00000e+00	
3.05497   	-7.84053e-01		         0.73167	-5.00000e+00	
3.06190   	-7.97393e-01		         0.73333	-5.00000e+00	
3.06883   	-7.99253e-01		         0.73500	-5.00000e+00	
3.07576   	-7.77583e-01		         0.73667	-5.00000e+00	
3.08270   	-8.07731e-01		         0.73833	-5.00000e+00	
3.08962   	-7.99834e-01		         0.74000	-5.00000e+00	
3.09680   	-7.42604e-01		         0.74167	-4.00000e+00	
3.10349   	-6.89595e-01		         0.74333	-4.00000e+00	
3.11042   	-6.20414e-01		         0.74500	-4.00000e+00	
3.11735   	-4.77712e-01		         0.74667	-4.00000e+00	
3.12428   	-4.03747e-01		         0.74833	-3.00000e+00	
3.13121   	-3.15559e-01		         0.75000	-3.00000e+00	
3.13814   	-2.35941e-01		         0.75167	-3.00000e+00	
3.14507   	-2.00076e-01		         0.75333	-3.00000e+00	
3.15200   	-1.75731e-01		         0.75500	-3.00000e+00	
3.15893   	-1.63535e-01		         0.75667	-3.00000e+00	
3.16586   	-1.40408e-01		         0.75833	-3.00000e+00	
3.17279   	-1.20888e-01		         0.76000	-4.00000e+00	
3.17988   	-9.84174e-02		         0.76167	-4.00000e+00	
3.18665   	-7.83565e-02		         0.76333	-5.00000e+00	
3.19358   	-6.61593e-02		         0.76500	-5.00000e+00	
3.20051   	-6.79180e-02		         0.76667	-6.00000e+00	
3.20744   	-6.17656e-02		         0.76833	-6.00000e+00	
3.21437   	-3.61012e-02		         0.77000	-7.00000e+00	
3.22131   	1.53823e-02		         0.77167	-7.00000e+00	
3.22823   	1.32251e-01		         0.77333	-7.00000e+00	
3.23517   	3.06840e-01		         0.77500	-7.00000e+00	
3.24210   	6.10202e-01		         0.77667	-7.00000e+00	
3.24903   	8.45106e-01		         0.77833	-7.00000e+00	
3.25596   	1.50756e+00		         0.78000	-7.00000e+00	
3.26289   	2.07768e+00		         0.78167	-7.00000e+00	
3.26982   	1.75313e+00		         0.78333	-6.00000e+00	
3.27675   	-1.84981e-01		         0.78500	-5.00000e+00	
3.28368   	-2.17469e+00		         0.78667	-5.00000e+00	
3.29061   	-4.40189e+00		         0.78833	-4.00000e+00	
3.29754   	-6.71869e+00		         0.79000	-3.00000e+00	
3.30447   	-8.27611e+00		         0.79167	-3.00000e+00	
3.31140   	-8.12068e+00		         0.79333	-2.00000e+00	
3.31833   	-8.08951e+00		         0.79500	-1.00000e+00	
3.32526   	-8.02381e+00		         0.79667	-1.00000e+00	
3.33219   	-7.80620e+00		         0.79833	0.00000e+00	
3.33912   	-7.23595e+00		         0.80000	0.00000e+00	
3.34605   	-6.88132e+00		         0.80167	1.00000e+00	
3.35299   	-6.20632e+00		         0.80333	1.00000e+00	
3.35992   	-5.94059e+00		         0.80500	1.00000e+00	
3.36684   	-5.59497e+00		         0.80667	1.00000e+00	
3.37378   	-5.18065e+00		         0.80833	2.00000e+00	
3.38071   	-4.79483e+00		         0.81000	2.00000e+00	
3.38764   	-4.65210e+00		         0.81167	2.00000e+00	
3.39457   	-3.81214e+00		         0.81333	1.00000e+00	
3.40150   	-3.33103e+00		         0.81500	1.00000e+00	
3.40843   	-3.23935e+00		         0.81667	1.00000e+00	
3.41536   	-3.06722e+00		         0.81833	0.00000e+00	
			         0.82000	0.00000e+00	
			         0.82167	-1.00000e+00	
			         0.82333	-1.00000e+00	
			         0.82500	-1.00000e+00	
			         0.82667	-2.00000e+00	
			         0.82833	-2.00000e+00	
			         0.83000	-2.00000e+00	
			         0.83167	-2.00000e+00	
			         0.83333	-3.00000e+00	
			         0.83500	-3.00000e+00	
			         0.83667	-3.00000e+00	
			         0.83833	-2.00000e+00	
			         0.84000	-2.00000e+00	
			         0.84167	-2.00000e+00	
			         0.84333	-1.00000e+00	
			         0.84500	-1.00000e+00	
			         0.84667	0.00000e+00	
			         0.84833	0.00000e+00	
			         0.85000	1.00000e+00	
			         0.85167	1.00000e+00	
			         0.85333	1.00000e+00	
			         0.85500	2.00000e+00	
			         0.85667	2.00000e+00	
			         0.85833	2.00000e+00	
			         0.86000	3.00000e+00	
			         0.86167	3.00000e+00	
			         0.86333	3.00000e+00	
			         0.86500	2.00000e+00	
			         0.86667	2.00000e+00	
			         0.86833	2.00000e+00	
			         0.87000	2.00000e+00	
			         0.87167	1.00000e+00	
			         0.87333	1.00000e+00	
			         0.87500	1.00000e+00	
			         0.87667	1.00000e+00	
			         0.87833	1.00000e+00	
			         0.88000	1.00000e+00	
			         0.88167	0.00000e+00	
			         0.88333	0.00000e+00	
			         0.88500	0.00000e+00	
			         0.88667	0.00000e+00	
			         0.88833	0.00000e+00	
			         0.89000	0.00000e+00	
			         0.89167	0.00000e+00	
			         0.89333	0.00000e+00	
			         0.89500	-1.00000e+00	
			         0.89667	-1.00000e+00	
			         0.89833	-1.00000e+00	
			         0.90000	-1.00000e+00	
			         0.90167	-1.00000e+00	
			         0.90333	0.00000e+00	
			         0.90500	0.00000e+00	
			         0.90667	0.00000e+00	
			         0.90833	1.00000e+00	
			         0.91000	1.00000e+00	
			         0.91167	1.00000e+00	
			         0.91333	2.00000e+00	
			         0.91500	2.00000e+00	
			         0.91667	3.00000e+00	
			         0.91833	3.00000e+00	
			         0.92000	4.00000e+00	
			         0.92167	4.00000e+00	
			         0.92333	5.00000e+00	
			         0.92500	5.00000e+00	
			         0.92667	6.00000e+00	
			         0.92833	6.00000e+00	
			         0.93000	6.00000e+00	
			         0.93167	7.00000e+00	
			         0.93333	7.00000e+00	
			         0.93500	7.00000e+00	
			         0.93667	8.00000e+00	
			         0.93833	8.00000e+00	
			         0.94000	8.00000e+00	
			         0.94167	8.00000e+00	
			         0.94333	8.00000e+00	
			         0.94500	8.00000e+00	
			         0.94667	8.00000e+00	
			         0.94833	8.00000e+00	
			         0.95000	8.00000e+00	
			         0.95167	7.00000e+00	
			         0.95333	7.00000e+00	
			         0.95500	7.00000e+00	
			         0.95667	6.00000e+00	
			         0.95833	6.00000e+00	
			         0.96000	6.00000e+00	
			         0.96167	6.00000e+00	
			         0.96333	6.00000e+00	
			         0.96500	6.00000e+00	
			         0.96667	6.00000e+00	
			         0.96833	6.00000e+00	
			         0.97000	6.00000e+00	
			         0.97167	6.00000e+00	
			         0.97333	6.00000e+00	
			         0.97500	6.00000e+00	
			         0.97667	7.00000e+00	
			         0.97833	7.00000e+00	
			         0.98000	7.00000e+00	
			         0.98167	7.00000e+00	
			         0.98333	7.00000e+00	
			         0.98500	7.00000e+00	
			         0.98667	8.00000e+00	
			         0.98833	8.00000e+00	
			         0.99000	8.00000e+00	
			         0.99167	9.00000e+00	
			         0.99333	9.00000e+00	
			         0.99500	9.00000e+00	
			         0.99667	9.00000e+00	
			         0.99833	9.00000e+00	
			         1.00000	9.00000e+00	
			         1.00167	9.00000e+00	
			         1.00333	9.00000e+00	
			         1.00500	8.00000e+00	
			         1.00667	8.00000e+00	
			         1.00833	8.00000e+00	
			         1.01000	7.00000e+00	
			         1.01167	7.00000e+00	
			         1.01333	6.00000e+00	
			         1.01500	5.00000e+00	
			         1.01667	5.00000e+00	
			         1.01833	4.00000e+00	
			         1.02000	4.00000e+00	
			         1.02167	3.00000e+00	
			         1.02333	1.00000e+00	
			         1.02500	0.00000e+00	
			         1.02667	-1.00000e+00	
			         1.02833	-3.00000e+00	
			         1.03000	-5.00000e+00	
			         1.03167	-6.00000e+00	
			         1.03333	-8.00000e+00	
			         1.03500	-1.00000e+01	
			         1.03667	-1.10000e+01	
			         1.03833	-1.20000e+01	
			         1.04000	-1.30000e+01	
			         1.04167	-1.40000e+01	
			         1.04333	-1.40000e+01	
			         1.04500	-1.40000e+01	
			         1.04667	-1.40000e+01	
			         1.04833	-1.40000e+01	
			         1.05000	-1.30000e+01	
			         1.05167	-1.20000e+01	
			         1.05333	-1.20000e+01	
			         1.05500	-1.10000e+01	
			         1.05667	-1.10000e+01	
			         1.05833	-1.00000e+01	
			         1.06000	-9.00000e+00	
			         1.06167	-9.00000e+00	
			         1.06333	-9.00000e+00	
			         1.06500	-8.00000e+00	
			         1.06667	-8.00000e+00	
			         1.06833	-8.00000e+00	
			         1.07000	-8.00000e+00	
			         1.07167	-8.00000e+00	
			         1.07333	-8.00000e+00	
			         1.07500	-8.00000e+00	
			         1.07667	-8.00000e+00	
			         1.07833	-8.00000e+00	
			         1.08000	-8.00000e+00	
			         1.08167	-8.00000e+00	
			         1.08333	-9.00000e+00	
			         1.08500	-9.00000e+00	
			         1.08667	-9.00000e+00	
			         1.08833	-9.00000e+00	
			         1.09000	-1.00000e+01	
			         1.09167	-1.00000e+01	
			         1.09333	-1.00000e+01	
			         1.09500	-1.00000e+01	
			         1.09667	-1.10000e+01	
			         1.09833	-1.10000e+01	
			         1.10000	-1.10000e+01	
			         1.10167	-1.10000e+01	
			         1.10333	-1.00000e+01	
			         1.10500	-9.00000e+00	
			         1.10667	-6.00000e+00	
			         1.10833	-1.00000e+00	
			         1.11000	7.00000e+00	
			         1.11167	1.80000e+01	
			         1.11333	3.20000e+01	
			         1.11500	5.10000e+01	
			         1.11667	7.50000e+01	
			         1.11833	1.02000e+02	
			         1.12000	1.34000e+02	
			         1.12167	1.70000e+02	
			         1.12333	2.10000e+02	
			         1.12500	2.52000e+02	
			         1.12667	2.95000e+02	
			         1.12833	3.39000e+02	
			         1.13000	3.82000e+02	
			         1.13167	4.22000e+02	
			         1.13333	4.59000e+02	
			         1.13500	4.88000e+02	
			         1.13667	5.10000e+02	
			         1.13833	5.21000e+02	
			         1.14000	5.22000e+02	
			         1.14167	5.11000e+02	
			         1.14333	4.89000e+02	
			         1.14500	4.55000e+02	
			         1.14667	4.12000e+02	
			         1.14833	3.61000e+02	
			         1.15000	3.03000e+02	
			         1.15167	2.40000e+02	
			         1.15333	1.74000e+02	
			         1.15500	1.08000e+02	
			         1.15667	4.40000e+01	
			         1.15833	-1.60000e+01	
			         1.16000	-6.90000e+01	
			         1.16167	-1.15000e+02	
			         1.16333	-1.52000e+02	
			         1.16500	-1.81000e+02	
			         1.16667	-2.02000e+02	
			         1.16833	-2.15000e+02	
			         1.17000	-2.23000e+02	
			         1.17167	-2.24000e+02	
			         1.17333	-2.21000e+02	
			         1.17500	-2.15000e+02	
			         1.17667	-2.06000e+02	
			         1.17833	-1.96000e+02	
			         1.18000	-1.85000e+02	
			         1.18167	-1.73000e+02	
			         1.18333	-1.63000e+02	
			         1.18500	-1.53000e+02	
			         1.18667	-1.44000e+02	
			         1.18833	-1.36000e+02	
			         1.19000	-1.29000e+02	
			         1.19167	-1.23000e+02	
			         1.19333	-1.18000e+02	
			         1.19500	-1.14000e+02	
			         1.19667	-1.11000e+02	
			         1.19833	-1.08000e+02	
			         1.20000	-1.06000e+02	
			         1.20167	-1.04000e+02	
			         1.20333	-1.02000e+02	
			         1.20500	-1.01000e+02	
			         1.20667	-1.00000e+02	
			         1.20833	-9.80000e+01	
			         1.21000	-9.70000e+01	
			         1.21167	-9.60000e+01	
			         1.21333	-9.40000e+01	
			         1.21500	-9.30000e+01	
			         1.21667	-9.20000e+01	
			         1.21833	-9.00000e+01	
			         1.22000	-8.80000e+01	
			         1.22167	-8.60000e+01	
			         1.22333	-8.40000e+01	
			         1.22500	-8.20000e+01	
			         1.22667	-8.00000e+01	
			         1.22833	-7.70000e+01	
			         1.23000	-7.50000e+01	
			         1.23167	-7.30000e+01	
			         1.23333	-7.10000e+01	
			         1.23500	-6.90000e+01	
			         1.23667	-6.70000e+01	
			         1.23833	-6.50000e+01	
			         1.24000	-6.40000e+01	
			         1.24167	-6.20000e+01	
			         1.24333	-6.10000e+01	
			         1.24500	-6.00000e+01	
			         1.24667	-5.90000e+01	
			         1.24833	-5.80000e+01	
			         1.25000	-5.70000e+01	
			         1.25167	-5.70000e+01	
			         1.25333	-5.60000e+01	
			         1.25500	-5.60000e+01	
			         1.25667	-5.50000e+01	
			         1.25833	-5.40000e+01	
			         1.26000	-5.40000e+01	
			         1.26167	-5.30000e+01	
			         1.26333	-5.30000e+01	
			         1.26500	-5.20000e+01	
			         1.26667	-5.10000e+01	
			         1.26833	-5.00000e+01	
			         1.27000	-4.90000e+01	
			         1.27167	-4.80000e+01	
			         1.27333	-4.70000e+01	
			         1.27500	-4.60000e+01	
			         1.27667	-4.50000e+01	
			         1.27833	-4.40000e+01	
			         1.28000	-4.30000e+01	
			         1.28167	-4.20000e+01	
			         1.28333	-4.00000e+01	
			         1.28500	-3.90000e+01	
			         1.28667	-3.80000e+01	
			         1.28833	-3.70000e+01	
			         1.29000	-3.60000e+01	
			         1.29167	-3.50000e+01	
			         1.29333	-3.50000e+01	
			         1.29500	-3.40000e+01	
			         1.29667	-3.40000e+01	
			         1.29833	-3.40000e+01	
			         1.30000	-3.40000e+01	
			         1.30167	-3.40000e+01	
			         1.30333	-3.50000e+01	
			         1.30500	-3.60000e+01	
			         1.30667	-3.60000e+01	
			         1.30833	-3.70000e+01	
			         1.31000	-3.80000e+01	
			         1.31167	-3.90000e+01	
			         1.31333	-3.90000e+01	
			         1.31500	-4.00000e+01	
			         1.31667	-4.00000e+01	
			         1.31833	-4.00000e+01	
			         1.32000	-3.90000e+01	
			         1.32167	-3.90000e+01	
			         1.32333	-3.80000e+01	
			         1.32500	-3.60000e+01	
			         1.32667	-3.50000e+01	
			         1.32833	-3.30000e+01	
			         1.33000	-3.10000e+01	
			         1.33167	-2.80000e+01	
			         1.33333	-2.60000e+01	
			         1.33500	-2.40000e+01	
			         1.33667	-2.20000e+01	
			         1.33833	-2.00000e+01	
			         1.34000	-1.90000e+01	
			         1.34167	-1.70000e+01	
			         1.34333	-1.60000e+01	
			         1.34500	-1.60000e+01	
			         1.34667	-1.50000e+01	
			         1.34833	-1.50000e+01	
			         1.35000	-1.60000e+01	
			         1.35167	-1.60000e+01	
			         1.35333	-1.70000e+01	
			         1.35500	-1.80000e+01	
			         1.35667	-1.90000e+01	
			         1.35833	-2.00000e+01	
			         1.36000	-2.00000e+01	
			         1.36167	-2.10000e+01	
			         1.36333	-2.10000e+01	
			         1.36500	-2.10000e+01	
			         1.36667	-2.10000e+01	
			         1.36833	-2.10000e+01	
			         1.37000	-2.00000e+01	
			         1.37167	-2.00000e+01	
			         1.37333	-1.90000e+01	
			         1.37500	-1.80000e+01	
			         1.37667	-1.80000e+01	
			         1.37833	-1.70000e+01	
			         1.38000	-1.60000e+01	
			         1.38167	-1.50000e+01	
			         1.38333	-1.50000e+01	
			         1.38500	-1.40000e+01	
			         1.38667	-1.40000e+01	
			         1.38833	-1.30000e+01	
			         1.39000	-1.20000e+01	
			         1.39167	-1.10000e+01	
			         1.39333	-1.10000e+01	
			         1.39500	-1.00000e+01	
			         1.39667	-8.00000e+00	
			         1.39833	-7.00000e+00	
			         1.40000	-6.00000e+00	
			         1.40167	-5.00000e+00	
			         1.40333	-3.00000e+00	
			         1.40500	-2.00000e+00	
			         1.40667	-1.00000e+00	
			         1.40833	1.00000e+00	
			         1.41000	2.00000e+00	
			         1.41167	3.00000e+00	
			         1.41333	4.00000e+00	
			         1.41500	5.00000e+00	
			         1.41667	6.00000e+00	
			         1.41833	7.00000e+00	
			         1.42000	7.00000e+00	
			         1.42167	8.00000e+00	
			         1.42333	8.00000e+00	
			         1.42500	9.00000e+00	
			         1.42667	9.00000e+00	
			         1.42833	1.00000e+01	
			         1.43000	1.00000e+01	
			         1.43167	1.00000e+01	
			         1.43333	1.10000e+01	
			         1.43500	1.10000e+01	
			         1.43667	1.20000e+01	
			         1.43833	1.20000e+01	
			         1.44000	1.30000e+01	
			         1.44167	1.40000e+01	
			         1.44333	1.50000e+01	
			         1.44500	1.60000e+01	
			         1.44667	1.70000e+01	
			         1.44833	1.90000e+01	
			         1.45000	2.00000e+01	
			         1.45167	2.20000e+01	
			         1.45333	2.40000e+01	
			         1.45500	2.60000e+01	
			         1.45667	2.80000e+01	
			         1.45833	3.00000e+01	
			         1.46000	3.10000e+01	
			         1.46167	3.30000e+01	
			         1.46333	3.50000e+01	
			         1.46500	3.60000e+01	
			         1.46667	3.70000e+01	
			         1.46833	3.80000e+01	
			         1.47000	3.90000e+01	
			         1.47167	3.90000e+01	
			         1.47333	3.90000e+01	
			         1.47500	4.00000e+01	
			         1.47667	4.00000e+01	
			         1.47833	4.00000e+01	
			         1.48000	4.00000e+01	
			         1.48167	4.00000e+01	
			         1.48333	4.10000e+01	
			         1.48500	4.10000e+01	
			         1.48667	4.10000e+01	
			         1.48833	4.20000e+01	
			         1.49000	4.20000e+01	
			         1.49167	4.20000e+01	
			         1.49333	4.20000e+01	
			         1.49500	4.10000e+01	
			         1.49667	4.10000e+01	
			         1.49833	4.00000e+01	
			         1.50000	3.90000e+01	
			         1.50167	3.70000e+01	
			         1.50333	3.50000e+01	
			         1.50500	3.30000e+01	
			         1.50667	3.10000e+01	
			         1.50833	2.90000e+01	
			         1.51000	2.60000e+01	
			         1.51167	2.40000e+01	
			         1.51333	2.10000e+01	
			         1.51500	1.90000e+01	
			         1.51667	1.60000e+01	
			         1.51833	1.40000e+01	
			         1.52000	1.20000e+01	
			         1.52167	1.00000e+01	
			         1.52333	9.00000e+00	
			         1.52500	7.00000e+00	
			         1.52667	6.00000e+00	
			         1.52833	5.00000e+00	
			         1.53000	4.00000e+00	
			         1.53167	3.00000e+00	
			         1.53333	2.00000e+00	
			         1.53500	1.00000e+00	
			         1.53667	0.00000e+00	
			         1.53833	0.00000e+00	
			         1.54000	-1.00000e+00	
			         1.54167	-2.00000e+00	
			         1.54333	-3.00000e+00	
			         1.54500	-3.00000e+00	
			         1.54667	-4.00000e+00	
			         1.54833	-4.00000e+00	
			         1.55000	-4.00000e+00	
			         1.55167	-4.00000e+00	
			         1.55333	-4.00000e+00	
			         1.55500	-4.00000e+00	
			         1.55667	-3.00000e+00	
			         1.55833	-2.00000e+00	
			         1.56000	-2.00000e+00	
			         1.56167	-1.00000e+00	
			         1.56333	0.00000e+00	
			         1.56500	1.00000e+00	
			         1.56667	2.00000e+00	
			         1.56833	3.00000e+00	
			         1.57000	3.00000e+00	
			         1.57167	4.00000e+00	
			         1.57333	4.00000e+00	
			         1.57500	4.00000e+00	
			         1.57667	4.00000e+00	
			         1.57833	4.00000e+00	
			         1.58000	3.00000e+00	
			         1.58167	3.00000e+00	
			         1.58333	3.00000e+00	
			         1.58500	2.00000e+00	
			         1.58667	2.00000e+00	
			         1.58833	2.00000e+00	
			         1.59000	2.00000e+00	
			         1.59167	2.00000e+00	
			         1.59333	2.00000e+00	
			         1.59500	1.00000e+00	
			         1.59667	1.00000e+00	
			         1.59833	1.00000e+00	
			         1.60000	1.00000e+00	
			         1.60167	1.00000e+00	
			         1.60333	1.00000e+00	
			         1.60500	0.00000e+00	
			         1.60667	0.00000e+00	
			         1.60833	-1.00000e+00	
			         1.61000	-1.00000e+00	
			         1.61167	-2.00000e+00	
			         1.61333	-2.00000e+00	
			         1.61500	-2.00000e+00	
			         1.61667	-2.00000e+00	
			         1.61833	-2.00000e+00	
			         1.62000	-2.00000e+00	
			         1.62167	-2.00000e+00	
			         1.62333	-1.00000e+00	
			         1.62500	-1.00000e+00	
			         1.62667	0.00000e+00	
			         1.62833	0.00000e+00	
			         1.63000	1.00000e+00	
			         1.63167	1.00000e+00	
			         1.63333	1.00000e+00	
			         1.63500	2.00000e+00	
			         1.63667	2.00000e+00	
			         1.63833	2.00000e+00	
			         1.64000	1.00000e+00	
			         1.64167	1.00000e+00	
			         1.64333	1.00000e+00	
			         1.64500	1.00000e+00	
			         1.64667	1.00000e+00	
			         1.64833	0.00000e+00	
			         1.65000	0.00000e+00	
			         1.65167	0.00000e+00	
			         1.65333	0.00000e+00	
			         1.65500	0.00000e+00	
			         1.65667	-1.00000e+00	
			         1.65833	-1.00000e+00	
			         1.66000	-1.00000e+00	
			         1.66167	-1.00000e+00	
			         1.66333	-1.00000e+00	
			         1.66500	-1.00000e+00	
			         1.66667	-1.00000e+00	
			         1.66833	-1.00000e+00	
			         1.67000	-1.00000e+00	
			         1.67167	-1.00000e+00	
			         1.67333	-1.00000e+00	
			         1.67500	-1.00000e+00	
			         1.67667	-1.00000e+00	
			         1.67833	-1.00000e+00	
			         1.68000	-2.00000e+00	
			         1.68167	-2.00000e+00	
			         1.68333	-2.00000e+00	
			         1.68500	-2.00000e+00	
			         1.68667	-3.00000e+00	
			         1.68833	-3.00000e+00	
			         1.69000	-3.00000e+00	
			         1.69167	-3.00000e+00	
			         1.69333	-3.00000e+00	
			         1.69500	-3.00000e+00	
			         1.69667	-3.00000e+00	
			         1.69833	-3.00000e+00	
			         1.70000	-2.00000e+00	
			         1.70167	-2.00000e+00	
			         1.70333	-2.00000e+00	
			         1.70500	-1.00000e+00	
			         1.70667	-1.00000e+00	
			         1.70833	-1.00000e+00	
			         1.71000	-1.00000e+00	
			         1.71167	-1.00000e+00	
			         1.71333	0.00000e+00	
			         1.71500	0.00000e+00	
			         1.71667	0.00000e+00	
			         1.71833	0.00000e+00	
			         1.72000	1.00000e+00	
			         1.72167	1.00000e+00	
			         1.72333	1.00000e+00	
			         1.72500	2.00000e+00	
			         1.72667	2.00000e+00	
			         1.72833	2.00000e+00	
			         1.73000	2.00000e+00	
			         1.73167	2.00000e+00	
			         1.73333	1.00000e+00	
			         1.73500	1.00000e+00	
			         1.73667	0.00000e+00	
			         1.73833	0.00000e+00	
			         1.74000	-1.00000e+00	
			         1.74167	-1.00000e+00	
			         1.74333	-2.00000e+00	
			         1.74500	-2.00000e+00	
			         1.74667	-2.00000e+00	
			         1.74833	-3.00000e+00	
			         1.75000	-3.00000e+00	
			         1.75167	-3.00000e+00	
			         1.75333	-4.00000e+00	
			         1.75500	-4.00000e+00	
			         1.75667	-4.00000e+00	
			         1.75833	-4.00000e+00	
			         1.76000	-4.00000e+00	
			         1.76167	-4.00000e+00	
			         1.76333	-4.00000e+00	
			         1.76500	-4.00000e+00	
			         1.76667	-4.00000e+00	
			         1.76833	-4.00000e+00	
			         1.77000	-4.00000e+00	
			         1.77167	-4.00000e+00	
			         1.77333	-3.00000e+00	
			         1.77500	-3.00000e+00	
			         1.77667	-3.00000e+00	
			         1.77833	-2.00000e+00	
			         1.78000	-2.00000e+00	
			         1.78167	-2.00000e+00	
			         1.78333	-2.00000e+00	
			         1.78500	-1.00000e+00	
			         1.78667	-1.00000e+00	
			         1.78833	-1.00000e+00	
			         1.79000	-1.00000e+00	
			         1.79167	-1.00000e+00	
			         1.79333	-1.00000e+00	
			         1.79500	-1.00000e+00	
			         1.79667	-1.00000e+00	
			         1.79833	-1.00000e+00	
			         1.80000	-1.00000e+00	
			         1.80167	-1.00000e+00	
			         1.80333	-1.00000e+00	
			         1.80500	-1.00000e+00	
			         1.80667	-1.00000e+00	
			         1.80833	-1.00000e+00	
			         1.81000	-1.00000e+00	
			         1.81167	-1.00000e+00	
			         1.81333	0.00000e+00	
			         1.81500	0.00000e+00	
			         1.81667	0.00000e+00	
			         1.81833	1.00000e+00	
			         1.82000	1.00000e+00	
			         1.82167	1.00000e+00	
			         1.82333	2.00000e+00	
			         1.82500	2.00000e+00	
			         1.82667	3.00000e+00	
			         1.82833	3.00000e+00	
			         1.83000	4.00000e+00	
			         1.83167	4.00000e+00	
			         1.83333	5.00000e+00	
			         1.83500	5.00000e+00	
			         1.83667	5.00000e+00	
			         1.83833	5.00000e+00	
			         1.84000	5.00000e+00	
			         1.84167	5.00000e+00	
			         1.84333	5.00000e+00	
			         1.84500	4.00000e+00	
			         1.84667	4.00000e+00	
			         1.84833	3.00000e+00	
			         1.85000	3.00000e+00	
			         1.85167	2.00000e+00	
			         1.85333	1.00000e+00	
			         1.85500	1.00000e+00	
			         1.85667	0.00000e+00	
			         1.85833	0.00000e+00	
			         1.86000	0.00000e+00	
			         1.86167	-1.00000e+00	
			         1.86333	-1.00000e+00	
			         1.86500	-1.00000e+00	
			         1.86667	-1.00000e+00	
			         1.86833	-1.00000e+00	
			         1.87000	-1.00000e+00	
			         1.87167	0.00000e+00	
			         1.87333	0.00000e+00	
			         1.87500	0.00000e+00	
			         1.87667	1.00000e+00	
			         1.87833	1.00000e+00	
			         1.88000	2.00000e+00	
			         1.88167	2.00000e+00	
			         1.88333	3.00000e+00	
			         1.88500	4.00000e+00	
			         1.88667	4.00000e+00	
			         1.88833	5.00000e+00	
			         1.89000	6.00000e+00	
			         1.89167	6.00000e+00	
			         1.89333	7.00000e+00	
			         1.89500	8.00000e+00	
			         1.89667	8.00000e+00	
			         1.89833	8.00000e+00	
			         1.90000	9.00000e+00	
			         1.90167	9.00000e+00	
			         1.90333	9.00000e+00	
			         1.90500	9.00000e+00	
			         1.90667	9.00000e+00	
			         1.90833	9.00000e+00	
			         1.91000	9.00000e+00	
			         1.91167	8.00000e+00	
			         1.91333	8.00000e+00	
			         1.91500	7.00000e+00	
			         1.91667	7.00000e+00	
			         1.91833	6.00000e+00	
			         1.92000	6.00000e+00	
			         1.92167	5.00000e+00	
			         1.92333	5.00000e+00	
			         1.92500	4.00000e+00	
			         1.92667	4.00000e+00	
			         1.92833	4.00000e+00	
			         1.93000	4.00000e+00	
			         1.93167	5.00000e+00	
			         1.93333	5.00000e+00	
			         1.93500	6.00000e+00	
			         1.93667	6.00000e+00	
			         1.93833	7.00000e+00	
			         1.94000	8.00000e+00	
			         1.94167	9.00000e+00	
			         1.94333	9.00000e+00	
			         1.94500	1.00000e+01	
			         1.94667	1.10000e+01	
			         1.94833	1.10000e+01	
			         1.95000	1.10000e+01	
			         1.95167	1.10000e+01	
			         1.95333	1.10000e+01	
			         1.95500	1.10000e+01	
			         1.95667	1.10000e+01	
			         1.95833	1.00000e+01	
			         1.96000	1.00000e+01	
			         1.96167	1.00000e+01	
			         1.96333	9.00000e+00	
			         1.96500	9.00000e+00	
			         1.96667	9.00000e+00	
			         1.96833	8.00000e+00	
			         1.97000	8.00000e+00	
			         1.97167	8.00000e+00	
			         1.97333	8.00000e+00	
			         1.97500	8.00000e+00	
			         1.97667	8.00000e+00	
			         1.97833	8.00000e+00	
			         1.98000	8.00000e+00	
			         1.98167	8.00000e+00	
			         1.98333	8.00000e+00	
			         1.98500	8.00000e+00	
			         1.98667	7.00000e+00	
			         1.98833	7.00000e+00	
			         1.99000	7.00000e+00	
			         1.99167	7.00000e+00	
			         1.99333	6.00000e+00	
			         1.99500	6.00000e+00	
			         1.99667	5.00000e+00	
			         1.99833	5.00000e+00	
			         2.00000	4.00000e+00	
			         2.00167	4.00000e+00	
			         2.00333	4.00000e+00	
			         2.00500	4.00000e+00	
			         2.00667	5.00000e+00	
			         2.00833	5.00000e+00	
			         2.01000	5.00000e+00	
			         2.01167	6.00000e+00	
			         2.01333	6.00000e+00	
			         2.01500	7.00000e+00	
			         2.01667	7.00000e+00	
			         2.01833	8.00000e+00	
			         2.02000	8.00000e+00	
			         2.02167	8.00000e+00	
			         2.02333	8.00000e+00	
			         2.02500	8.00000e+00	
			         2.02667	8.00000e+00	
			         2.02833	8.00000e+00	
			         2.03000	7.00000e+00	
			         2.03167	7.00000e+00	
			         2.03333	6.00000e+00	
			         2.03500	6.00000e+00	
			         2.03667	5.00000e+00	
			         2.03833	5.00000e+00	
			         2.04000	4.00000e+00	
			         2.04167	4.00000e+00	
			         2.04333	4.00000e+00	
			         2.04500	4.00000e+00	
			         2.04667	5.00000e+00	
			         2.04833	5.00000e+00	
			         2.05000	6.00000e+00	
			         2.05167	7.00000e+00	
			         2.05333	9.00000e+00	
			         2.05500	1.00000e+01	
			         2.05667	1.10000e+01	
			         2.05833	1.20000e+01	
			         2.06000	1.30000e+01	
			         2.06167	1.40000e+01	
			         2.06333	1.40000e+01	
			         2.06500	1.50000e+01	
			         2.06667	1.50000e+01	
			         2.06833	1.50000e+01	
			         2.07000	1.40000e+01	
			         2.07167	1.40000e+01	
			         2.07333	1.40000e+01	
			         2.07500	1.30000e+01	
			         2.07667	1.30000e+01	
			         2.07833	1.30000e+01	
			         2.08000	1.30000e+01	
			         2.08167	1.30000e+01	
			         2.08333	1.40000e+01	
			         2.08500	1.40000e+01	
			         2.08667	1.50000e+01	
			         2.08833	1.60000e+01	
			         2.09000	1.70000e+01	
			         2.09167	1.70000e+01	
			         2.09333	1.80000e+01	
			         2.09500	1.90000e+01	
			         2.09667	1.90000e+01	
			         2.09833	2.00000e+01	
			         2.10000	2.00000e+01	
			         2.10167	2.00000e+01	
			         2.10333	2.00000e+01	
			         2.10500	2.00000e+01	
			         2.10667	2.00000e+01	
			         2.10833	2.00000e+01	
			         2.11000	2.00000e+01	
			         2.11167	2.00000e+01	
			         2.11333	1.90000e+01	
			         2.11500	1.90000e+01	
			         2.11667	1.90000e+01	
			         2.11833	1.80000e+01	
			         2.12000	1.80000e+01	
			         2.12167	1.80000e+01	
			         2.12333	1.70000e+01	
			         2.12500	1.60000e+01	
			         2.12667	1.50000e+01	
			         2.12833	1.40000e+01	
			         2.13000	1.30000e+01	
			         2.13167	1.20000e+01	
			         2.13333	1.10000e+01	
			         2.13500	9.00000e+00	
			         2.13667	8.00000e+00	
			         2.13833	7.00000e+00	
			         2.14000	5.00000e+00	
			         2.14167	4.00000e+00	
			         2.14333	2.00000e+00	
			         2.14500	1.00000e+00	
			         2.14667	0.00000e+00	
			         2.14833	-1.00000e+00	
			         2.15000	-1.00000e+00	
			         2.15167	-2.00000e+00	
			         2.15333	-2.00000e+00	
			         2.15500	-2.00000e+00	
			         2.15667	-2.00000e+00	
			         2.15833	-2.00000e+00	
			         2.16000	-2.00000e+00	
			         2.16167	-2.00000e+00	
			         2.16333	-2.00000e+00	
			         2.16500	-1.00000e+00	
			         2.16667	-1.00000e+00	
			         2.16833	-1.00000e+00	
			         2.17000	-1.00000e+00	
			         2.17167	-2.00000e+00	
			         2.17333	-2.00000e+00	
			         2.17500	-2.00000e+00	
			         2.17667	-3.00000e+00	
			         2.17833	-3.00000e+00	
			         2.18000	-3.00000e+00	
			         2.18167	-4.00000e+00	
			         2.18333	-4.00000e+00	
			         2.18500	-4.00000e+00	
			         2.18667	-4.00000e+00	
			         2.18833	-5.00000e+00	
			         2.19000	-5.00000e+00	
			         2.19167	-5.00000e+00	
			         2.19333	-5.00000e+00	
			         2.19500	-5.00000e+00	
			         2.19667	-5.00000e+00	
			         2.19833	-5.00000e+00	
			         2.20000	-5.00000e+00	
			         2.20167	-5.00000e+00	
			         2.20333	-4.00000e+00	
			         2.20500	-4.00000e+00	
			         2.20667	-4.00000e+00	
			         2.20833	-4.00000e+00	
			         2.21000	-4.00000e+00	
			         2.21167	-3.00000e+00	
			         2.21333	-3.00000e+00	
			         2.21500	-3.00000e+00	
			         2.21667	-3.00000e+00	
			         2.21833	-4.00000e+00	
			         2.22000	-4.00000e+00	
			         2.22167	-5.00000e+00	
			         2.22333	-6.00000e+00	
			         2.22500	-6.00000e+00	
			         2.22667	-6.00000e+00	
			         2.22833	-5.00000e+00	
			         2.23000	-3.00000e+00	
			         2.23167	1.00000e+00	
			         2.23333	9.00000e+00	
			         2.23500	1.90000e+01	
			         2.23667	3.40000e+01	
			         2.23833	5.30000e+01	
			         2.24000	7.70000e+01	
			         2.24167	1.06000e+02	
			         2.24333	1.39000e+02	
			         2.24500	1.75000e+02	
			         2.24667	2.16000e+02	
			         2.24833	2.58000e+02	
			         2.25000	3.02000e+02	
			         2.25167	3.46000e+02	
			         2.25333	3.89000e+02	
			         2.25500	4.28000e+02	
			         2.25667	4.62000e+02	
			         2.25833	4.89000e+02	
			         2.26000	5.06000e+02	
			         2.26167	5.14000e+02	
			         2.26333	5.09000e+02	
			         2.26500	4.94000e+02	
			         2.26667	4.66000e+02	
			         2.26833	4.29000e+02	
			         2.27000	3.82000e+02	
			         2.27167	3.28000e+02	
			         2.27333	2.67000e+02	
			         2.27500	2.03000e+02	
			         2.27667	1.38000e+02	
			         2.27833	7.30000e+01	
			         2.28000	1.20000e+01	
			         2.28167	-4.40000e+01	
			         2.28333	-9.20000e+01	
			         2.28500	-1.33000e+02	
			         2.28667	-1.65000e+02	
			         2.28833	-1.90000e+02	
			         2.29000	-2.07000e+02	
			         2.29167	-2.17000e+02	
			         2.29333	-2.21000e+02	
			         2.29500	-2.20000e+02	
			         2.29667	-2.16000e+02	
			         2.29833	-2.08000e+02	
			         2.30000	-1.98000e+02	
			         2.30167	-1.87000e+02	
			         2.30333	-1.76000e+02	
			         2.30500	-1.65000e+02	
			         2.30667	-1.54000e+02	
			         2.30833	-1.44000e+02	
			         2.31000	-1.36000e+02	
			         2.31167	-1.28000e+02	
			         2.31333	-1.22000e+02	
			         2.31500	-1.17000e+02	
			         2.31667	-1.13000e+02	
			         2.31833	-1.10000e+02	
			         2.32000	-1.07000e+02	
			         2.32167	-1.05000e+02	
			         2.32333	-1.04000e+02	
			         2.32500	-1.02000e+02	
			         2.32667	-1.01000e+02	
			         2.32833	-1.00000e+02	
			         2.33000	-9.90000e+01	
			         2.33167	-9.70000e+01	
			         2.33333	-9.60000e+01	
			         2.33500	-9.40000e+01	
			         2.33667	-9.30000e+01	
			         2.33833	-9.10000e+01	
			         2.34000	-9.00000e+01	
			         2.34167	-8.80000e+01	
			         2.34333	-8.60000e+01	
			         2.34500	-8.50000e+01	
			         2.34667	-8.40000e+01	
			         2.34833	-8.20000e+01	
			         2.35000	-8.10000e+01	
			         2.35167	-7.90000e+01	
			         2.35333	-7.80000e+01	
			         2.35500	-7.60000e+01	
			         2.35667	-7.50000e+01	
			         2.35833	-7.40000e+01	
			         2.36000	-7.30000e+01	
			         2.36167	-7.30000e+01	
			         2.36333	-7.20000e+01	
			         2.36500	-7.20000e+01	
			         2.36667	-7.10000e+01	
			         2.36833	-7.10000e+01	
			         2.37000	-7.00000e+01	
			         2.37167	-7.00000e+01	
			         2.37333	-6.90000e+01	
			         2.37500	-6.90000e+01	
			         2.37667	-6.80000e+01	
			         2.37833	-6.70000e+01	
			         2.38000	-6.60000e+01	
			         2.38167	-6.50000e+01	
			         2.38333	-6.40000e+01	
			         2.38500	-6.20000e+01	
			         2.38667	-6.00000e+01	
			         2.38833	-5.80000e+01	
			         2.39000	-5.60000e+01	
			         2.39167	-5.40000e+01	
			         2.39333	-5.20000e+01	
			         2.39500	-5.00000e+01	
			         2.39667	-4.80000e+01	
			         2.39833	-4.60000e+01	
			         2.40000	-4.40000e+01	
			         2.40167	-4.20000e+01	
			         2.40333	-4.00000e+01	
			         2.40500	-3.90000e+01	
			         2.40667	-3.70000e+01	
			         2.40833	-3.60000e+01	
			         2.41000	-3.50000e+01	
			         2.41167	-3.50000e+01	
			         2.41333	-3.40000e+01	
			         2.41500	-3.40000e+01	
			         2.41667	-3.40000e+01	
			         2.41833	-3.40000e+01	
			         2.42000	-3.40000e+01	
			         2.42167	-3.40000e+01	
			         2.42333	-3.40000e+01	
			         2.42500	-3.50000e+01	
			         2.42667	-3.50000e+01	
			         2.42833	-3.60000e+01	
			         2.43000	-3.60000e+01	
			         2.43167	-3.70000e+01	
			         2.43333	-3.70000e+01	
			         2.43500	-3.80000e+01	
			         2.43667	-3.90000e+01	
			         2.43833	-3.90000e+01	
			         2.44000	-3.90000e+01	
			         2.44167	-4.00000e+01	
			         2.44333	-4.00000e+01	
			         2.44500	-4.00000e+01	
			         2.44667	-4.00000e+01	
			         2.44833	-4.00000e+01	
			         2.45000	-4.00000e+01	
			         2.45167	-3.90000e+01	
			         2.45333	-3.80000e+01	
			         2.45500	-3.80000e+01	
			         2.45667	-3.70000e+01	
			         2.45833	-3.50000e+01	
			         2.46000	-3.40000e+01	
			         2.46167	-3.30000e+01	
			         2.46333	-3.20000e+01	
			         2.46500	-3.00000e+01	
			         2.46667	-2.90000e+01	
			         2.46833	-2.80000e+01	
			         2.47000	-2.60000e+01	
			         2.47167	-2.50000e+01	
			         2.47333	-2.40000e+01	
			         2.47500	-2.30000e+01	
			         2.47667	-2.20000e+01	
			         2.47833	-2.20000e+01	
			         2.48000	-2.10000e+01	
			         2.48167	-2.00000e+01	
			         2.48333	-2.00000e+01	
			         2.48500	-2.00000e+01	
			         2.48667	-2.00000e+01	
			         2.48833	-2.00000e+01	
			         2.49000	-2.00000e+01	
			         2.49167	-2.00000e+01	
			         2.49333	-2.00000e+01	
			         2.49500	-2.00000e+01	
			         2.49667	-2.10000e+01	
			         2.49833	-2.10000e+01	
			         2.50000	-2.20000e+01	
			         2.50167	-2.30000e+01	
			         2.50333	-2.40000e+01	
			         2.50500	-2.50000e+01	
			         2.50667	-2.60000e+01	
			         2.50833	-2.60000e+01	
			         2.51000	-2.70000e+01	
			         2.51167	-2.70000e+01	
			         2.51333	-2.60000e+01	
			         2.51500	-2.60000e+01	
			         2.51667	-2.40000e+01	
			         2.51833	-2.30000e+01	
			         2.52000	-2.00000e+01	
			         2.52167	-1.80000e+01	
			         2.52333	-1.50000e+01	
			         2.52500	-1.20000e+01	
			         2.52667	-9.00000e+00	
			         2.52833	-6.00000e+00	
			         2.53000	-3.00000e+00	
			         2.53167	-1.00000e+00	
			         2.53333	1.00000e+00	
			         2.53500	3.00000e+00	
			         2.53667	5.00000e+00	
			         2.53833	6.00000e+00	
			         2.54000	7.00000e+00	
			         2.54167	8.00000e+00	
			         2.54333	8.00000e+00	
			         2.54500	8.00000e+00	
			         2.54667	8.00000e+00	
			         2.54833	8.00000e+00	
			         2.55000	8.00000e+00	
			         2.55167	9.00000e+00	
			         2.55333	9.00000e+00	
			         2.55500	9.00000e+00	
			         2.55667	1.00000e+01	
			         2.55833	1.00000e+01	
			         2.56000	1.10000e+01	
			         2.56167	1.20000e+01	
			         2.56333	1.30000e+01	
			         2.56500	1.40000e+01	
			         2.56667	1.60000e+01	
			         2.56833	1.70000e+01	
			         2.57000	1.80000e+01	
			         2.57167	2.00000e+01	
			         2.57333	2.10000e+01	
			         2.57500	2.30000e+01	
			         2.57667	2.40000e+01	
			         2.57833	2.50000e+01	
			         2.58000	2.70000e+01	
			         2.58167	2.80000e+01	
			         2.58333	2.90000e+01	
			         2.58500	3.10000e+01	
			         2.58667	3.20000e+01	
			         2.58833	3.40000e+01	
			         2.59000	3.50000e+01	
			         2.59167	3.60000e+01	
			         2.59333	3.70000e+01	
			         2.59500	3.80000e+01	
			         2.59667	3.90000e+01	
			         2.59833	4.00000e+01	
			         2.60000	4.00000e+01	
			         2.60167	4.00000e+01	
			         2.60333	3.90000e+01	
			         2.60500	3.80000e+01	
			         2.60667	3.70000e+01	
			         2.60833	3.60000e+01	
			         2.61000	3.50000e+01	
			         2.61167	3.30000e+01	
			         2.61333	3.10000e+01	
			         2.61500	3.00000e+01	
			         2.61667	2.80000e+01	
			         2.61833	2.60000e+01	
			         2.62000	2.50000e+01	
			         2.62167	2.40000e+01	
			         2.62333	2.30000e+01	
			         2.62500	2.20000e+01	
			         2.62667	2.10000e+01	
			         2.62833	2.00000e+01	
			         2.63000	1.90000e+01	
			         2.63167	1.80000e+01	
			         2.63333	1.80000e+01	
			         2.63500	1.70000e+01	
			         2.63667	1.50000e+01	
			         2.63833	1.40000e+01	
			         2.64000	1.30000e+01	
			         2.64167	1.10000e+01	
			         2.64333	9.00000e+00	
			         2.64500	7.00000e+00	
			         2.64667	6.00000e+00	
			         2.64833	4.00000e+00	
			         2.65000	2.00000e+00	
			         2.65167	0.00000e+00	
			         2.65333	-1.00000e+00	
			         2.65500	-3.00000e+00	
			         2.65667	-4.00000e+00	
			         2.65833	-5.00000e+00	
			         2.66000	-6.00000e+00	
			         2.66167	-7.00000e+00	
			         2.66333	-7.00000e+00	
			         2.66500	-8.00000e+00	
			         2.66667	-8.00000e+00	
			         2.66833	-8.00000e+00	
			         2.67000	-8.00000e+00	
			         2.67167	-8.00000e+00	
			         2.67333	-7.00000e+00	
			         2.67500	-7.00000e+00	
			         2.67667	-7.00000e+00	
			         2.67833	-7.00000e+00	
			         2.68000	-7.00000e+00	
			         2.68167	-7.00000e+00	
			         2.68333	-7.00000e+00	
			         2.68500	-7.00000e+00	
			         2.68667	-8.00000e+00	
			         2.68833	-8.00000e+00	
			         2.69000	-8.00000e+00	
			         2.69167	-9.00000e+00	
			         2.69333	-9.00000e+00	
			         2.69500	-9.00000e+00	
			         2.69667	-1.00000e+01	
			         2.69833	-1.00000e+01	
			         2.70000	-1.00000e+01	
			         2.70167	-1.00000e+01	
			         2.70333	-1.00000e+01	
			         2.70500	-1.00000e+01	
			         2.70667	-1.00000e+01	
			         2.70833	-1.00000e+01	
			         2.71000	-1.00000e+01	
			         2.71167	-1.00000e+01	
			         2.71333	-1.00000e+01	
			         2.71500	-1.00000e+01	
			         2.71667	-1.00000e+01	
			         2.71833	-1.00000e+01	
			         2.72000	-1.00000e+01	
			         2.72167	-1.00000e+01	
			         2.72333	-1.00000e+01	
			         2.72500	-1.00000e+01	
			         2.72667	-1.00000e+01	
			         2.72833	-9.00000e+00	
			         2.73000	-9.00000e+00	
			         2.73167	-9.00000e+00	
			         2.73333	-9.00000e+00	
			         2.73500	-9.00000e+00	
			         2.73667	-9.00000e+00	
			         2.73833	-9.00000e+00	
			         2.74000	-1.00000e+01	
			         2.74167	-1.00000e+01	
			         2.74333	-1.00000e+01	
			         2.74500	-1.10000e+01	
			         2.74667	-1.20000e+01	
			         2.74833	-1.20000e+01	
			         2.75000	-1.30000e+01	
			         2.75167	-1.30000e+01	
			         2.75333	-1.40000e+01	
			         2.75500	-1.40000e+01	
			         2.75667	-1.40000e+01	
			         2.75833	-1.40000e+01	
			         2.76000	-1.30000e+01	
			         2.76167	-1.30000e+01	
			         2.76333	-1.10000e+01	
			         2.76500	-1.00000e+01	
			         2.76667	-9.00000e+00	
			         2.76833	-7.00000e+00	
			         2.77000	-6.00000e+00	
			         2.77167	-5.00000e+00	
			         2.77333	-4.00000e+00	
			         2.77500	-3.00000e+00	
			         2.77667	-2.00000e+00	
			         2.77833	-2.00000e+00	
			         2.78000	-2.00000e+00	
			         2.78167	-2.00000e+00	
			         2.78333	-2.00000e+00	
			         2.78500	-2.00000e+00	
			         2.78667	-3.00000e+00	
			         2.78833	-3.00000e+00	
			         2.79000	-4.00000e+00	
			         2.79167	-4.00000e+00	
			         2.79333	-5.00000e+00	
			         2.79500	-5.00000e+00	
			         2.79667	-6.00000e+00	
			         2.79833	-6.00000e+00	
			         2.80000	-7.00000e+00	
			         2.80167	-8.00000e+00	
			         2.80333	-8.00000e+00	
			         2.80500	-9.00000e+00	
			         2.80667	-1.00000e+01	
			         2.80833	-1.00000e+01	
			         2.81000	-1.10000e+01	
			         2.81167	-1.10000e+01	
			         2.81333	-1.10000e+01	
			         2.81500	-1.20000e+01	
			         2.81667	-1.20000e+01	
			         2.81833	-1.10000e+01	
			         2.82000	-1.10000e+01	
			         2.82167	-1.10000e+01	
			         2.82333	-1.00000e+01	
			         2.82500	-1.00000e+01	
			         2.82667	-9.00000e+00	
			         2.82833	-9.00000e+00	
			         2.83000	-8.00000e+00	
			         2.83167	-8.00000e+00	
			         2.83333	-7.00000e+00	
			         2.83500	-6.00000e+00	
			         2.83667	-6.00000e+00	
			         2.83833	-5.00000e+00	
			         2.84000	-5.00000e+00	
			         2.84167	-5.00000e+00	
			         2.84333	-5.00000e+00	
			         2.84500	-5.00000e+00	
			         2.84667	-5.00000e+00	
			         2.84833	-5.00000e+00	
			         2.85000	-5.00000e+00	
			         2.85167	-5.00000e+00	
			         2.85333	-6.00000e+00	
			         2.85500	-6.00000e+00	
			         2.85667	-7.00000e+00	
			         2.85833	-7.00000e+00	
			         2.86000	-8.00000e+00	
			         2.86167	-9.00000e+00	
			         2.86333	-9.00000e+00	
			         2.86500	-9.00000e+00	
			         2.86667	-1.00000e+01	
			         2.86833	-1.00000e+01	
			         2.87000	-1.00000e+01	
			         2.87167	-1.00000e+01	
			         2.87333	-1.00000e+01	
			         2.87500	-1.00000e+01	
			         2.87667	-9.00000e+00	
			         2.87833	-9.00000e+00	
			         2.88000	-9.00000e+00	
			         2.88167	-8.00000e+00	
			         2.88333	-8.00000e+00	
			         2.88500	-7.00000e+00	
			         2.88667	-7.00000e+00	
			         2.88833	-6.00000e+00	
			         2.89000	-6.00000e+00	
			         2.89167	-6.00000e+00	
			         2.89333	-5.00000e+00	
			         2.89500	-5.00000e+00	
			         2.89667	-5.00000e+00	
			         2.89833	-5.00000e+00	
			         2.90000	-5.00000e+00	
			         2.90167	-5.00000e+00	
			         2.90333	-6.00000e+00	
			         2.90500	-6.00000e+00	
			         2.90667	-7.00000e+00	
			         2.90833	-7.00000e+00	
			         2.91000	-7.00000e+00	
			         2.91167	-8.00000e+00	
			         2.91333	-8.00000e+00	
			         2.91500	-9.00000e+00	
			         2.91667	-9.00000e+00	
			         2.91833	-1.00000e+01	
			         2.92000	-1.00000e+01	
			         2.92167	-1.10000e+01	
			         2.92333	-1.20000e+01	
			         2.92500	-1.20000e+01	
			         2.92667	-1.30000e+01	
			         2.92833	-1.30000e+01	
			         2.93000	-1.30000e+01	
			         2.93167	-1.40000e+01	
			         2.93333	-1.40000e+01	
			         2.93500	-1.40000e+01	
			         2.93667	-1.40000e+01	
			         2.93833	-1.40000e+01	
			         2.94000	-1.40000e+01	
			         2.94167	-1.30000e+01	
			         2.94333	-1.30000e+01	
			         2.94500	-1.20000e+01	
			         2.94667	-1.10000e+01	
			         2.94833	-1.10000e+01	
			         2.95000	-1.00000e+01	
			         2.95167	-1.00000e+01	
			         2.95333	-9.00000e+00	
			         2.95500	-9.00000e+00	
			         2.95667	-8.00000e+00	
			         2.95833	-8.00000e+00	
			         2.96000	-8.00000e+00	
			         2.96167	-9.00000e+00	
			         2.96333	-9.00000e+00	
			         2.96500	-1.00000e+01	
			         2.96667	-1.00000e+01	
			         2.96833	-1.10000e+01	
			         2.97000	-1.10000e+01	
			         2.97167	-1.10000e+01	
			         2.97333	-1.10000e+01	
			         2.97500	-1.20000e+01	
			         2.97667	-1.10000e+01	
			         2.97833	-1.10000e+01	
			         2.98000	-1.00000e+01	
			         2.98167	-9.00000e+00	
			         2.98333	-8.00000e+00	
			         2.98500	-7.00000e+00	
			         2.98667	-6.00000e+00	
			         2.98833	-5.00000e+00	
			         2.99000	-4.00000e+00	
			         2.99167	-3.00000e+00	
			         2.99333	-2.00000e+00	
			         2.99500	-1.00000e+00	
			         2.99667	-1.00000e+00	
			         2.99833	-1.00000e+00	
			         3.00000	-1.00000e+00	
			         3.00167	-1.00000e+00	
			         3.00333	-1.00000e+00	
			         3.00500	-2.00000e+00	
			         3.00667	-3.00000e+00	
			         3.00833	-4.00000e+00	
			         3.01000	-4.00000e+00	
			         3.01167	-5.00000e+00	
			         3.01333	-6.00000e+00	
			         3.01500	-6.00000e+00	
			         3.01667	-7.00000e+00	
			         3.01833	-8.00000e+00	
			         3.02000	-8.00000e+00	
			         3.02167	-8.00000e+00	
			         3.02333	-8.00000e+00	
			         3.02500	-8.00000e+00	
			         3.02667	-7.00000e+00	
			         3.02833	-6.00000e+00	
			         3.03000	-6.00000e+00	
			         3.03167	-5.00000e+00	
			         3.03333	-4.00000e+00	
			         3.03500	-3.00000e+00	
			         3.03667	-2.00000e+00	
			         3.03833	-1.00000e+00	
			         3.04000	0.00000e+00	
			         3.04167	1.00000e+00	
			         3.04333	2.00000e+00	
			         3.04500	2.00000e+00	
			         3.04667	3.00000e+00	
			         3.04833	3.00000e+00	
			         3.05000	3.00000e+00	
			         3.05167	3.00000e+00	
			         3.05333	3.00000e+00	
			         3.05500	3.00000e+00	
			         3.05667	3.00000e+00	
			         3.05833	2.00000e+00	
			         3.06000	2.00000e+00	
			         3.06167	1.00000e+00	
			         3.06333	0.00000e+00	
			         3.06500	0.00000e+00	
			         3.06667	-1.00000e+00	
			         3.06833	-2.00000e+00	
			         3.07000	-2.00000e+00	
			         3.07167	-3.00000e+00	
			         3.07333	-3.00000e+00	
			         3.07500	-4.00000e+00	
			         3.07667	-4.00000e+00	
			         3.07833	-4.00000e+00	
			         3.08000	-4.00000e+00	
			         3.08167	-4.00000e+00	
			         3.08333	-4.00000e+00	
			         3.08500	-3.00000e+00	
			         3.08667	-3.00000e+00	
			         3.08833	-2.00000e+00	
			         3.09000	-2.00000e+00	
			         3.09167	-2.00000e+00	
			         3.09333	-1.00000e+00	
			         3.09500	-1.00000e+00	
			         3.09667	0.00000e+00	
			         3.09833	0.00000e+00	
			         3.10000	0.00000e+00	
			         3.10167	0.00000e+00	
			         3.10333	0.00000e+00	
			         3.10500	0.00000e+00	
			         3.10667	0.00000e+00	
			         3.10833	0.00000e+00	
			         3.11000	0.00000e+00	
			         3.11167	0.00000e+00	
			         3.11333	0.00000e+00	
			         3.11500	0.00000e+00	
			         3.11667	0.00000e+00	
			         3.11833	0.00000e+00	
			         3.12000	0.00000e+00	
			         3.12167	0.00000e+00	
			         3.12333	0.00000e+00	
			         3.12500	0.00000e+00	
			         3.12667	0.00000e+00	
			         3.12833	0.00000e+00	
			         3.13000	0.00000e+00	
			         3.13167	0.00000e+00	
			         3.13333	1.00000e+00	
			         3.13500	0.00000e+00	
			         3.13667	0.00000e+00	
			         3.13833	0.00000e+00	
			         3.14000	0.00000e+00	
			         3.14167	0.00000e+00	
			         3.14333	0.00000e+00	
			         3.14500	0.00000e+00	
			         3.14667	0.00000e+00	
			         3.14833	0.00000e+00	
			         3.15000	-1.00000e+00	
			         3.15167	-1.00000e+00	
			         3.15333	-1.00000e+00	
			         3.15500	-1.00000e+00	
			         3.15667	-2.00000e+00	
			         3.15833	-2.00000e+00	
			         3.16000	-2.00000e+00	
			         3.16167	-3.00000e+00	
			         3.16333	-3.00000e+00	
			         3.16500	-3.00000e+00	
			         3.16667	-4.00000e+00	
			         3.16833	-4.00000e+00	
			         3.17000	-4.00000e+00	
			         3.17167	-4.00000e+00	
			         3.17333	-4.00000e+00	
			         3.17500	-3.00000e+00	
			         3.17667	-3.00000e+00	
			         3.17833	-3.00000e+00	
			         3.18000	-2.00000e+00	
			         3.18167	-2.00000e+00	
			         3.18333	-1.00000e+00	
			         3.18500	-1.00000e+00	
			         3.18667	0.00000e+00	
			         3.18833	0.00000e+00	
			         3.19000	1.00000e+00	
			         3.19167	1.00000e+00	
			         3.19333	1.00000e+00	
			         3.19500	1.00000e+00	
			         3.19667	1.00000e+00	
			         3.19833	2.00000e+00	
			         3.20000	2.00000e+00	
			         3.20167	2.00000e+00	
			         3.20333	3.00000e+00	
			         3.20500	3.00000e+00	
			         3.20667	4.00000e+00	
			         3.20833	5.00000e+00	
			         3.21000	5.00000e+00	
			         3.21167	6.00000e+00	
			         3.21333	6.00000e+00	
			         3.21500	6.00000e+00	
			         3.21667	6.00000e+00	
			         3.21833	6.00000e+00	
			         3.22000	6.00000e+00	
			         3.22167	6.00000e+00	
			         3.22333	6.00000e+00	
			         3.22500	6.00000e+00	
			         3.22667	5.00000e+00	
			         3.22833	5.00000e+00	
			         3.23000	6.00000e+00	
			         3.23167	6.00000e+00	
			         3.23333	7.00000e+00	
			         3.23500	8.00000e+00	
			         3.23667	9.00000e+00	
			         3.23833	1.10000e+01	
			         3.24000	1.20000e+01	
			         3.24167	1.30000e+01	
			         3.24333	1.40000e+01	
			         3.24500	1.50000e+01	
			         3.24667	1.60000e+01	
			         3.24833	1.60000e+01	
			         3.25000	1.60000e+01	
			         3.25167	1.60000e+01	
			         3.25333	1.50000e+01	
			         3.25500	1.40000e+01	
			         3.25667	1.30000e+01	
			         3.25833	1.20000e+01	
			         3.26000	1.00000e+01	
			         3.26167	9.00000e+00	
			         3.26333	7.00000e+00	
			         3.26500	6.00000e+00	
			         3.26667	4.00000e+00	
			         3.26833	3.00000e+00	
			         3.27000	2.00000e+00	
			         3.27167	1.00000e+00	
			         3.27333	0.00000e+00	
			         3.27500	0.00000e+00	
			         3.27667	-1.00000e+00	
			         3.27833	-2.00000e+00	
			         3.28000	-3.00000e+00	
			         3.28167	-4.00000e+00	
			         3.28333	-5.00000e+00	
			         3.28500	-6.00000e+00	
			         3.28667	-7.00000e+00	
			         3.28833	-8.00000e+00	
			         3.29000	-1.00000e+01	
			         3.29167	-1.10000e+01	
			         3.29333	-1.20000e+01	
			         3.29500	-1.30000e+01	
			         3.29667	-1.30000e+01	
			         3.29833	-1.40000e+01	
			         3.30000	-1.40000e+01	
			         3.30167	-1.40000e+01	
			         3.30333	-1.40000e+01	
			         3.30500	-1.40000e+01	
			         3.30667	-1.30000e+01	
			         3.30833	-1.30000e+01	
			         3.31000	-1.20000e+01	
			         3.31167	-1.10000e+01	
			         3.31333	-1.10000e+01	
			         3.31500	-1.00000e+01	
			         3.31667	-9.00000e+00	
			         3.31833	-9.00000e+00	
			         3.32000	-8.00000e+00	
			         3.32167	-8.00000e+00	
			         3.32333	-8.00000e+00	
			         3.32500	-8.00000e+00	
			         3.32667	-8.00000e+00	
			         3.32833	-8.00000e+00	
			         3.33000	-9.00000e+00	
			         3.33167	-9.00000e+00	
			         3.33333	-9.00000e+00	
			         3.33500	-1.00000e+01	
			         3.33667	-1.00000e+01	
			         3.33833	-1.00000e+01	
			         3.34000	-1.10000e+01	
			         3.34167	-1.10000e+01	
			         3.34333	-1.00000e+01	
			         3.34500	-1.00000e+01	
			         3.34667	-1.00000e+01	
			         3.34833	-9.00000e+00	
			         3.35000	-9.00000e+00	
			         3.35167	-8.00000e+00	
			         3.35333	-8.00000e+00	
			         3.35500	-8.00000e+00	
			         3.35667	-8.00000e+00	
			         3.35833	-8.00000e+00	
			         3.36000	-7.00000e+00	
			         3.36167	-4.00000e+00	
			         3.36333	0.00000e+00	
			         3.36500	7.00000e+00	
			         3.36667	1.70000e+01	
			         3.36833	3.10000e+01	
			         3.37000	4.90000e+01	
			         3.37167	7.20000e+01	
			         3.37333	1.00000e+02	
			         3.37500	1.32000e+02	
			         3.37667	1.68000e+02	
			         3.37833	2.08000e+02	
			         3.38000	2.50000e+02	
			         3.38167	2.94000e+02	
			         3.38333	3.38000e+02	
			         3.38500	3.81000e+02	
			         3.38667	4.20000e+02	
			         3.38833	4.55000e+02	
			         3.39000	4.83000e+02	
			         3.39167	5.02000e+02	
			         3.39333	5.11000e+02	
			         3.39500	5.09000e+02	
			         3.39667	4.96000e+02	
			         3.39833	4.71000e+02	
			         3.40000	4.35000e+02	
			         3.40167	3.90000e+02	
			         3.40333	3.38000e+02	
			         3.40500	2.79000e+02	
			         3.40667	2.16000e+02	
			         3.40833	1.51000e+02	
			         3.41000	8.60000e+01	
			         3.41167	2.40000e+01	
			         3.41333	-3.20000e+01	
			         3.41500	-8.30000e+01	
			         3.41667	-1.25000e+02	
			         3.41833	-1.59000e+02	
			         3.42000	-1.85000e+02	
			         3.42167	-2.03000e+02	
			         3.42333	-2.15000e+02	
			         3.42500	-2.20000e+02	
			         3.42667	-2.20000e+02	
			         3.42833	-2.16000e+02	
			         3.43000	-2.09000e+02	
