Velocity (TVI), in cm/s

Time (s) :	Trace 1 : 		Ecg : 		
0.01152   	-4.38641e+00		         0.00000	-1.00000e+00	
0.01790   	-4.56962e+00		         0.00167	0.00000e+00	
0.02428   	-4.67821e+00		         0.00333	1.00000e+00	
0.03065   	-4.96043e+00		         0.00500	2.00000e+00	
0.03702   	-4.55198e+00		         0.00667	4.00000e+00	
0.04340   	-4.49357e+00		         0.00833	6.00000e+00	
0.04977   	-3.55940e+00		         0.01000	8.00000e+00	
0.05615   	-2.95446e+00		         0.01167	1.00000e+01	
0.06252   	-3.18387e+00		         0.01333	1.30000e+01	
0.06890   	-3.61212e+00		         0.01500	1.50000e+01	
0.07527   	-4.21236e+00		         0.01667	1.80000e+01	
0.08165   	-5.09030e+00		         0.01833	2.20000e+01	
0.08802   	-5.40046e+00		         0.02000	2.50000e+01	
0.09440   	-4.32825e+00		         0.02167	2.80000e+01	
0.10078   	-3.55167e+00		         0.02333	3.10000e+01	
0.10715   	-1.88704e+00		         0.02500	3.30000e+01	
0.11352   	-1.52230e-02		         0.02667	3.50000e+01	
0.11989   	1.62115e+00		         0.02833	3.60000e+01	
0.12627   	2.94385e+00		         0.03000	3.70000e+01	
0.13264   	4.05994e+00		         0.03167	3.70000e+01	
0.13902   	4.54031e+00		         0.03333	3.60000e+01	
0.14539   	4.52165e+00		         0.03500	3.50000e+01	
0.15177   	4.54496e+00		         0.03667	3.30000e+01	
0.15814   	4.56336e+00		         0.03833	3.00000e+01	
0.16452   	4.60230e+00		         0.04000	2.70000e+01	
0.17089   	4.64044e+00		         0.04167	2.30000e+01	
0.17727   	4.68147e+00		         0.04333	1.90000e+01	
0.18364   	4.69301e+00		         0.04500	1.40000e+01	
0.19002   	4.72223e+00		         0.04667	9.00000e+00	
0.19639   	4.75227e+00		         0.04833	4.00000e+00	
0.20276   	4.79631e+00		         0.05000	-2.00000e+00	
0.20914   	4.81415e+00		         0.05167	-8.00000e+00	
0.21551   	4.79516e+00		         0.05333	-1.40000e+01	
0.22189   	4.76577e+00		         0.05500	-2.00000e+01	
0.22827   	4.72360e+00		         0.05667	-2.60000e+01	
0.23464   	4.70519e+00		         0.05833	-3.20000e+01	
0.24101   	4.69167e+00		         0.06000	-3.80000e+01	
0.24739   	4.62924e+00		         0.06167	-4.20000e+01	
0.25376   	4.62276e+00		         0.06333	-4.60000e+01	
0.26014   	4.50253e+00		         0.06500	-4.90000e+01	
0.26651   	4.39206e+00		         0.06667	-5.10000e+01	
0.27288   	4.27625e+00		         0.06833	-5.30000e+01	
0.27926   	4.16034e+00		         0.07000	-5.30000e+01	
0.28564   	3.95625e+00		         0.07167	-5.20000e+01	
0.29201   	3.84794e+00		         0.07333	-5.00000e+01	
0.29838   	3.66470e+00		         0.07500	-4.80000e+01	
0.30476   	3.48757e+00		         0.07667	-4.50000e+01	
0.31114   	3.38954e+00		         0.07833	-4.10000e+01	
0.31751   	3.24325e+00		         0.08000	-3.80000e+01	
0.32388   	3.07340e+00		         0.08167	-3.40000e+01	
0.33026   	2.91669e+00		         0.08333	-3.00000e+01	
0.33663   	2.76034e+00		         0.08500	-2.60000e+01	
0.34301   	2.57392e+00		         0.08667	-2.20000e+01	
0.34938   	2.37337e+00		         0.08833	-1.80000e+01	
0.35576   	2.18036e+00		         0.09000	-1.40000e+01	
0.36213   	2.00102e+00		         0.09167	-1.10000e+01	
0.36851   	1.80961e+00		         0.09333	-8.00000e+00	
0.37488   	1.60692e+00		         0.09500	-5.00000e+00	
0.38125   	1.42743e+00		         0.09667	-3.00000e+00	
0.38763   	1.17374e+00		         0.09833	-1.00000e+00	
0.39401   	8.24501e-01		         0.10000	1.00000e+00	
0.40038   	3.37943e-01		         0.10167	3.00000e+00	
0.40676   	-3.30651e-01		         0.10333	4.00000e+00	
0.41313   	-1.11719e+00		         0.10500	5.00000e+00	
0.41950   	-1.92979e+00		         0.10667	5.00000e+00	
0.42588   	-2.43628e+00		         0.10833	6.00000e+00	
0.43225   	-2.35651e+00		         0.11000	6.00000e+00	
0.43863   	-1.83306e+00		         0.11167	6.00000e+00	
0.44500   	-1.07145e+00		         0.11333	6.00000e+00	
0.45138   	-3.57021e-02		         0.11500	6.00000e+00	
0.45775   	9.57566e-01		         0.11667	6.00000e+00	
0.46413   	1.69926e+00		         0.11833	6.00000e+00	
0.47051   	2.39270e+00		         0.12000	7.00000e+00	
0.47688   	3.01420e+00		         0.12167	7.00000e+00	
0.48325   	3.51468e+00		         0.12333	7.00000e+00	
0.48963   	3.79512e+00		         0.12500	7.00000e+00	
0.49600   	3.70027e+00		         0.12667	7.00000e+00	
0.50237   	3.52164e+00		         0.12833	7.00000e+00	
0.50875   	3.25913e+00		         0.13000	7.00000e+00	
0.51513   	2.47269e+00		         0.13167	7.00000e+00	
0.52150   	1.43101e+00		         0.13333	7.00000e+00	
0.52787   	3.89402e-01		         0.13500	7.00000e+00	
0.53425   	-7.90009e-01		         0.13667	6.00000e+00	
0.54062   	-2.13918e+00		         0.13833	6.00000e+00	
0.54700   	-2.96335e+00		         0.14000	6.00000e+00	
0.55337   	-3.42049e+00		         0.14167	6.00000e+00	
0.55975   	-3.68737e+00		         0.14333	6.00000e+00	
0.56612   	-3.99308e+00		         0.14500	6.00000e+00	
0.57250   	-4.12794e+00		         0.14667	6.00000e+00	
0.57887   	-4.15740e+00		         0.14833	6.00000e+00	
0.58524   	-4.21488e+00		         0.15000	6.00000e+00	
0.59162   	-4.10635e+00		         0.15167	6.00000e+00	
0.59799   	-3.87099e+00		         0.15333	6.00000e+00	
0.60437   	-3.46493e+00		         0.15500	6.00000e+00	
0.61074   	-3.17247e+00		         0.15667	6.00000e+00	
0.61712   	-2.87061e+00		         0.15833	6.00000e+00	
0.62349   	-2.65408e+00		         0.16000	6.00000e+00	
0.62987   	-2.51802e+00		         0.16167	6.00000e+00	
0.63624   	-2.36524e+00		         0.16333	6.00000e+00	
0.64262   	-2.23294e+00		         0.16500	6.00000e+00	
0.64899   	-2.06138e+00		         0.16667	6.00000e+00	
0.65537   	-1.97133e+00		         0.16833	6.00000e+00	
0.66174   	-1.81650e+00		         0.17000	6.00000e+00	
0.66811   	-1.64609e+00		         0.17167	6.00000e+00	
0.67449   	-1.50557e+00		         0.17333	6.00000e+00	
0.68086   	-1.43022e+00		         0.17500	6.00000e+00	
0.68724   	-1.31391e+00		         0.17667	7.00000e+00	
0.69362   	-1.21222e+00		         0.17833	7.00000e+00	
0.69999   	-1.15900e+00		         0.18000	7.00000e+00	
0.70636   	-1.05763e+00		         0.18167	7.00000e+00	
0.71274   	-9.08475e-01		         0.18333	7.00000e+00	
0.71911   	-7.32299e-01		         0.18500	8.00000e+00	
0.72549   	-5.79783e-01		         0.18667	8.00000e+00	
0.73186   	-4.49006e-01		         0.18833	8.00000e+00	
0.73824   	-3.47796e-01		         0.19000	9.00000e+00	
0.74461   	-2.92312e-01		         0.19167	9.00000e+00	
0.75099   	-2.51629e-01		         0.19333	9.00000e+00	
0.75736   	-2.25452e-01		         0.19500	9.00000e+00	
0.76373   	-2.42787e-01		         0.19667	1.00000e+01	
0.77011   	-2.53074e-01		         0.19833	1.00000e+01	
0.77649   	-2.77272e-01		         0.20000	1.00000e+01	
0.78286   	-3.27404e-01		         0.20167	1.00000e+01	
0.78923   	-3.62604e-01		         0.20333	1.00000e+01	
0.79561   	-3.86679e-01		         0.20500	1.00000e+01	
0.80198   	-4.27328e-01		         0.20667	1.00000e+01	
0.80836   	-4.75887e-01		         0.20833	1.00000e+01	
0.81473   	-4.97683e-01		         0.21000	9.00000e+00	
0.82111   	-5.29770e-01		         0.21167	9.00000e+00	
0.82748   	-5.41470e-01		         0.21333	9.00000e+00	
0.83386   	-5.27259e-01		         0.21500	8.00000e+00	
0.84023   	-4.93061e-01		         0.21667	8.00000e+00	
0.84661   	-4.71407e-01		         0.21833	8.00000e+00	
0.85298   	-4.45215e-01		         0.22000	7.00000e+00	
0.85936   	-4.29400e-01		         0.22167	7.00000e+00	
0.86573   	-4.14054e-01		         0.22333	7.00000e+00	
0.87211   	-3.98069e-01		         0.22500	7.00000e+00	
0.87848   	-3.92563e-01		         0.22667	6.00000e+00	
0.88485   	-3.58329e-01		         0.22833	6.00000e+00	
0.89123   	-3.33694e-01		         0.23000	6.00000e+00	
0.89760   	-3.31490e-01		         0.23167	6.00000e+00	
0.90398   	-3.55724e-01		         0.23333	6.00000e+00	
0.91035   	-4.40873e-01		         0.23500	6.00000e+00	
0.91673   	-6.25041e-01		         0.23667	6.00000e+00	
0.92310   	-8.55856e-01		         0.23833	6.00000e+00	
0.92948   	-1.24198e+00		         0.24000	7.00000e+00	
0.93585   	-1.99797e+00		         0.24167	7.00000e+00	
0.94222   	-2.84223e+00		         0.24333	7.00000e+00	
0.94860   	-3.86977e+00		         0.24500	7.00000e+00	
0.95498   	-4.95613e+00		         0.24667	7.00000e+00	
0.96135   	-6.05559e+00		         0.24833	8.00000e+00	
0.96772   	-6.71565e+00		         0.25000	8.00000e+00	
0.97410   	-7.12363e+00		         0.25167	8.00000e+00	
0.98047   	-7.27373e+00		         0.25333	8.00000e+00	
0.98685   	-7.21606e+00		         0.25500	9.00000e+00	
0.99323   	-6.90204e+00		         0.25667	9.00000e+00	
0.99960   	-6.57052e+00		         0.25833	9.00000e+00	
1.00598   	-6.21761e+00		         0.26000	9.00000e+00	
1.01235   	-5.76078e+00		         0.26167	9.00000e+00	
1.01873   	-5.26220e+00		         0.26333	9.00000e+00	
1.02510   	-4.71559e+00		         0.26500	1.00000e+01	
1.03147   	-4.19650e+00		         0.26667	1.00000e+01	
1.03785   	-3.63500e+00		         0.26833	1.00000e+01	
1.04423   	-3.08935e+00		         0.27000	1.00000e+01	
1.05060   	-2.49389e+00		         0.27167	1.00000e+01	
1.05697   	-2.07852e+00		         0.27333	1.00000e+01	
1.06334   	-1.39131e+00		         0.27500	1.00000e+01	
1.06972   	-5.89134e-01		         0.27667	1.00000e+01	
1.07610   	-7.21881e-02		         0.27833	1.00000e+01	
1.08247   	-3.61855e-01		         0.28000	1.10000e+01	
1.08884   	-8.45063e-01		         0.28167	1.10000e+01	
1.09522   	-1.75445e+00		         0.28333	1.10000e+01	
1.10160   	-3.16236e+00		         0.28500	1.10000e+01	
1.10797   	-3.92745e+00		         0.28667	1.20000e+01	
1.11434   	-3.90505e+00		         0.28833	1.20000e+01	
1.12072   	-3.40413e+00		         0.29000	1.20000e+01	
1.12709   	-2.27734e+00		         0.29167	1.20000e+01	
1.13348   	-5.13140e-01		         0.29333	1.20000e+01	
1.13984   	1.04844e+00		         0.29500	1.20000e+01	
1.14621   	2.45142e+00		         0.29667	1.20000e+01	
1.15259   	3.66163e+00		         0.29833	1.20000e+01	
1.15897   	4.42428e+00		         0.30000	1.10000e+01	
1.16534   	4.75202e+00		         0.30167	1.10000e+01	
1.17172   	4.79858e+00		         0.30333	1.10000e+01	
1.17809   	4.85695e+00		         0.30500	1.00000e+01	
1.18446   	4.84973e+00		         0.30667	1.00000e+01	
1.19084   	4.82468e+00		         0.30833	1.00000e+01	
1.19721   	4.84246e+00		         0.31000	9.00000e+00	
1.20359   	4.89423e+00		         0.31167	9.00000e+00	
1.20996   	4.88075e+00		         0.31333	8.00000e+00	
1.21634   	4.91340e+00		         0.31500	8.00000e+00	
1.22271   	4.93286e+00		         0.31667	8.00000e+00	
1.22909   	4.89504e+00		         0.31833	7.00000e+00	
1.23546   	4.88137e+00		         0.32000	7.00000e+00	
1.24184   	4.93210e+00		         0.32167	7.00000e+00	
1.24821   	4.92170e+00		         0.32333	6.00000e+00	
1.25459   	4.88753e+00		         0.32500	6.00000e+00	
1.26096   	4.89159e+00		         0.32667	6.00000e+00	
1.26734   	4.85547e+00		         0.32833	5.00000e+00	
1.27371   	4.78177e+00		         0.33000	5.00000e+00	
1.28008   	4.72440e+00		         0.33167	5.00000e+00	
1.28646   	4.61840e+00		         0.33333	5.00000e+00	
1.29283   	4.52715e+00		         0.33500	5.00000e+00	
1.29921   	4.41090e+00		         0.33667	5.00000e+00	
1.30559   	4.27704e+00		         0.33833	4.00000e+00	
1.31196   	4.13128e+00		         0.34000	4.00000e+00	
1.31833   	4.00289e+00		         0.34167	4.00000e+00	
1.32471   	3.82596e+00		         0.34333	4.00000e+00	
1.33108   	3.63842e+00		         0.34500	4.00000e+00	
1.33746   	3.48592e+00		         0.34667	4.00000e+00	
1.34383   	3.32521e+00		         0.34833	4.00000e+00	
1.35020   	3.14591e+00		         0.35000	3.00000e+00	
1.35658   	2.96349e+00		         0.35167	3.00000e+00	
1.36295   	2.82159e+00		         0.35333	3.00000e+00	
1.36933   	2.62627e+00		         0.35500	3.00000e+00	
1.37570   	2.43737e+00		         0.35667	2.00000e+00	
1.38208   	2.24812e+00		         0.35833	2.00000e+00	
1.38846   	2.06485e+00		         0.36000	2.00000e+00	
1.39483   	1.84989e+00		         0.36167	1.00000e+00	
1.40120   	1.65175e+00		         0.36333	1.00000e+00	
1.40758   	1.39668e+00		         0.36500	1.00000e+00	
1.41395   	1.07842e+00		         0.36667	1.00000e+00	
1.42033   	6.25491e-01		         0.36833	0.00000e+00	
1.42670   	3.06296e-02		         0.37000	0.00000e+00	
1.43308   	-7.37662e-01		         0.37167	0.00000e+00	
1.43945   	-1.52718e+00		         0.37333	0.00000e+00	
1.44582   	-1.96424e+00		         0.37500	0.00000e+00	
1.45220   	-1.92602e+00		         0.37667	-1.00000e+00	
1.45858   	-1.47679e+00		         0.37833	-1.00000e+00	
1.46495   	-8.14248e-01		         0.38000	-2.00000e+00	
1.47132   	8.38344e-02		         0.38167	-2.00000e+00	
1.47770   	8.91348e-01		         0.38333	-3.00000e+00	
1.48408   	1.53535e+00		         0.38500	-4.00000e+00	
1.49045   	2.07269e+00		         0.38667	-4.00000e+00	
1.49682   	2.67417e+00		         0.38833	-5.00000e+00	
1.50320   	3.04110e+00		         0.39000	-5.00000e+00	
1.50957   	3.30861e+00		         0.39167	-5.00000e+00	
1.51595   	3.46687e+00		         0.39333	-6.00000e+00	
1.52232   	3.20091e+00		         0.39500	-6.00000e+00	
1.52869   	2.82137e+00		         0.39667	-6.00000e+00	
1.53507   	2.21800e+00		         0.39833	-6.00000e+00	
1.54145   	1.47126e+00		         0.40000	-6.00000e+00	
1.54782   	8.17939e-01		         0.40167	-6.00000e+00	
1.55420   	-2.64677e-01		         0.40333	-6.00000e+00	
1.56057   	-1.35920e+00		         0.40500	-6.00000e+00	
1.56695   	-2.10297e+00		         0.40667	-6.00000e+00	
1.57332   	-2.92598e+00		         0.40833	-6.00000e+00	
1.57969   	-4.39466e+00		         0.41000	-6.00000e+00	
1.58607   	-4.56013e+00		         0.41167	-6.00000e+00	
1.59244   	-4.70396e+00		         0.41333	-6.00000e+00	
1.59882   	-4.77388e+00		         0.41500	-6.00000e+00	
1.60519   	-4.70204e+00		         0.41667	-6.00000e+00	
1.61157   	-4.07895e+00		         0.41833	-6.00000e+00	
1.61794   	-3.86495e+00		         0.42000	-6.00000e+00	
1.62432   	-3.52710e+00		         0.42167	-6.00000e+00	
1.63069   	-3.29010e+00		         0.42333	-6.00000e+00	
1.63707   	-2.97403e+00		         0.42500	-6.00000e+00	
1.64344   	-2.67058e+00		         0.42667	-6.00000e+00	
1.64982   	-2.53711e+00		         0.42833	-6.00000e+00	
1.65619   	-2.44545e+00		         0.43000	-6.00000e+00	
1.66256   	-2.27034e+00		         0.43167	-6.00000e+00	
1.66894   	-2.15480e+00		         0.43333	-6.00000e+00	
1.67531   	-2.07384e+00		         0.43500	-6.00000e+00	
1.68169   	-1.94065e+00		         0.43667	-6.00000e+00	
1.68806   	-1.83421e+00		         0.43833	-6.00000e+00	
1.69444   	-1.74632e+00		         0.44000	-6.00000e+00	
1.70081   	-1.61810e+00		         0.44167	-6.00000e+00	
1.70719   	-1.46647e+00		         0.44333	-6.00000e+00	
1.71356   	-1.29543e+00		         0.44500	-6.00000e+00	
1.71994   	-1.18251e+00		         0.44667	-6.00000e+00	
1.72631   	-1.03897e+00		         0.44833	-6.00000e+00	
1.73269   	-9.17753e-01		         0.45000	-6.00000e+00	
1.73906   	-7.66482e-01		         0.45167	-6.00000e+00	
1.74543   	-6.51429e-01		         0.45333	-5.00000e+00	
1.75181   	-5.04155e-01		         0.45500	-5.00000e+00	
1.75818   	-4.17672e-01		         0.45667	-5.00000e+00	
1.76456   	-3.26921e-01		         0.45833	-5.00000e+00	
1.77094   	-2.69066e-01		         0.46000	-5.00000e+00	
1.77757   	-2.49166e-01		         0.46167	-4.00000e+00	
1.78369   	-2.12672e-01		         0.46333	-4.00000e+00	
1.79006   	-2.06087e-01		         0.46500	-4.00000e+00	
1.79643   	-2.04171e-01		         0.46667	-4.00000e+00	
1.80281   	-2.10638e-01		         0.46833	-4.00000e+00	
1.80918   	-2.03747e-01		         0.47000	-4.00000e+00	
1.81556   	-2.27384e-01		         0.47167	-4.00000e+00	
1.82193   	-2.66079e-01		         0.47333	-4.00000e+00	
1.82830   	-3.23100e-01		         0.47500	-3.00000e+00	
1.83468   	-3.81789e-01		         0.47667	-3.00000e+00	
1.84105   	-4.36752e-01		         0.47833	-3.00000e+00	
1.84743   	-4.76620e-01		         0.48000	-3.00000e+00	
1.85380   	-4.91188e-01		         0.48167	-3.00000e+00	
1.86018   	-4.81209e-01		         0.48333	-3.00000e+00	
1.86656   	-4.73624e-01		         0.48500	-3.00000e+00	
1.87293   	-4.58974e-01		         0.48667	-3.00000e+00	
1.87930   	-4.54606e-01		         0.48833	-3.00000e+00	
1.88568   	-4.52869e-01		         0.49000	-3.00000e+00	
1.89205   	-4.62441e-01		         0.49167	-3.00000e+00	
1.89843   	-4.61038e-01		         0.49333	-3.00000e+00	
1.90480   	-4.26168e-01		         0.49500	-3.00000e+00	
1.91118   	-3.73801e-01		         0.49667	-3.00000e+00	
1.91755   	-3.08859e-01		         0.49833	-3.00000e+00	
1.92393   	-2.50058e-01		         0.50000	-3.00000e+00	
1.93030   	-2.08243e-01		         0.50167	-2.00000e+00	
1.93667   	-2.29197e-01		         0.50333	-2.00000e+00	
1.94335   	-3.21004e-01		         0.50500	-2.00000e+00	
1.94943   	-5.39623e-01		         0.50667	-1.00000e+00	
1.95580   	-7.67399e-01		         0.50833	-1.00000e+00	
1.96217   	-1.31954e+00		         0.51000	0.00000e+00	
1.96855   	-1.97251e+00		         0.51167	0.00000e+00	
1.97492   	-2.80195e+00		         0.51333	0.00000e+00	
1.98130   	-3.77761e+00		         0.51500	1.00000e+00	
1.98767   	-4.87251e+00		         0.51667	1.00000e+00	
1.99405   	-5.85852e+00		         0.51833	1.00000e+00	
2.00042   	-6.59031e+00		         0.52000	2.00000e+00	
2.00679   	-7.06663e+00		         0.52167	2.00000e+00	
2.01317   	-7.19776e+00		         0.52333	2.00000e+00	
2.01955   	-7.06499e+00		         0.52500	2.00000e+00	
2.02592   	-6.69030e+00		         0.52667	2.00000e+00	
2.03230   	-6.46558e+00		         0.52833	2.00000e+00	
2.03867   	-6.11264e+00		         0.53000	2.00000e+00	
2.04504   	-5.68963e+00		         0.53167	2.00000e+00	
2.05142   	-5.22845e+00		         0.53333	2.00000e+00	
2.05779   	-4.82012e+00		         0.53500	2.00000e+00	
2.06417   	-4.19694e+00		         0.53667	2.00000e+00	
2.07054   	-3.56731e+00		         0.53833	2.00000e+00	
2.07692   	-3.08784e+00		         0.54000	1.00000e+00	
2.08329   	-2.61945e+00		         0.54167	1.00000e+00	
2.08967   	-2.10123e+00		         0.54333	1.00000e+00	
2.09604   	-1.63251e+00		         0.54500	1.00000e+00	
2.10242   	-9.69514e-01		         0.54667	0.00000e+00	
2.10879   	-3.04007e-01		         0.54833	0.00000e+00	
2.11517   	-7.11499e-01		         0.55000	0.00000e+00	
2.12154   	-1.06601e+00		         0.55167	0.00000e+00	
2.12791   	-1.82913e+00		         0.55333	0.00000e+00	
2.13429   	-3.22800e+00		         0.55500	0.00000e+00	
2.14066   	-4.25748e+00		         0.55667	0.00000e+00	
2.14704   	-4.03739e+00		         0.55833	0.00000e+00	
2.15341   	-3.83936e+00		         0.56000	0.00000e+00	
2.15979   	-2.78952e+00		         0.56167	0.00000e+00	
2.16616   	-9.49440e-01		         0.56333	0.00000e+00	
2.17254   	7.06440e-01		         0.56500	1.00000e+00	
2.17891   	2.14946e+00		         0.56667	1.00000e+00	
2.18529   	3.52804e+00		         0.56833	1.00000e+00	
2.19166   	4.33741e+00		         0.57000	1.00000e+00	
2.19804   	4.66808e+00		         0.57167	1.00000e+00	
2.20441   	4.78793e+00		         0.57333	1.00000e+00	
2.21079   	4.74695e+00		         0.57500	1.00000e+00	
2.21716   	4.80685e+00		         0.57667	1.00000e+00	
2.22353   	4.81204e+00		         0.57833	0.00000e+00	
2.22991   	4.86468e+00		         0.58000	0.00000e+00	
2.23628   	4.94905e+00		         0.58167	0.00000e+00	
2.24266   	5.01386e+00		         0.58333	0.00000e+00	
2.24904   	5.02582e+00		         0.58500	-1.00000e+00	
2.25541   	5.02134e+00		         0.58667	-1.00000e+00	
2.26178   	4.98165e+00		         0.58833	-1.00000e+00	
2.26816   	4.94044e+00		         0.59000	-1.00000e+00	
2.27453   	4.91669e+00		         0.59167	-2.00000e+00	
2.28091   	4.91044e+00		         0.59333	-2.00000e+00	
2.28728   	4.89838e+00		         0.59500	-2.00000e+00	
2.29366   	4.87279e+00		         0.59667	-2.00000e+00	
2.30003   	4.79992e+00		         0.59833	-2.00000e+00	
2.30640   	4.86974e+00		         0.60000	-2.00000e+00	
2.31278   	4.80879e+00		         0.60167	-2.00000e+00	
2.31916   	4.76598e+00		         0.60333	-2.00000e+00	
2.32553   	4.67542e+00		         0.60500	-2.00000e+00	
2.33191   	4.58558e+00		         0.60667	-2.00000e+00	
2.33828   	4.30409e+00		         0.60833	-2.00000e+00	
2.34465   	4.14904e+00		         0.61000	-2.00000e+00	
2.35103   	4.00661e+00		         0.61167	-2.00000e+00	
2.35740   	3.87318e+00		         0.61333	-2.00000e+00	
2.36378   	3.73432e+00		         0.61500	-2.00000e+00	
2.37015   	3.65448e+00		         0.61667	-1.00000e+00	
2.37653   	3.47111e+00		         0.61833	-1.00000e+00	
2.38290   	3.27825e+00		         0.62000	-1.00000e+00	
2.38927   	3.07242e+00		         0.62167	-2.00000e+00	
2.39565   	2.87830e+00		         0.62333	-2.00000e+00	
2.40203   	2.67079e+00		         0.62500	-2.00000e+00	
2.40840   	2.51062e+00		         0.62667	-2.00000e+00	
2.41478   	2.32344e+00		         0.62833	-2.00000e+00	
2.42115   	2.11569e+00		         0.63000	-2.00000e+00	
2.42752   	1.92515e+00		         0.63167	-2.00000e+00	
2.43390   	1.73646e+00		         0.63333	-2.00000e+00	
2.44027   	1.46580e+00		         0.63500	-2.00000e+00	
2.44665   	1.15731e+00		         0.63667	-2.00000e+00	
2.45302   	7.41245e-01		         0.63833	-2.00000e+00	
2.45940   	1.21760e-01		         0.64000	-2.00000e+00	
2.46577   	-6.29094e-01		         0.64167	-2.00000e+00	
2.47215   	-1.40553e+00		         0.64333	-2.00000e+00	
2.47852   	-1.93323e+00		         0.64500	-1.00000e+00	
2.48490   	-1.96404e+00		         0.64667	-1.00000e+00	
2.49143   	-1.44724e+00		         0.64833	-1.00000e+00	
2.49765   	-7.73807e-01		         0.65000	-1.00000e+00	
2.50402   	1.09663e-01		         0.65167	-1.00000e+00	
2.51039   	9.60468e-01		         0.65333	-1.00000e+00	
2.51677   	1.66137e+00		         0.65500	-1.00000e+00	
2.52314   	2.10481e+00		         0.65667	-1.00000e+00	
2.52952   	2.59501e+00		         0.65833	-1.00000e+00	
2.53589   	3.07659e+00		         0.66000	-1.00000e+00	
2.54227   	3.45021e+00		         0.66167	0.00000e+00	
2.54864   	3.56255e+00		         0.66333	0.00000e+00	
2.55502   	3.47644e+00		         0.66500	0.00000e+00	
2.56139   	3.07652e+00		         0.66667	0.00000e+00	
2.56777   	2.52191e+00		         0.66833	0.00000e+00	
2.57442   	1.68303e+00		         0.67000	0.00000e+00	
2.58052   	5.42171e-01		         0.67167	0.00000e+00	
2.58689   	-6.63348e-01		         0.67333	0.00000e+00	
2.59326   	-1.74583e+00		         0.67500	0.00000e+00	
2.59964   	-2.85460e+00		         0.67667	0.00000e+00	
2.60602   	-3.53099e+00		         0.67833	0.00000e+00	
2.61239   	-3.93274e+00		         0.68000	0.00000e+00	
2.61876   	-4.07289e+00		         0.68167	0.00000e+00	
2.62514   	-4.10964e+00		         0.68333	0.00000e+00	
2.63152   	-4.06645e+00		         0.68500	0.00000e+00	
2.63789   	-4.14259e+00		         0.68667	0.00000e+00	
2.64426   	-4.04713e+00		         0.68833	0.00000e+00	
2.65064   	-3.91160e+00		         0.69000	0.00000e+00	
2.65734   	-3.69368e+00		         0.69167	0.00000e+00	
2.66339   	-3.39773e+00		         0.69333	0.00000e+00	
2.66976   	-3.12095e+00		         0.69500	0.00000e+00	
2.67614   	-2.81668e+00		         0.69667	0.00000e+00	
2.68251   	-2.58418e+00		         0.69833	0.00000e+00	
2.68888   	-2.31508e+00		         0.70000	-1.00000e+00	
2.69527   	-2.11888e+00		         0.70167	-1.00000e+00	
2.70164   	-1.93678e+00		         0.70333	-1.00000e+00	
2.70801   	-1.81317e+00		         0.70500	-1.00000e+00	
2.71438   	-1.72654e+00		         0.70667	-1.00000e+00	
2.72076   	-1.61630e+00		         0.70833	0.00000e+00	
2.72714   	-1.48167e+00		         0.71000	0.00000e+00	
2.73351   	-1.32095e+00		         0.71167	0.00000e+00	
2.73988   	-1.18174e+00		         0.71333	0.00000e+00	
2.74626   	-1.04468e+00		         0.71500	0.00000e+00	
2.75263   	-9.56994e-01		         0.71667	1.00000e+00	
2.75901   	-8.62146e-01		         0.71833	1.00000e+00	
2.76538   	-7.69285e-01		         0.72000	1.00000e+00	
2.77175   	-6.79935e-01		         0.72167	1.00000e+00	
2.77813   	-5.48518e-01		         0.72333	2.00000e+00	
2.78451   	-4.40637e-01		         0.72500	2.00000e+00	
2.79088   	-3.49666e-01		         0.72667	2.00000e+00	
2.79726   	-2.77796e-01		         0.72833	2.00000e+00	
2.80363   	-1.98055e-01		         0.73000	2.00000e+00	
2.81000   	-1.56944e-01		         0.73167	2.00000e+00	
2.81638   	-1.19785e-01		         0.73333	1.00000e+00	
2.82275   	-9.71585e-02		         0.73500	1.00000e+00	
2.82913   	-8.07172e-02		         0.73667	1.00000e+00	
2.83550   	-7.43484e-02		         0.73833	1.00000e+00	
2.84188   	-9.43270e-02		         0.74000	1.00000e+00	
2.84825   	-1.16730e-01		         0.74167	1.00000e+00	
2.85463   	-1.32708e-01		         0.74333	1.00000e+00	
2.86100   	-1.54875e-01		         0.74500	1.00000e+00	
2.86738   	-1.82366e-01		         0.74667	1.00000e+00	
2.87375   	-2.09102e-01		         0.74833	1.00000e+00	
2.88013   	-2.34050e-01		         0.75000	1.00000e+00	
2.88650   	-2.85160e-01		         0.75167	1.00000e+00	
2.89287   	-3.39539e-01		         0.75333	1.00000e+00	
2.89925   	-3.85487e-01		         0.75500	2.00000e+00	
2.90562   	-3.94952e-01		         0.75667	2.00000e+00	
2.91200   	-4.28210e-01		         0.75833	2.00000e+00	
2.91837   	-4.23487e-01		         0.76000	2.00000e+00	
2.92475   	-3.80013e-01		         0.76167	2.00000e+00	
2.93112   	-3.33417e-01		         0.76333	2.00000e+00	
2.93750   	-2.98581e-01		         0.76500	2.00000e+00	
2.94387   	-2.39678e-01		         0.76667	2.00000e+00	
2.95025   	-1.87297e-01		         0.76833	2.00000e+00	
2.95662   	-1.47900e-01		         0.77000	2.00000e+00	
2.96300   	-1.26115e-01		         0.77167	2.00000e+00	
2.96937   	-1.30112e-01		         0.77333	1.00000e+00	
2.97574   	-1.97478e-01		         0.77500	1.00000e+00	
2.98212   	-3.68831e-01		         0.77667	1.00000e+00	
2.98849   	-6.07595e-01		         0.77833	1.00000e+00	
2.99487   	-1.03031e+00		         0.78000	1.00000e+00	
3.00125   	-1.68015e+00		         0.78167	1.00000e+00	
3.00762   	-2.47154e+00		         0.78333	1.00000e+00	
3.01399   	-3.35860e+00		         0.78500	1.00000e+00	
3.02037   	-4.31853e+00		         0.78667	1.00000e+00	
3.02675   	-5.25438e+00		         0.78833	1.00000e+00	
3.03311   	-5.96015e+00		         0.79000	1.00000e+00	
3.03949   	-6.51669e+00		         0.79167	1.00000e+00	
3.04587   	-6.84774e+00		         0.79333	2.00000e+00	
3.05224   	-6.96189e+00		         0.79500	2.00000e+00	
3.05862   	-6.80856e+00		         0.79667	2.00000e+00	
3.06499   	-6.58072e+00		         0.79833	2.00000e+00	
3.07136   	-6.07142e+00		         0.80000	2.00000e+00	
3.07774   	-5.52623e+00		         0.80167	2.00000e+00	
3.08411   	-4.97076e+00		         0.80333	2.00000e+00	
3.09049   	-4.42268e+00		         0.80500	2.00000e+00	
3.09686   	-3.82900e+00		         0.80667	2.00000e+00	
3.10324   	-3.28839e+00		         0.80833	2.00000e+00	
3.10961   	-2.90820e+00		         0.81000	2.00000e+00	
3.11599   	-2.41012e+00		         0.81167	2.00000e+00	
3.12236   	-1.90693e+00		         0.81333	2.00000e+00	
3.12874   	-1.36794e+00		         0.81500	1.00000e+00	
3.13511   	-1.21649e+00		         0.81667	1.00000e+00	
3.14149   	-8.02467e-01		         0.81833	1.00000e+00	
			         0.82000	1.00000e+00	
			         0.82167	0.00000e+00	
			         0.82333	0.00000e+00	
			         0.82500	0.00000e+00	
			         0.82667	-1.00000e+00	
			         0.82833	-1.00000e+00	
			         0.83000	-1.00000e+00	
			         0.83167	-2.00000e+00	
			         0.83333	-2.00000e+00	
			         0.83500	-2.00000e+00	
			         0.83667	-2.00000e+00	
			         0.83833	-3.00000e+00	
			         0.84000	-3.00000e+00	
			         0.84167	-3.00000e+00	
			         0.84333	-3.00000e+00	
			         0.84500	-3.00000e+00	
			         0.84667	-2.00000e+00	
			         0.84833	-2.00000e+00	
			         0.85000	-2.00000e+00	
			         0.85167	-2.00000e+00	
			         0.85333	-2.00000e+00	
			         0.85500	-1.00000e+00	
			         0.85667	-1.00000e+00	
			         0.85833	-1.00000e+00	
			         0.86000	-1.00000e+00	
			         0.86167	0.00000e+00	
			         0.86333	0.00000e+00	
			         0.86500	0.00000e+00	
			         0.86667	0.00000e+00	
			         0.86833	1.00000e+00	
			         0.87000	1.00000e+00	
			         0.87167	1.00000e+00	
			         0.87333	2.00000e+00	
			         0.87500	2.00000e+00	
			         0.87667	3.00000e+00	
			         0.87833	3.00000e+00	
			         0.88000	4.00000e+00	
			         0.88167	4.00000e+00	
			         0.88333	5.00000e+00	
			         0.88500	5.00000e+00	
			         0.88667	5.00000e+00	
			         0.88833	6.00000e+00	
			         0.89000	6.00000e+00	
			         0.89167	6.00000e+00	
			         0.89333	7.00000e+00	
			         0.89500	7.00000e+00	
			         0.89667	7.00000e+00	
			         0.89833	7.00000e+00	
			         0.90000	7.00000e+00	
			         0.90167	8.00000e+00	
			         0.90333	8.00000e+00	
			         0.90500	8.00000e+00	
			         0.90667	7.00000e+00	
			         0.90833	7.00000e+00	
			         0.91000	7.00000e+00	
			         0.91167	6.00000e+00	
			         0.91333	5.00000e+00	
			         0.91500	5.00000e+00	
			         0.91667	4.00000e+00	
			         0.91833	3.00000e+00	
			         0.92000	2.00000e+00	
			         0.92167	1.00000e+00	
			         0.92333	0.00000e+00	
			         0.92500	-1.00000e+00	
			         0.92667	-2.00000e+00	
			         0.92833	-3.00000e+00	
			         0.93000	-4.00000e+00	
			         0.93167	-5.00000e+00	
			         0.93333	-5.00000e+00	
			         0.93500	-6.00000e+00	
			         0.93667	-6.00000e+00	
			         0.93833	-6.00000e+00	
			         0.94000	-6.00000e+00	
			         0.94167	-6.00000e+00	
			         0.94333	-6.00000e+00	
			         0.94500	-6.00000e+00	
			         0.94667	-6.00000e+00	
			         0.94833	-5.00000e+00	
			         0.95000	-5.00000e+00	
			         0.95167	-5.00000e+00	
			         0.95333	-4.00000e+00	
			         0.95500	-4.00000e+00	
			         0.95667	-3.00000e+00	
			         0.95833	-3.00000e+00	
			         0.96000	-2.00000e+00	
			         0.96167	-2.00000e+00	
			         0.96333	-1.00000e+00	
			         0.96500	-1.00000e+00	
			         0.96667	-1.00000e+00	
			         0.96833	-1.00000e+00	
			         0.97000	0.00000e+00	
			         0.97167	0.00000e+00	
			         0.97333	-1.00000e+00	
			         0.97500	-1.00000e+00	
			         0.97667	-1.00000e+00	
			         0.97833	-1.00000e+00	
			         0.98000	-1.00000e+00	
			         0.98167	-1.00000e+00	
			         0.98333	-1.00000e+00	
			         0.98500	-2.00000e+00	
			         0.98667	-1.00000e+00	
			         0.98833	-1.00000e+00	
			         0.99000	-1.00000e+00	
			         0.99167	-1.00000e+00	
			         0.99333	-1.00000e+00	
			         0.99500	0.00000e+00	
			         0.99667	0.00000e+00	
			         0.99833	1.00000e+00	
			         1.00000	1.00000e+00	
			         1.00167	1.00000e+00	
			         1.00333	2.00000e+00	
			         1.00500	2.00000e+00	
			         1.00667	2.00000e+00	
			         1.00833	2.00000e+00	
			         1.01000	2.00000e+00	
			         1.01167	2.00000e+00	
			         1.01333	2.00000e+00	
			         1.01500	2.00000e+00	
			         1.01667	2.00000e+00	
			         1.01833	2.00000e+00	
			         1.02000	2.00000e+00	
			         1.02167	2.00000e+00	
			         1.02333	3.00000e+00	
			         1.02500	4.00000e+00	
			         1.02667	5.00000e+00	
			         1.02833	6.00000e+00	
			         1.03000	8.00000e+00	
			         1.03167	1.00000e+01	
			         1.03333	1.20000e+01	
			         1.03500	1.40000e+01	
			         1.03667	1.70000e+01	
			         1.03833	2.10000e+01	
			         1.04000	2.40000e+01	
			         1.04167	2.70000e+01	
			         1.04333	3.10000e+01	
			         1.04500	3.40000e+01	
			         1.04667	3.70000e+01	
			         1.04833	3.90000e+01	
			         1.05000	4.10000e+01	
			         1.05167	4.20000e+01	
			         1.05333	4.20000e+01	
			         1.05500	4.20000e+01	
			         1.05667	4.10000e+01	
			         1.05833	3.90000e+01	
			         1.06000	3.70000e+01	
			         1.06167	3.30000e+01	
			         1.06333	3.00000e+01	
			         1.06500	2.50000e+01	
			         1.06667	2.10000e+01	
			         1.06833	1.50000e+01	
			         1.07000	1.00000e+01	
			         1.07167	4.00000e+00	
			         1.07333	-2.00000e+00	
			         1.07500	-8.00000e+00	
			         1.07667	-1.50000e+01	
			         1.07833	-2.10000e+01	
			         1.08000	-2.80000e+01	
			         1.08167	-3.30000e+01	
			         1.08333	-3.80000e+01	
			         1.08500	-4.30000e+01	
			         1.08667	-4.70000e+01	
			         1.08833	-4.90000e+01	
			         1.09000	-5.10000e+01	
			         1.09167	-5.20000e+01	
			         1.09333	-5.20000e+01	
			         1.09500	-5.00000e+01	
			         1.09667	-4.90000e+01	
			         1.09833	-4.60000e+01	
			         1.10000	-4.30000e+01	
			         1.10167	-4.00000e+01	
			         1.10333	-3.60000e+01	
			         1.10500	-3.20000e+01	
			         1.10667	-2.80000e+01	
			         1.10833	-2.40000e+01	
			         1.11000	-2.00000e+01	
			         1.11167	-1.60000e+01	
			         1.11333	-1.20000e+01	
			         1.11500	-9.00000e+00	
			         1.11667	-6.00000e+00	
			         1.11833	-4.00000e+00	
			         1.12000	-1.00000e+00	
			         1.12167	0.00000e+00	
			         1.12333	2.00000e+00	
			         1.12500	3.00000e+00	
			         1.12667	4.00000e+00	
			         1.12833	4.00000e+00	
			         1.13000	4.00000e+00	
			         1.13167	5.00000e+00	
			         1.13333	5.00000e+00	
			         1.13500	5.00000e+00	
			         1.13667	5.00000e+00	
			         1.13833	4.00000e+00	
			         1.14000	4.00000e+00	
			         1.14167	4.00000e+00	
			         1.14333	4.00000e+00	
			         1.14500	4.00000e+00	
			         1.14667	4.00000e+00	
			         1.14833	4.00000e+00	
			         1.15000	4.00000e+00	
			         1.15167	4.00000e+00	
			         1.15333	4.00000e+00	
			         1.15500	5.00000e+00	
			         1.15667	5.00000e+00	
			         1.15833	5.00000e+00	
			         1.16000	5.00000e+00	
			         1.16167	5.00000e+00	
			         1.16333	5.00000e+00	
			         1.16500	5.00000e+00	
			         1.16667	5.00000e+00	
			         1.16833	6.00000e+00	
			         1.17000	6.00000e+00	
			         1.17167	6.00000e+00	
			         1.17333	6.00000e+00	
			         1.17500	6.00000e+00	
			         1.17667	6.00000e+00	
			         1.17833	6.00000e+00	
			         1.18000	6.00000e+00	
			         1.18167	6.00000e+00	
			         1.18333	6.00000e+00	
			         1.18500	6.00000e+00	
			         1.18667	6.00000e+00	
			         1.18833	6.00000e+00	
			         1.19000	6.00000e+00	
			         1.19167	6.00000e+00	
			         1.19333	5.00000e+00	
			         1.19500	5.00000e+00	
			         1.19667	5.00000e+00	
			         1.19833	5.00000e+00	
			         1.20000	5.00000e+00	
			         1.20167	5.00000e+00	
			         1.20333	5.00000e+00	
			         1.20500	5.00000e+00	
			         1.20667	5.00000e+00	
			         1.20833	5.00000e+00	
			         1.21000	5.00000e+00	
			         1.21167	5.00000e+00	
			         1.21333	5.00000e+00	
			         1.21500	5.00000e+00	
			         1.21667	5.00000e+00	
			         1.21833	5.00000e+00	
			         1.22000	5.00000e+00	
			         1.22167	4.00000e+00	
			         1.22333	4.00000e+00	
			         1.22500	4.00000e+00	
			         1.22667	4.00000e+00	
			         1.22833	4.00000e+00	
			         1.23000	5.00000e+00	
			         1.23167	5.00000e+00	
			         1.23333	5.00000e+00	
			         1.23500	5.00000e+00	
			         1.23667	5.00000e+00	
			         1.23833	6.00000e+00	
			         1.24000	6.00000e+00	
			         1.24167	6.00000e+00	
			         1.24333	6.00000e+00	
			         1.24500	6.00000e+00	
			         1.24667	6.00000e+00	
			         1.24833	6.00000e+00	
			         1.25000	6.00000e+00	
			         1.25167	6.00000e+00	
			         1.25333	6.00000e+00	
			         1.25500	6.00000e+00	
			         1.25667	6.00000e+00	
			         1.25833	6.00000e+00	
			         1.26000	6.00000e+00	
			         1.26167	7.00000e+00	
			         1.26333	7.00000e+00	
			         1.26500	7.00000e+00	
			         1.26667	8.00000e+00	
			         1.26833	8.00000e+00	
			         1.27000	8.00000e+00	
			         1.27167	9.00000e+00	
			         1.27333	9.00000e+00	
			         1.27500	9.00000e+00	
			         1.27667	1.00000e+01	
			         1.27833	1.00000e+01	
			         1.28000	1.00000e+01	
			         1.28167	1.00000e+01	
			         1.28333	1.00000e+01	
			         1.28500	1.00000e+01	
			         1.28667	1.00000e+01	
			         1.28833	1.00000e+01	
			         1.29000	1.00000e+01	
			         1.29167	1.00000e+01	
			         1.29333	1.00000e+01	
			         1.29500	1.00000e+01	
			         1.29667	1.00000e+01	
			         1.29833	1.00000e+01	
			         1.30000	1.00000e+01	
			         1.30167	1.00000e+01	
			         1.30333	1.00000e+01	
			         1.30500	1.00000e+01	
			         1.30667	1.00000e+01	
			         1.30833	1.10000e+01	
			         1.31000	1.10000e+01	
			         1.31167	1.10000e+01	
			         1.31333	1.10000e+01	
			         1.31500	1.10000e+01	
			         1.31667	1.10000e+01	
			         1.31833	1.10000e+01	
			         1.32000	1.10000e+01	
			         1.32167	1.10000e+01	
			         1.32333	1.10000e+01	
			         1.32500	1.10000e+01	
			         1.32667	1.00000e+01	
			         1.32833	1.00000e+01	
			         1.33000	9.00000e+00	
			         1.33167	9.00000e+00	
			         1.33333	9.00000e+00	
			         1.33500	8.00000e+00	
			         1.33667	8.00000e+00	
			         1.33833	7.00000e+00	
			         1.34000	7.00000e+00	
			         1.34167	6.00000e+00	
			         1.34333	6.00000e+00	
			         1.34500	6.00000e+00	
			         1.34667	5.00000e+00	
			         1.34833	5.00000e+00	
			         1.35000	5.00000e+00	
			         1.35167	5.00000e+00	
			         1.35333	5.00000e+00	
			         1.35500	4.00000e+00	
			         1.35667	4.00000e+00	
			         1.35833	4.00000e+00	
			         1.36000	4.00000e+00	
			         1.36167	4.00000e+00	
			         1.36333	4.00000e+00	
			         1.36500	4.00000e+00	
			         1.36667	4.00000e+00	
			         1.36833	4.00000e+00	
			         1.37000	4.00000e+00	
			         1.37167	3.00000e+00	
			         1.37333	3.00000e+00	
			         1.37500	3.00000e+00	
			         1.37667	2.00000e+00	
			         1.37833	2.00000e+00	
			         1.38000	1.00000e+00	
			         1.38167	0.00000e+00	
			         1.38333	0.00000e+00	
			         1.38500	-1.00000e+00	
			         1.38667	-2.00000e+00	
			         1.38833	-2.00000e+00	
			         1.39000	-3.00000e+00	
			         1.39167	-4.00000e+00	
			         1.39333	-5.00000e+00	
			         1.39500	-5.00000e+00	
			         1.39667	-6.00000e+00	
			         1.39833	-7.00000e+00	
			         1.40000	-7.00000e+00	
			         1.40167	-8.00000e+00	
			         1.40333	-8.00000e+00	
			         1.40500	-9.00000e+00	
			         1.40667	-9.00000e+00	
			         1.40833	-9.00000e+00	
			         1.41000	-9.00000e+00	
			         1.41167	-9.00000e+00	
			         1.41333	-1.00000e+01	
			         1.41500	-1.00000e+01	
			         1.41667	-1.00000e+01	
			         1.41833	-1.00000e+01	
			         1.42000	-1.00000e+01	
			         1.42167	-1.10000e+01	
			         1.42333	-1.10000e+01	
			         1.42500	-1.10000e+01	
			         1.42667	-1.10000e+01	
			         1.42833	-1.20000e+01	
			         1.43000	-1.20000e+01	
			         1.43167	-1.20000e+01	
			         1.43333	-1.20000e+01	
			         1.43500	-1.20000e+01	
			         1.43667	-1.20000e+01	
			         1.43833	-1.20000e+01	
			         1.44000	-1.10000e+01	
			         1.44167	-1.10000e+01	
			         1.44333	-1.10000e+01	
			         1.44500	-1.00000e+01	
			         1.44667	-1.00000e+01	
			         1.44833	-1.00000e+01	
			         1.45000	-1.00000e+01	
			         1.45167	-9.00000e+00	
			         1.45333	-9.00000e+00	
			         1.45500	-9.00000e+00	
			         1.45667	-9.00000e+00	
			         1.45833	-9.00000e+00	
			         1.46000	-9.00000e+00	
			         1.46167	-9.00000e+00	
			         1.46333	-9.00000e+00	
			         1.46500	-9.00000e+00	
			         1.46667	-9.00000e+00	
			         1.46833	-8.00000e+00	
			         1.47000	-8.00000e+00	
			         1.47167	-8.00000e+00	
			         1.47333	-8.00000e+00	
			         1.47500	-8.00000e+00	
			         1.47667	-8.00000e+00	
			         1.47833	-8.00000e+00	
			         1.48000	-7.00000e+00	
			         1.48167	-7.00000e+00	
			         1.48333	-7.00000e+00	
			         1.48500	-6.00000e+00	
			         1.48667	-6.00000e+00	
			         1.48833	-6.00000e+00	
			         1.49000	-5.00000e+00	
			         1.49167	-5.00000e+00	
			         1.49333	-4.00000e+00	
			         1.49500	-4.00000e+00	
			         1.49667	-4.00000e+00	
			         1.49833	-4.00000e+00	
			         1.50000	-3.00000e+00	
			         1.50167	-3.00000e+00	
			         1.50333	-3.00000e+00	
			         1.50500	-3.00000e+00	
			         1.50667	-3.00000e+00	
			         1.50833	-3.00000e+00	
			         1.51000	-3.00000e+00	
			         1.51167	-3.00000e+00	
			         1.51333	-3.00000e+00	
			         1.51500	-3.00000e+00	
			         1.51667	-2.00000e+00	
			         1.51833	-2.00000e+00	
			         1.52000	-2.00000e+00	
			         1.52167	-2.00000e+00	
			         1.52333	-2.00000e+00	
			         1.52500	-2.00000e+00	
			         1.52667	-2.00000e+00	
			         1.52833	-2.00000e+00	
			         1.53000	-2.00000e+00	
			         1.53167	-2.00000e+00	
			         1.53333	-1.00000e+00	
			         1.53500	-1.00000e+00	
			         1.53667	-1.00000e+00	
			         1.53833	-1.00000e+00	
			         1.54000	0.00000e+00	
			         1.54167	0.00000e+00	
			         1.54333	0.00000e+00	
			         1.54500	1.00000e+00	
			         1.54667	1.00000e+00	
			         1.54833	1.00000e+00	
			         1.55000	2.00000e+00	
			         1.55167	2.00000e+00	
			         1.55333	2.00000e+00	
			         1.55500	2.00000e+00	
			         1.55667	2.00000e+00	
			         1.55833	2.00000e+00	
			         1.56000	2.00000e+00	
			         1.56167	2.00000e+00	
			         1.56333	1.00000e+00	
			         1.56500	1.00000e+00	
			         1.56667	1.00000e+00	
			         1.56833	1.00000e+00	
			         1.57000	1.00000e+00	
			         1.57167	0.00000e+00	
			         1.57333	0.00000e+00	
			         1.57500	0.00000e+00	
			         1.57667	-1.00000e+00	
			         1.57833	-1.00000e+00	
			         1.58000	-1.00000e+00	
			         1.58167	-1.00000e+00	
			         1.58333	-2.00000e+00	
			         1.58500	-2.00000e+00	
			         1.58667	-2.00000e+00	
			         1.58833	-2.00000e+00	
			         1.59000	-2.00000e+00	
			         1.59167	-2.00000e+00	
			         1.59333	-2.00000e+00	
			         1.59500	-2.00000e+00	
			         1.59667	-2.00000e+00	
			         1.59833	-2.00000e+00	
			         1.60000	-2.00000e+00	
			         1.60167	-2.00000e+00	
			         1.60333	-2.00000e+00	
			         1.60500	-2.00000e+00	
			         1.60667	-2.00000e+00	
			         1.60833	-2.00000e+00	
			         1.61000	-2.00000e+00	
			         1.61167	-2.00000e+00	
			         1.61333	-3.00000e+00	
			         1.61500	-3.00000e+00	
			         1.61667	-3.00000e+00	
			         1.61833	-2.00000e+00	
			         1.62000	-2.00000e+00	
			         1.62167	-2.00000e+00	
			         1.62333	-2.00000e+00	
			         1.62500	-2.00000e+00	
			         1.62667	-1.00000e+00	
			         1.62833	-1.00000e+00	
			         1.63000	-1.00000e+00	
			         1.63167	0.00000e+00	
			         1.63333	0.00000e+00	
			         1.63500	0.00000e+00	
			         1.63667	0.00000e+00	
			         1.63833	0.00000e+00	
			         1.64000	0.00000e+00	
			         1.64167	0.00000e+00	
			         1.64333	0.00000e+00	
			         1.64500	0.00000e+00	
			         1.64667	0.00000e+00	
			         1.64833	0.00000e+00	
			         1.65000	-1.00000e+00	
			         1.65167	-1.00000e+00	
			         1.65333	-1.00000e+00	
			         1.65500	-2.00000e+00	
			         1.65667	-2.00000e+00	
			         1.65833	-2.00000e+00	
			         1.66000	-3.00000e+00	
			         1.66167	-3.00000e+00	
			         1.66333	-3.00000e+00	
			         1.66500	-3.00000e+00	
			         1.66667	-3.00000e+00	
			         1.66833	-4.00000e+00	
			         1.67000	-4.00000e+00	
			         1.67167	-4.00000e+00	
			         1.67333	-4.00000e+00	
			         1.67500	-4.00000e+00	
			         1.67667	-4.00000e+00	
			         1.67833	-4.00000e+00	
			         1.68000	-4.00000e+00	
			         1.68167	-4.00000e+00	
			         1.68333	-3.00000e+00	
			         1.68500	-3.00000e+00	
			         1.68667	-3.00000e+00	
			         1.68833	-3.00000e+00	
			         1.69000	-3.00000e+00	
			         1.69167	-3.00000e+00	
			         1.69333	-3.00000e+00	
			         1.69500	-2.00000e+00	
			         1.69667	-2.00000e+00	
			         1.69833	-2.00000e+00	
			         1.70000	-2.00000e+00	
			         1.70167	-2.00000e+00	
			         1.70333	-2.00000e+00	
			         1.70500	-1.00000e+00	
			         1.70667	-1.00000e+00	
			         1.70833	-1.00000e+00	
			         1.71000	-1.00000e+00	
			         1.71167	-1.00000e+00	
			         1.71333	-1.00000e+00	
			         1.71500	-2.00000e+00	
			         1.71667	-2.00000e+00	
			         1.71833	-2.00000e+00	
			         1.72000	-2.00000e+00	
			         1.72167	-2.00000e+00	
			         1.72333	-3.00000e+00	
			         1.72500	-3.00000e+00	
			         1.72667	-3.00000e+00	
			         1.72833	-3.00000e+00	
			         1.73000	-3.00000e+00	
			         1.73167	-3.00000e+00	
			         1.73333	-3.00000e+00	
			         1.73500	-3.00000e+00	
			         1.73667	-3.00000e+00	
			         1.73833	-3.00000e+00	
			         1.74000	-3.00000e+00	
			         1.74167	-2.00000e+00	
			         1.74333	-2.00000e+00	
			         1.74500	-2.00000e+00	
			         1.74667	-1.00000e+00	
			         1.74833	-1.00000e+00	
			         1.75000	0.00000e+00	
			         1.75167	0.00000e+00	
			         1.75333	0.00000e+00	
			         1.75500	1.00000e+00	
			         1.75667	1.00000e+00	
			         1.75833	2.00000e+00	
			         1.76000	2.00000e+00	
			         1.76167	2.00000e+00	
			         1.76333	3.00000e+00	
			         1.76500	3.00000e+00	
			         1.76667	3.00000e+00	
			         1.76833	3.00000e+00	
			         1.77000	3.00000e+00	
			         1.77167	3.00000e+00	
			         1.77333	3.00000e+00	
			         1.77500	3.00000e+00	
			         1.77667	3.00000e+00	
			         1.77833	3.00000e+00	
			         1.78000	2.00000e+00	
			         1.78167	2.00000e+00	
			         1.78333	2.00000e+00	
			         1.78500	1.00000e+00	
			         1.78667	1.00000e+00	
			         1.78833	1.00000e+00	
			         1.79000	1.00000e+00	
			         1.79167	1.00000e+00	
			         1.79333	0.00000e+00	
			         1.79500	0.00000e+00	
			         1.79667	0.00000e+00	
			         1.79833	1.00000e+00	
			         1.80000	1.00000e+00	
			         1.80167	1.00000e+00	
			         1.80333	1.00000e+00	
			         1.80500	1.00000e+00	
			         1.80667	2.00000e+00	
			         1.80833	2.00000e+00	
			         1.81000	2.00000e+00	
			         1.81167	2.00000e+00	
			         1.81333	2.00000e+00	
			         1.81500	2.00000e+00	
			         1.81667	2.00000e+00	
			         1.81833	2.00000e+00	
			         1.82000	2.00000e+00	
			         1.82167	2.00000e+00	
			         1.82333	2.00000e+00	
			         1.82500	1.00000e+00	
			         1.82667	1.00000e+00	
			         1.82833	1.00000e+00	
			         1.83000	1.00000e+00	
			         1.83167	1.00000e+00	
			         1.83333	1.00000e+00	
			         1.83500	1.00000e+00	
			         1.83667	1.00000e+00	
			         1.83833	1.00000e+00	
			         1.84000	1.00000e+00	
			         1.84167	2.00000e+00	
			         1.84333	2.00000e+00	
			         1.84500	2.00000e+00	
			         1.84667	2.00000e+00	
			         1.84833	3.00000e+00	
			         1.85000	3.00000e+00	
			         1.85167	3.00000e+00	
			         1.85333	3.00000e+00	
			         1.85500	3.00000e+00	
			         1.85667	4.00000e+00	
			         1.85833	4.00000e+00	
			         1.86000	4.00000e+00	
			         1.86167	4.00000e+00	
			         1.86333	4.00000e+00	
			         1.86500	3.00000e+00	
			         1.86667	3.00000e+00	
			         1.86833	3.00000e+00	
			         1.87000	3.00000e+00	
			         1.87167	3.00000e+00	
			         1.87333	3.00000e+00	
			         1.87500	3.00000e+00	
			         1.87667	2.00000e+00	
			         1.87833	2.00000e+00	
			         1.88000	2.00000e+00	
			         1.88167	2.00000e+00	
			         1.88333	2.00000e+00	
			         1.88500	2.00000e+00	
			         1.88667	1.00000e+00	
			         1.88833	1.00000e+00	
			         1.89000	1.00000e+00	
			         1.89167	1.00000e+00	
			         1.89333	1.00000e+00	
			         1.89500	1.00000e+00	
			         1.89667	1.00000e+00	
			         1.89833	1.00000e+00	
			         1.90000	1.00000e+00	
			         1.90167	1.00000e+00	
			         1.90333	1.00000e+00	
			         1.90500	1.00000e+00	
			         1.90667	2.00000e+00	
			         1.90833	2.00000e+00	
			         1.91000	2.00000e+00	
			         1.91167	3.00000e+00	
			         1.91333	3.00000e+00	
			         1.91500	4.00000e+00	
			         1.91667	4.00000e+00	
			         1.91833	5.00000e+00	
			         1.92000	6.00000e+00	
			         1.92167	6.00000e+00	
			         1.92333	7.00000e+00	
			         1.92500	8.00000e+00	
			         1.92667	9.00000e+00	
			         1.92833	9.00000e+00	
			         1.93000	1.00000e+01	
			         1.93167	1.10000e+01	
			         1.93333	1.10000e+01	
			         1.93500	1.10000e+01	
			         1.93667	1.20000e+01	
			         1.93833	1.20000e+01	
			         1.94000	1.10000e+01	
			         1.94167	1.10000e+01	
			         1.94333	1.00000e+01	
			         1.94500	9.00000e+00	
			         1.94667	8.00000e+00	
			         1.94833	7.00000e+00	
			         1.95000	6.00000e+00	
			         1.95167	5.00000e+00	
			         1.95333	3.00000e+00	
			         1.95500	2.00000e+00	
			         1.95667	1.00000e+00	
			         1.95833	-1.00000e+00	
			         1.96000	-2.00000e+00	
			         1.96167	-3.00000e+00	
			         1.96333	-4.00000e+00	
			         1.96500	-5.00000e+00	
			         1.96667	-6.00000e+00	
			         1.96833	-6.00000e+00	
			         1.97000	-7.00000e+00	
			         1.97167	-7.00000e+00	
			         1.97333	-7.00000e+00	
			         1.97500	-8.00000e+00	
			         1.97667	-7.00000e+00	
			         1.97833	-7.00000e+00	
			         1.98000	-7.00000e+00	
			         1.98167	-6.00000e+00	
			         1.98333	-6.00000e+00	
			         1.98500	-5.00000e+00	
			         1.98667	-5.00000e+00	
			         1.98833	-4.00000e+00	
			         1.99000	-4.00000e+00	
			         1.99167	-4.00000e+00	
			         1.99333	-3.00000e+00	
			         1.99500	-3.00000e+00	
			         1.99667	-3.00000e+00	
			         1.99833	-3.00000e+00	
			         2.00000	-3.00000e+00	
			         2.00167	-4.00000e+00	
			         2.00333	-4.00000e+00	
			         2.00500	-4.00000e+00	
			         2.00667	-5.00000e+00	
			         2.00833	-5.00000e+00	
			         2.01000	-5.00000e+00	
			         2.01167	-6.00000e+00	
			         2.01333	-6.00000e+00	
			         2.01500	-6.00000e+00	
			         2.01667	-6.00000e+00	
			         2.01833	-6.00000e+00	
			         2.02000	-6.00000e+00	
			         2.02167	-6.00000e+00	
			         2.02333	-6.00000e+00	
			         2.02500	-6.00000e+00	
			         2.02667	-6.00000e+00	
			         2.02833	-6.00000e+00	
			         2.03000	-5.00000e+00	
			         2.03167	-5.00000e+00	
			         2.03333	-5.00000e+00	
			         2.03500	-5.00000e+00	
			         2.03667	-4.00000e+00	
			         2.03833	-4.00000e+00	
			         2.04000	-4.00000e+00	
			         2.04167	-4.00000e+00	
			         2.04333	-4.00000e+00	
			         2.04500	-4.00000e+00	
			         2.04667	-4.00000e+00	
			         2.04833	-4.00000e+00	
			         2.05000	-4.00000e+00	
			         2.05167	-4.00000e+00	
			         2.05333	-4.00000e+00	
			         2.05500	-4.00000e+00	
			         2.05667	-4.00000e+00	
			         2.05833	-3.00000e+00	
			         2.06000	-3.00000e+00	
			         2.06167	-1.00000e+00	
			         2.06333	0.00000e+00	
			         2.06500	2.00000e+00	
			         2.06667	4.00000e+00	
			         2.06833	7.00000e+00	
			         2.07000	1.10000e+01	
			         2.07167	1.40000e+01	
			         2.07333	1.80000e+01	
			         2.07500	2.20000e+01	
			         2.07667	2.60000e+01	
			         2.07833	3.00000e+01	
			         2.08000	3.40000e+01	
			         2.08167	3.70000e+01	
			         2.08333	3.90000e+01	
			         2.08500	4.00000e+01	
			         2.08667	4.10000e+01	
			         2.08833	4.10000e+01	
			         2.09000	4.10000e+01	
			         2.09167	3.90000e+01	
			         2.09333	3.70000e+01	
			         2.09500	3.40000e+01	
			         2.09667	3.10000e+01	
			         2.09833	2.60000e+01	
			         2.10000	2.20000e+01	
			         2.10167	1.60000e+01	
			         2.10333	1.10000e+01	
			         2.10500	5.00000e+00	
			         2.10667	-2.00000e+00	
			         2.10833	-8.00000e+00	
			         2.11000	-1.50000e+01	
			         2.11167	-2.20000e+01	
			         2.11333	-2.90000e+01	
			         2.11500	-3.50000e+01	
			         2.11667	-4.10000e+01	
			         2.11833	-4.60000e+01	
			         2.12000	-5.00000e+01	
			         2.12167	-5.30000e+01	
			         2.12333	-5.50000e+01	
			         2.12500	-5.60000e+01	
			         2.12667	-5.60000e+01	
			         2.12833	-5.50000e+01	
			         2.13000	-5.30000e+01	
			         2.13167	-5.10000e+01	
			         2.13333	-4.80000e+01	
			         2.13500	-4.40000e+01	
			         2.13667	-4.10000e+01	
			         2.13833	-3.70000e+01	
			         2.14000	-3.30000e+01	
			         2.14167	-2.80000e+01	
			         2.14333	-2.40000e+01	
			         2.14500	-2.10000e+01	
			         2.14667	-1.70000e+01	
			         2.14833	-1.30000e+01	
			         2.15000	-1.00000e+01	
			         2.15167	-7.00000e+00	
			         2.15333	-5.00000e+00	
			         2.15500	-3.00000e+00	
			         2.15667	-1.00000e+00	
			         2.15833	1.00000e+00	
			         2.16000	2.00000e+00	
			         2.16167	3.00000e+00	
			         2.16333	3.00000e+00	
			         2.16500	4.00000e+00	
			         2.16667	4.00000e+00	
			         2.16833	5.00000e+00	
			         2.17000	5.00000e+00	
			         2.17167	5.00000e+00	
			         2.17333	5.00000e+00	
			         2.17500	5.00000e+00	
			         2.17667	5.00000e+00	
			         2.17833	5.00000e+00	
			         2.18000	5.00000e+00	
			         2.18167	5.00000e+00	
			         2.18333	5.00000e+00	
			         2.18500	6.00000e+00	
			         2.18667	6.00000e+00	
			         2.18833	5.00000e+00	
			         2.19000	5.00000e+00	
			         2.19167	5.00000e+00	
			         2.19333	5.00000e+00	
			         2.19500	5.00000e+00	
			         2.19667	5.00000e+00	
			         2.19833	5.00000e+00	
			         2.20000	5.00000e+00	
			         2.20167	5.00000e+00	
			         2.20333	5.00000e+00	
			         2.20500	5.00000e+00	
			         2.20667	5.00000e+00	
			         2.20833	5.00000e+00	
			         2.21000	5.00000e+00	
			         2.21167	5.00000e+00	
			         2.21333	5.00000e+00	
			         2.21500	4.00000e+00	
			         2.21667	4.00000e+00	
			         2.21833	4.00000e+00	
			         2.22000	4.00000e+00	
			         2.22167	4.00000e+00	
			         2.22333	5.00000e+00	
			         2.22500	5.00000e+00	
			         2.22667	5.00000e+00	
			         2.22833	5.00000e+00	
			         2.23000	6.00000e+00	
			         2.23167	6.00000e+00	
			         2.23333	6.00000e+00	
			         2.23500	7.00000e+00	
			         2.23667	7.00000e+00	
			         2.23833	7.00000e+00	
			         2.24000	7.00000e+00	
			         2.24167	7.00000e+00	
			         2.24333	8.00000e+00	
			         2.24500	8.00000e+00	
			         2.24667	8.00000e+00	
			         2.24833	8.00000e+00	
			         2.25000	8.00000e+00	
			         2.25167	8.00000e+00	
			         2.25333	8.00000e+00	
			         2.25500	8.00000e+00	
			         2.25667	8.00000e+00	
			         2.25833	8.00000e+00	
			         2.26000	8.00000e+00	
			         2.26167	9.00000e+00	
			         2.26333	9.00000e+00	
			         2.26500	1.00000e+01	
			         2.26667	1.00000e+01	
			         2.26833	1.00000e+01	
			         2.27000	1.10000e+01	
			         2.27167	1.10000e+01	
			         2.27333	1.10000e+01	
			         2.27500	1.10000e+01	
			         2.27667	1.10000e+01	
			         2.27833	1.10000e+01	
			         2.28000	1.10000e+01	
			         2.28167	1.10000e+01	
			         2.28333	1.10000e+01	
			         2.28500	1.00000e+01	
			         2.28667	1.00000e+01	
			         2.28833	9.00000e+00	
			         2.29000	9.00000e+00	
			         2.29167	8.00000e+00	
			         2.29333	8.00000e+00	
			         2.29500	8.00000e+00	
			         2.29667	8.00000e+00	
			         2.29833	8.00000e+00	
			         2.30000	8.00000e+00	
			         2.30167	8.00000e+00	
			         2.30333	8.00000e+00	
			         2.30500	8.00000e+00	
			         2.30667	9.00000e+00	
			         2.30833	9.00000e+00	
			         2.31000	9.00000e+00	
			         2.31167	1.00000e+01	
			         2.31333	1.00000e+01	
			         2.31500	1.00000e+01	
			         2.31667	1.10000e+01	
			         2.31833	1.10000e+01	
			         2.32000	1.10000e+01	
			         2.32167	1.10000e+01	
			         2.32333	1.10000e+01	
			         2.32500	1.10000e+01	
			         2.32667	1.10000e+01	
			         2.32833	1.10000e+01	
			         2.33000	1.10000e+01	
			         2.33167	1.10000e+01	
			         2.33333	1.10000e+01	
			         2.33500	1.10000e+01	
			         2.33667	1.10000e+01	
			         2.33833	1.10000e+01	
			         2.34000	1.10000e+01	
			         2.34167	1.10000e+01	
			         2.34333	1.20000e+01	
			         2.34500	1.20000e+01	
			         2.34667	1.20000e+01	
			         2.34833	1.20000e+01	
			         2.35000	1.20000e+01	
			         2.35167	1.30000e+01	
			         2.35333	1.30000e+01	
			         2.35500	1.30000e+01	
			         2.35667	1.30000e+01	
			         2.35833	1.30000e+01	
			         2.36000	1.30000e+01	
			         2.36167	1.30000e+01	
			         2.36333	1.30000e+01	
			         2.36500	1.30000e+01	
			         2.36667	1.30000e+01	
			         2.36833	1.20000e+01	
			         2.37000	1.20000e+01	
			         2.37167	1.20000e+01	
			         2.37333	1.20000e+01	
			         2.37500	1.20000e+01	
			         2.37667	1.10000e+01	
			         2.37833	1.10000e+01	
			         2.38000	1.10000e+01	
			         2.38167	1.10000e+01	
			         2.38333	1.10000e+01	
			         2.38500	1.00000e+01	
			         2.38667	1.00000e+01	
			         2.38833	1.00000e+01	
			         2.39000	9.00000e+00	
			         2.39167	9.00000e+00	
			         2.39333	8.00000e+00	
			         2.39500	8.00000e+00	
			         2.39667	7.00000e+00	
			         2.39833	7.00000e+00	
			         2.40000	6.00000e+00	
			         2.40167	5.00000e+00	
			         2.40333	4.00000e+00	
			         2.40500	3.00000e+00	
			         2.40667	3.00000e+00	
			         2.40833	2.00000e+00	
			         2.41000	1.00000e+00	
			         2.41167	0.00000e+00	
			         2.41333	0.00000e+00	
			         2.41500	-1.00000e+00	
			         2.41667	-2.00000e+00	
			         2.41833	-2.00000e+00	
			         2.42000	-3.00000e+00	
			         2.42167	-4.00000e+00	
			         2.42333	-4.00000e+00	
			         2.42500	-5.00000e+00	
			         2.42667	-5.00000e+00	
			         2.42833	-5.00000e+00	
			         2.43000	-5.00000e+00	
			         2.43167	-6.00000e+00	
			         2.43333	-6.00000e+00	
			         2.43500	-6.00000e+00	
			         2.43667	-6.00000e+00	
			         2.43833	-6.00000e+00	
			         2.44000	-6.00000e+00	
			         2.44167	-6.00000e+00	
			         2.44333	-6.00000e+00	
			         2.44500	-6.00000e+00	
			         2.44667	-6.00000e+00	
			         2.44833	-7.00000e+00	
			         2.45000	-7.00000e+00	
			         2.45167	-7.00000e+00	
			         2.45333	-7.00000e+00	
			         2.45500	-7.00000e+00	
			         2.45667	-7.00000e+00	
			         2.45833	-8.00000e+00	
			         2.46000	-8.00000e+00	
			         2.46167	-8.00000e+00	
			         2.46333	-8.00000e+00	
			         2.46500	-8.00000e+00	
			         2.46667	-8.00000e+00	
			         2.46833	-8.00000e+00	
			         2.47000	-8.00000e+00	
			         2.47167	-8.00000e+00	
			         2.47333	-8.00000e+00	
			         2.47500	-8.00000e+00	
			         2.47667	-8.00000e+00	
			         2.47833	-8.00000e+00	
			         2.48000	-8.00000e+00	
			         2.48167	-8.00000e+00	
			         2.48333	-9.00000e+00	
			         2.48500	-9.00000e+00	
			         2.48667	-9.00000e+00	
			         2.48833	-9.00000e+00	
			         2.49000	-9.00000e+00	
			         2.49167	-9.00000e+00	
			         2.49333	-9.00000e+00	
			         2.49500	-9.00000e+00	
			         2.49667	-9.00000e+00	
			         2.49833	-9.00000e+00	
			         2.50000	-8.00000e+00	
			         2.50167	-8.00000e+00	
			         2.50333	-8.00000e+00	
			         2.50500	-8.00000e+00	
			         2.50667	-7.00000e+00	
			         2.50833	-7.00000e+00	
			         2.51000	-7.00000e+00	
			         2.51167	-7.00000e+00	
			         2.51333	-7.00000e+00	
			         2.51500	-7.00000e+00	
			         2.51667	-7.00000e+00	
			         2.51833	-7.00000e+00	
			         2.52000	-7.00000e+00	
			         2.52167	-6.00000e+00	
			         2.52333	-6.00000e+00	
			         2.52500	-6.00000e+00	
			         2.52667	-6.00000e+00	
			         2.52833	-6.00000e+00	
			         2.53000	-5.00000e+00	
			         2.53167	-5.00000e+00	
			         2.53333	-5.00000e+00	
			         2.53500	-4.00000e+00	
			         2.53667	-4.00000e+00	
			         2.53833	-3.00000e+00	
			         2.54000	-3.00000e+00	
			         2.54167	-2.00000e+00	
			         2.54333	-2.00000e+00	
			         2.54500	-2.00000e+00	
			         2.54667	-2.00000e+00	
			         2.54833	-2.00000e+00	
			         2.55000	-1.00000e+00	
			         2.55167	-1.00000e+00	
			         2.55333	-2.00000e+00	
			         2.55500	-2.00000e+00	
			         2.55667	-2.00000e+00	
			         2.55833	-2.00000e+00	
			         2.56000	-2.00000e+00	
			         2.56167	-2.00000e+00	
			         2.56333	-3.00000e+00	
			         2.56500	-3.00000e+00	
			         2.56667	-3.00000e+00	
			         2.56833	-3.00000e+00	
			         2.57000	-3.00000e+00	
			         2.57167	-3.00000e+00	
			         2.57333	-3.00000e+00	
			         2.57500	-2.00000e+00	
			         2.57667	-2.00000e+00	
			         2.57833	-2.00000e+00	
			         2.58000	-2.00000e+00	
			         2.58167	-2.00000e+00	
			         2.58333	-2.00000e+00	
			         2.58500	-2.00000e+00	
			         2.58667	-2.00000e+00	
			         2.58833	-2.00000e+00	
			         2.59000	-2.00000e+00	
			         2.59167	-2.00000e+00	
			         2.59333	-2.00000e+00	
			         2.59500	-2.00000e+00	
			         2.59667	-2.00000e+00	
			         2.59833	-3.00000e+00	
			         2.60000	-3.00000e+00	
			         2.60167	-3.00000e+00	
			         2.60333	-3.00000e+00	
			         2.60500	-2.00000e+00	
			         2.60667	-2.00000e+00	
			         2.60833	-2.00000e+00	
			         2.61000	-1.00000e+00	
			         2.61167	-1.00000e+00	
			         2.61333	0.00000e+00	
			         2.61500	0.00000e+00	
			         2.61667	1.00000e+00	
			         2.61833	1.00000e+00	
			         2.62000	2.00000e+00	
			         2.62167	2.00000e+00	
			         2.62333	2.00000e+00	
			         2.62500	2.00000e+00	
			         2.62667	1.00000e+00	
			         2.62833	1.00000e+00	
			         2.63000	1.00000e+00	
			         2.63167	0.00000e+00	
			         2.63333	-1.00000e+00	
			         2.63500	-1.00000e+00	
			         2.63667	-2.00000e+00	
			         2.63833	-3.00000e+00	
			         2.64000	-4.00000e+00	
			         2.64167	-4.00000e+00	
			         2.64333	-4.00000e+00	
			         2.64500	-5.00000e+00	
			         2.64667	-5.00000e+00	
			         2.64833	-5.00000e+00	
			         2.65000	-5.00000e+00	
			         2.65167	-5.00000e+00	
			         2.65333	-4.00000e+00	
			         2.65500	-4.00000e+00	
			         2.65667	-4.00000e+00	
			         2.65833	-4.00000e+00	
			         2.66000	-3.00000e+00	
			         2.66167	-3.00000e+00	
			         2.66333	-3.00000e+00	
			         2.66500	-3.00000e+00	
			         2.66667	-3.00000e+00	
			         2.66833	-3.00000e+00	
			         2.67000	-3.00000e+00	
			         2.67167	-3.00000e+00	
			         2.67333	-3.00000e+00	
			         2.67500	-3.00000e+00	
			         2.67667	-3.00000e+00	
			         2.67833	-4.00000e+00	
			         2.68000	-4.00000e+00	
			         2.68167	-4.00000e+00	
			         2.68333	-4.00000e+00	
			         2.68500	-4.00000e+00	
			         2.68667	-4.00000e+00	
			         2.68833	-4.00000e+00	
			         2.69000	-5.00000e+00	
			         2.69167	-5.00000e+00	
			         2.69333	-5.00000e+00	
			         2.69500	-5.00000e+00	
			         2.69667	-5.00000e+00	
			         2.69833	-5.00000e+00	
			         2.70000	-5.00000e+00	
			         2.70167	-5.00000e+00	
			         2.70333	-5.00000e+00	
			         2.70500	-5.00000e+00	
			         2.70667	-4.00000e+00	
			         2.70833	-4.00000e+00	
			         2.71000	-3.00000e+00	
			         2.71167	-3.00000e+00	
			         2.71333	-2.00000e+00	
			         2.71500	-2.00000e+00	
			         2.71667	-1.00000e+00	
			         2.71833	-1.00000e+00	
			         2.72000	0.00000e+00	
			         2.72167	0.00000e+00	
			         2.72333	0.00000e+00	
			         2.72500	1.00000e+00	
			         2.72667	0.00000e+00	
			         2.72833	0.00000e+00	
			         2.73000	0.00000e+00	
			         2.73167	-1.00000e+00	
			         2.73333	-1.00000e+00	
			         2.73500	-2.00000e+00	
			         2.73667	-2.00000e+00	
			         2.73833	-3.00000e+00	
			         2.74000	-3.00000e+00	
			         2.74167	-3.00000e+00	
			         2.74333	-4.00000e+00	
			         2.74500	-4.00000e+00	
			         2.74667	-4.00000e+00	
			         2.74833	-4.00000e+00	
			         2.75000	-4.00000e+00	
			         2.75167	-4.00000e+00	
			         2.75333	-3.00000e+00	
			         2.75500	-3.00000e+00	
			         2.75667	-3.00000e+00	
			         2.75833	-2.00000e+00	
			         2.76000	-2.00000e+00	
			         2.76167	-2.00000e+00	
			         2.76333	-2.00000e+00	
			         2.76500	-2.00000e+00	
			         2.76667	-2.00000e+00	
			         2.76833	-2.00000e+00	
			         2.77000	-1.00000e+00	
			         2.77167	-1.00000e+00	
			         2.77333	-1.00000e+00	
			         2.77500	-1.00000e+00	
			         2.77667	-1.00000e+00	
			         2.77833	-2.00000e+00	
			         2.78000	-1.00000e+00	
			         2.78167	-1.00000e+00	
			         2.78333	-1.00000e+00	
			         2.78500	-1.00000e+00	
			         2.78667	-1.00000e+00	
			         2.78833	-1.00000e+00	
			         2.79000	-1.00000e+00	
			         2.79167	-1.00000e+00	
			         2.79333	-1.00000e+00	
			         2.79500	0.00000e+00	
			         2.79667	0.00000e+00	
			         2.79833	0.00000e+00	
			         2.80000	0.00000e+00	
			         2.80167	0.00000e+00	
			         2.80333	0.00000e+00	
			         2.80500	0.00000e+00	
			         2.80667	0.00000e+00	
			         2.80833	0.00000e+00	
			         2.81000	0.00000e+00	
			         2.81167	0.00000e+00	
			         2.81333	0.00000e+00	
			         2.81500	0.00000e+00	
			         2.81667	0.00000e+00	
			         2.81833	0.00000e+00	
			         2.82000	0.00000e+00	
			         2.82167	0.00000e+00	
			         2.82333	0.00000e+00	
			         2.82500	-1.00000e+00	
			         2.82667	-1.00000e+00	
			         2.82833	-1.00000e+00	
			         2.83000	-1.00000e+00	
			         2.83167	-1.00000e+00	
			         2.83333	-1.00000e+00	
			         2.83500	-1.00000e+00	
			         2.83667	-2.00000e+00	
			         2.83833	-2.00000e+00	
			         2.84000	-2.00000e+00	
			         2.84167	-2.00000e+00	
			         2.84333	-2.00000e+00	
			         2.84500	-2.00000e+00	
			         2.84667	-2.00000e+00	
			         2.84833	-2.00000e+00	
			         2.85000	-2.00000e+00	
			         2.85167	-2.00000e+00	
			         2.85333	-2.00000e+00	
			         2.85500	-2.00000e+00	
			         2.85667	-2.00000e+00	
			         2.85833	-2.00000e+00	
			         2.86000	-2.00000e+00	
			         2.86167	-2.00000e+00	
			         2.86333	-2.00000e+00	
			         2.86500	-3.00000e+00	
			         2.86667	-3.00000e+00	
			         2.86833	-3.00000e+00	
			         2.87000	-4.00000e+00	
			         2.87167	-4.00000e+00	
			         2.87333	-4.00000e+00	
			         2.87500	-5.00000e+00	
			         2.87667	-5.00000e+00	
			         2.87833	-5.00000e+00	
			         2.88000	-5.00000e+00	
			         2.88167	-5.00000e+00	
			         2.88333	-5.00000e+00	
			         2.88500	-5.00000e+00	
			         2.88667	-5.00000e+00	
			         2.88833	-5.00000e+00	
			         2.89000	-5.00000e+00	
			         2.89167	-5.00000e+00	
			         2.89333	-5.00000e+00	
			         2.89500	-5.00000e+00	
			         2.89667	-5.00000e+00	
			         2.89833	-5.00000e+00	
			         2.90000	-5.00000e+00	
			         2.90167	-5.00000e+00	
			         2.90333	-5.00000e+00	
			         2.90500	-5.00000e+00	
			         2.90667	-5.00000e+00	
			         2.90833	-5.00000e+00	
			         2.91000	-5.00000e+00	
			         2.91167	-4.00000e+00	
			         2.91333	-4.00000e+00	
			         2.91500	-4.00000e+00	
			         2.91667	-4.00000e+00	
			         2.91833	-4.00000e+00	
			         2.92000	-4.00000e+00	
			         2.92167	-4.00000e+00	
			         2.92333	-4.00000e+00	
			         2.92500	-3.00000e+00	
			         2.92667	-3.00000e+00	
			         2.92833	-3.00000e+00	
			         2.93000	-3.00000e+00	
			         2.93167	-3.00000e+00	
			         2.93333	-3.00000e+00	
			         2.93500	-3.00000e+00	
			         2.93667	-3.00000e+00	
			         2.93833	-3.00000e+00	
			         2.94000	-2.00000e+00	
			         2.94167	-2.00000e+00	
			         2.94333	-2.00000e+00	
			         2.94500	-2.00000e+00	
			         2.94667	-1.00000e+00	
			         2.94833	-1.00000e+00	
			         2.95000	-1.00000e+00	
			         2.95167	0.00000e+00	
			         2.95333	0.00000e+00	
			         2.95500	1.00000e+00	
			         2.95667	1.00000e+00	
			         2.95833	2.00000e+00	
			         2.96000	2.00000e+00	
			         2.96167	3.00000e+00	
			         2.96333	3.00000e+00	
			         2.96500	4.00000e+00	
			         2.96667	4.00000e+00	
			         2.96833	5.00000e+00	
			         2.97000	5.00000e+00	
			         2.97167	5.00000e+00	
			         2.97333	5.00000e+00	
			         2.97500	5.00000e+00	
			         2.97667	5.00000e+00	
			         2.97833	4.00000e+00	
			         2.98000	3.00000e+00	
			         2.98167	3.00000e+00	
			         2.98333	2.00000e+00	
			         2.98500	1.00000e+00	
			         2.98667	0.00000e+00	
			         2.98833	-1.00000e+00	
			         2.99000	-3.00000e+00	
			         2.99167	-4.00000e+00	
			         2.99333	-5.00000e+00	
			         2.99500	-6.00000e+00	
			         2.99667	-6.00000e+00	
			         2.99833	-7.00000e+00	
			         3.00000	-8.00000e+00	
			         3.00167	-8.00000e+00	
			         3.00333	-9.00000e+00	
			         3.00500	-9.00000e+00	
			         3.00667	-9.00000e+00	
			         3.00833	-9.00000e+00	
			         3.01000	-9.00000e+00	
			         3.01167	-9.00000e+00	
			         3.01333	-9.00000e+00	
			         3.01500	-9.00000e+00	
			         3.01667	-9.00000e+00	
			         3.01833	-8.00000e+00	
			         3.02000	-8.00000e+00	
			         3.02167	-7.00000e+00	
			         3.02333	-7.00000e+00	
			         3.02500	-6.00000e+00	
			         3.02667	-6.00000e+00	
			         3.02833	-5.00000e+00	
			         3.03000	-5.00000e+00	
			         3.03167	-4.00000e+00	
			         3.03333	-4.00000e+00	
			         3.03500	-4.00000e+00	
			         3.03667	-4.00000e+00	
			         3.03833	-3.00000e+00	
			         3.04000	-4.00000e+00	
			         3.04167	-4.00000e+00	
			         3.04333	-4.00000e+00	
			         3.04500	-4.00000e+00	
			         3.04667	-4.00000e+00	
			         3.04833	-4.00000e+00	
			         3.05000	-4.00000e+00	
			         3.05167	-4.00000e+00	
			         3.05333	-4.00000e+00	
			         3.05500	-4.00000e+00	
			         3.05667	-3.00000e+00	
			         3.05833	-3.00000e+00	
			         3.06000	-3.00000e+00	
			         3.06167	-3.00000e+00	
			         3.06333	-3.00000e+00	
			         3.06500	-3.00000e+00	
			         3.06667	-3.00000e+00	
			         3.06833	-3.00000e+00	
			         3.07000	-3.00000e+00	
			         3.07167	-3.00000e+00	
			         3.07333	-3.00000e+00	
			         3.07500	-3.00000e+00	
			         3.07667	-3.00000e+00	
			         3.07833	-3.00000e+00	
			         3.08000	-3.00000e+00	
			         3.08167	-3.00000e+00	
			         3.08333	-3.00000e+00	
			         3.08500	-3.00000e+00	
			         3.08667	-3.00000e+00	
			         3.08833	-3.00000e+00	
			         3.09000	-3.00000e+00	
			         3.09167	-2.00000e+00	
			         3.09333	-1.00000e+00	
			         3.09500	0.00000e+00	
			         3.09667	1.00000e+00	
			         3.09833	2.00000e+00	
			         3.10000	4.00000e+00	
			         3.10167	7.00000e+00	
			         3.10333	1.00000e+01	
			         3.10500	1.30000e+01	
			         3.10667	1.60000e+01	
			         3.10833	2.00000e+01	
			         3.11000	2.30000e+01	
			         3.11167	2.70000e+01	
			         3.11333	3.00000e+01	
			         3.11500	3.30000e+01	
			         3.11667	3.50000e+01	
			         3.11833	3.70000e+01	
			         3.12000	3.80000e+01	
			         3.12167	3.90000e+01	
			         3.12333	3.90000e+01	
			         3.12500	3.80000e+01	
			         3.12667	3.60000e+01	
			         3.12833	3.40000e+01	
			         3.13000	3.10000e+01	
			         3.13167	2.70000e+01	
			         3.13333	2.20000e+01	
			         3.13500	1.70000e+01	
			         3.13667	1.20000e+01	
			         3.13833	6.00000e+00	
			         3.14000	0.00000e+00	
			         3.14167	-6.00000e+00	
			         3.14333	-1.30000e+01	
			         3.14500	-1.90000e+01	
			         3.14667	-2.60000e+01	
			         3.14833	-3.20000e+01	
			         3.15000	-3.70000e+01	
			         3.15167	-4.20000e+01	
			         3.15333	-4.60000e+01	
			         3.15500	-5.00000e+01	
			         3.15667	-5.20000e+01	
			         3.15833	-5.30000e+01	
			         3.16000	-5.40000e+01	
			         3.16167	-5.30000e+01	
			         3.16333	-5.20000e+01	
			         3.16500	-5.00000e+01	
			         3.16667	-4.70000e+01	
			         3.16833	-4.40000e+01	
			         3.17000	-4.00000e+01	
			         3.17167	-3.70000e+01	
			         3.17333	-3.30000e+01	
			         3.17500	-2.90000e+01	
			         3.17667	-2.50000e+01	
			         3.17833	-2.10000e+01	
			         3.18000	-1.70000e+01	
			         3.18167	-1.40000e+01	
			         3.18333	-1.10000e+01	
			         3.18500	-8.00000e+00	
			         3.18667	-5.00000e+00	
			         3.18833	-3.00000e+00	
