Velocity (TVI), in cm/s

Time (s) :	Trace 1 : 		Ecg : 		
0.00508   	3.16714e+00		         0.00000	2.00000e+01	
0.01119   	3.57437e+00		         0.00167	3.90000e+01	
0.01730   	3.37886e+00		         0.00333	6.30000e+01	
0.02340   	2.83113e+00		         0.00500	9.30000e+01	
0.02977   	2.02509e+00		         0.00667	1.26000e+02	
0.03588   	4.09973e-01		         0.00833	1.63000e+02	
0.04198   	-1.79144e+00		         0.01000	2.02000e+02	
0.04809   	-3.23514e+00		         0.01167	2.40000e+02	
0.05447   	-3.44470e+00		         0.01333	2.77000e+02	
0.06057   	-3.06978e+00		         0.01500	3.10000e+02	
0.06667   	-1.69464e+00		         0.01667	3.39000e+02	
0.07278   	2.99671e-01		         0.01833	3.62000e+02	
0.07916   	2.15001e+00		         0.02000	3.77000e+02	
0.08526   	3.43665e+00		         0.02167	3.83000e+02	
0.09136   	4.26122e+00		         0.02333	3.81000e+02	
0.09747   	4.72288e+00		         0.02500	3.69000e+02	
0.10385   	5.06896e+00		         0.02667	3.49000e+02	
0.10995   	5.18212e+00		         0.02833	3.23000e+02	
0.11606   	5.34570e+00		         0.03000	2.92000e+02	
0.12216   	5.39607e+00		         0.03167	2.57000e+02	
0.12854   	5.39508e+00		         0.03333	2.20000e+02	
0.13464   	5.37383e+00		         0.03500	1.83000e+02	
0.14074   	5.41213e+00		         0.03667	1.47000e+02	
0.14685   	5.38797e+00		         0.03833	1.11000e+02	
0.15323   	5.34137e+00		         0.04000	7.90000e+01	
0.15933   	5.28972e+00		         0.04167	4.90000e+01	
0.16543   	5.31491e+00		         0.04333	2.20000e+01	
0.17154   	5.27041e+00		         0.04500	-2.00000e+00	
0.17791   	5.35430e+00		         0.04667	-2.20000e+01	
0.18402   	5.38775e+00		         0.04833	-4.00000e+01	
0.19012   	5.48804e+00		         0.05000	-5.50000e+01	
0.19623   	5.42642e+00		         0.05167	-6.80000e+01	
0.20261   	5.51664e+00		         0.05333	-7.90000e+01	
0.20871   	5.40794e+00		         0.05500	-8.80000e+01	
0.21482   	5.38941e+00		         0.05667	-9.60000e+01	
0.22092   	5.28827e+00		         0.05833	-1.01000e+02	
0.22730   	5.24246e+00		         0.06000	-1.06000e+02	
0.23340   	5.11015e+00		         0.06167	-1.09000e+02	
0.23950   	5.05507e+00		         0.06333	-1.11000e+02	
0.24561   	4.94668e+00		         0.06500	-1.12000e+02	
0.25199   	4.79818e+00		         0.06667	-1.12000e+02	
0.25809   	4.70184e+00		         0.06833	-1.12000e+02	
0.26420   	4.52496e+00		         0.07000	-1.11000e+02	
0.27030   	4.37373e+00		         0.07167	-1.10000e+02	
0.27668   	4.16228e+00		         0.07333	-1.08000e+02	
0.28278   	4.04980e+00		         0.07500	-1.07000e+02	
0.28888   	3.85140e+00		         0.07667	-1.05000e+02	
0.29499   	3.61502e+00		         0.07833	-1.03000e+02	
0.30137   	3.40247e+00		         0.08000	-1.01000e+02	
0.30751   	3.20042e+00		         0.08167	-9.80000e+01	
0.31358   	2.89103e+00		         0.08333	-9.60000e+01	
0.31968   	2.64395e+00		         0.08500	-9.30000e+01	
0.32606   	2.55203e+00		         0.08667	-9.10000e+01	
0.33216   	2.28384e+00		         0.08833	-8.80000e+01	
0.33826   	2.04934e+00		         0.09000	-8.60000e+01	
0.34438   	1.84974e+00		         0.09167	-8.30000e+01	
0.35075   	1.55706e+00		         0.09333	-8.10000e+01	
0.35689   	1.22857e+00		         0.09500	-7.80000e+01	
0.36295   	8.66693e-01		         0.09667	-7.60000e+01	
0.36906   	4.19113e-01		         0.09833	-7.40000e+01	
0.37544   	-1.21758e-01		         0.10000	-7.20000e+01	
0.38154   	-6.59141e-01		         0.10167	-7.00000e+01	
0.38765   	-9.34861e-01		         0.10333	-6.90000e+01	
0.39375   	-8.64358e-01		         0.10500	-6.70000e+01	
0.40013   	-6.33194e-01		         0.10667	-6.60000e+01	
0.40623   	-2.66324e-01		         0.10833	-6.50000e+01	
0.41234   	2.00297e-02		         0.11000	-6.30000e+01	
0.41844   	2.33872e-01		         0.11167	-6.20000e+01	
0.42482   	3.71793e-01		         0.11333	-6.00000e+01	
0.43092   	5.79700e-01		         0.11500	-5.80000e+01	
0.43702   	6.99191e-01		         0.11667	-5.60000e+01	
0.44313   	1.06697e+00		         0.11833	-5.40000e+01	
0.44951   	9.11975e-01		         0.12000	-5.20000e+01	
0.45561   	7.02836e-01		         0.12167	-5.00000e+01	
0.46172   	2.62799e-01		         0.12333	-4.80000e+01	
0.46782   	-2.17275e-01		         0.12500	-4.60000e+01	
0.47420   	-9.26486e-01		         0.12667	-4.50000e+01	
0.48030   	-1.41372e+00		         0.12833	-4.30000e+01	
0.48641   	-2.07122e+00		         0.13000	-4.20000e+01	
0.49251   	-2.70068e+00		         0.13167	-4.10000e+01	
0.49889   	-3.34130e+00		         0.13333	-4.00000e+01	
0.50499   	-3.77866e+00		         0.13500	-4.00000e+01	
0.51110   	-4.18088e+00		         0.13667	-3.90000e+01	
0.51720   	-4.36824e+00		         0.13833	-3.80000e+01	
0.52358   	-4.41535e+00		         0.14000	-3.70000e+01	
0.52968   	-4.27131e+00		         0.14167	-3.60000e+01	
0.53579   	-4.14372e+00		         0.14333	-3.40000e+01	
0.54189   	-3.93595e+00		         0.14500	-3.30000e+01	
0.54827   	-3.77267e+00		         0.14667	-3.10000e+01	
0.55437   	-3.60728e+00		         0.14833	-2.90000e+01	
0.56048   	-3.46158e+00		         0.15000	-2.70000e+01	
0.56658   	-3.31725e+00		         0.15167	-2.50000e+01	
0.57296   	-3.13654e+00		         0.15333	-2.30000e+01	
0.57906   	-2.98040e+00		         0.15500	-2.10000e+01	
0.58517   	-2.85039e+00		         0.15667	-2.00000e+01	
0.59127   	-2.71645e+00		         0.15833	-1.80000e+01	
0.59765   	-2.59598e+00		         0.16000	-1.70000e+01	
0.60375   	-2.45009e+00		         0.16167	-1.50000e+01	
0.60986   	-2.27461e+00		         0.16333	-1.40000e+01	
0.61596   	-2.06991e+00		         0.16500	-1.30000e+01	
0.62252   	-1.84934e+00		         0.16667	-1.20000e+01	
0.62844   	-1.60745e+00		         0.16833	-1.10000e+01	
0.63455   	-1.39944e+00		         0.17000	-1.00000e+01	
0.64065   	-1.20694e+00		         0.17167	-9.00000e+00	
0.64703   	-1.02605e+00		         0.17333	-9.00000e+00	
0.65313   	-8.65657e-01		         0.17500	-8.00000e+00	
0.65924   	-7.32594e-01		         0.17667	-7.00000e+00	
0.66534   	-6.17314e-01		         0.17833	-7.00000e+00	
0.67172   	-5.25200e-01		         0.18000	-6.00000e+00	
0.67782   	-4.65790e-01		         0.18167	-5.00000e+00	
0.68393   	-4.52242e-01		         0.18333	-5.00000e+00	
0.69003   	-4.53529e-01		         0.18500	-4.00000e+00	
0.69641   	-4.58484e-01		         0.18667	-3.00000e+00	
0.70251   	-4.57704e-01		         0.18833	-2.00000e+00	
0.70862   	-4.86211e-01		         0.19000	0.00000e+00	
0.71472   	-5.75278e-01		         0.19167	1.00000e+00	
0.72110   	-7.80783e-01		         0.19333	3.00000e+00	
0.72720   	-1.13712e+00		         0.19500	5.00000e+00	
0.73331   	-1.58965e+00		         0.19667	7.00000e+00	
0.73941   	-2.11315e+00		         0.19833	9.00000e+00	
0.74579   	-2.82568e+00		         0.20000	1.10000e+01	
0.75190   	-3.66139e+00		         0.20167	1.40000e+01	
0.75800   	-4.73096e+00		         0.20333	1.60000e+01	
0.76410   	-5.97087e+00		         0.20500	1.80000e+01	
0.77048   	-7.31321e+00		         0.20667	1.90000e+01	
0.77659   	-8.64058e+00		         0.20833	2.10000e+01	
0.78269   	-9.71144e+00		         0.21000	2.20000e+01	
0.78880   	-1.03693e+01		         0.21167	2.30000e+01	
0.79517   	-1.06166e+01		         0.21333	2.40000e+01	
0.80127   	-1.04594e+01		         0.21500	2.50000e+01	
0.80738   	-9.74134e+00		         0.21667	2.60000e+01	
0.81348   	-8.69479e+00		         0.21833	2.60000e+01	
0.81986   	-7.40387e+00		         0.22000	2.70000e+01	
0.82596   	-6.17752e+00		         0.22167	2.70000e+01	
0.83207   	-5.07253e+00		         0.22333	2.80000e+01	
0.83844   	-4.18561e+00		         0.22500	2.80000e+01	
0.84455   	-3.48197e+00		         0.22667	2.90000e+01	
0.85066   	-2.94681e+00		         0.22833	2.90000e+01	
0.85676   	-2.69647e+00		         0.23000	3.00000e+01	
0.86286   	-1.98614e+00		         0.23167	3.00000e+01	
0.86924   	-1.11643e+00		         0.23333	3.10000e+01	
0.87534   	-1.04152e-01		         0.23500	3.10000e+01	
0.88145   	1.14645e+00		         0.23667	3.20000e+01	
0.88755   	2.57537e+00		         0.23833	3.40000e+01	
0.89393   	3.39713e+00		         0.24000	3.50000e+01	
0.90003   	3.30561e+00		         0.24167	3.60000e+01	
0.90614   	2.67865e+00		         0.24333	3.80000e+01	
0.91224   	1.07536e+00		         0.24500	4.00000e+01	
0.91862   	-4.72241e-01		         0.24667	4.20000e+01	
0.92472   	-2.22887e+00		         0.24833	4.40000e+01	
0.93083   	-3.27622e+00		         0.25000	4.60000e+01	
0.93693   	-3.26006e+00		         0.25167	4.80000e+01	
0.94331   	-2.20950e+00		         0.25333	5.10000e+01	
0.94941   	-8.26609e-01		         0.25500	5.30000e+01	
0.95552   	9.93890e-01		         0.25667	5.60000e+01	
0.96162   	2.84224e+00		         0.25833	5.80000e+01	
0.96800   	3.88030e+00		         0.26000	6.10000e+01	
0.97410   	4.54193e+00		         0.26167	6.40000e+01	
0.98021   	4.88398e+00		         0.26333	6.60000e+01	
0.98631   	5.04634e+00		         0.26500	6.80000e+01	
0.99269   	5.12056e+00		         0.26667	7.00000e+01	
0.99879   	5.21055e+00		         0.26833	7.20000e+01	
1.00490   	5.24112e+00		         0.27000	7.40000e+01	
1.01100   	5.24808e+00		         0.27167	7.60000e+01	
1.01738   	5.26643e+00		         0.27333	7.70000e+01	
1.02348   	5.30479e+00		         0.27500	7.80000e+01	
1.02959   	5.26201e+00		         0.27667	7.90000e+01	
1.03569   	5.28153e+00		         0.27833	8.00000e+01	
1.04207   	5.24420e+00		         0.28000	8.10000e+01	
1.04817   	5.17133e+00		         0.28167	8.10000e+01	
1.05428   	5.15245e+00		         0.28333	8.20000e+01	
1.06038   	5.25003e+00		         0.28500	8.20000e+01	
1.06676   	5.32836e+00		         0.28667	8.20000e+01	
1.07286   	5.41596e+00		         0.28833	8.10000e+01	
1.07897   	5.50810e+00		         0.29000	8.10000e+01	
1.08507   	5.48048e+00		         0.29167	8.00000e+01	
1.09145   	5.36299e+00		         0.29333	7.90000e+01	
1.09755   	5.23741e+00		         0.29500	7.80000e+01	
1.10388   	5.11695e+00		         0.29667	7.70000e+01	
1.10977   	5.02878e+00		         0.29833	7.50000e+01	
1.11614   	4.97002e+00		         0.30000	7.40000e+01	
1.12224   	4.82829e+00		         0.30167	7.30000e+01	
1.12835   	4.73274e+00		         0.30333	7.10000e+01	
1.13445   	4.59427e+00		         0.30500	7.00000e+01	
1.14083   	4.45898e+00		         0.30667	6.80000e+01	
1.14693   	4.30747e+00		         0.30833	6.60000e+01	
1.15304   	4.23417e+00		         0.31000	6.40000e+01	
1.15914   	4.10632e+00		         0.31167	6.10000e+01	
1.16552   	3.96684e+00		         0.31333	5.90000e+01	
1.17162   	3.75541e+00		         0.31500	5.60000e+01	
1.17773   	3.54735e+00		         0.31667	5.20000e+01	
1.18383   	3.32484e+00		         0.31833	4.90000e+01	
1.19021   	3.07665e+00		         0.32000	4.40000e+01	
1.19631   	2.85596e+00		         0.32167	4.00000e+01	
1.20242   	2.63883e+00		         0.32333	3.50000e+01	
1.20852   	2.42835e+00		         0.32500	3.00000e+01	
1.21490   	2.20189e+00		         0.32667	2.50000e+01	
1.22100   	1.97888e+00		         0.32833	1.90000e+01	
1.22711   	1.67030e+00		         0.33000	1.40000e+01	
1.23321   	1.39504e+00		         0.33167	9.00000e+00	
1.23959   	1.05304e+00		         0.33333	4.00000e+00	
1.24569   	7.07867e-01		         0.33500	-1.00000e+00	
1.25180   	1.79057e-01		         0.33667	-6.00000e+00	
1.25791   	-3.49860e-01		         0.33833	-1.00000e+01	
1.26428   	-9.24552e-01		         0.34000	-1.40000e+01	
1.27073   	-8.39976e-01		         0.34167	-1.80000e+01	
1.27649   	-8.04890e-01		         0.34333	-2.20000e+01	
1.28259   	-4.98061e-01		         0.34500	-2.50000e+01	
1.28897   	-1.16610e-01		         0.34667	-2.90000e+01	
1.29507   	2.06644e-01		         0.34833	-3.20000e+01	
1.30118   	1.55834e-01		         0.35000	-3.50000e+01	
1.30729   	3.41102e-01		         0.35167	-3.70000e+01	
1.31366   	4.07641e-01		         0.35333	-4.00000e+01	
1.32001   	6.07915e-01		         0.35500	-4.20000e+01	
1.32587   	7.75152e-01		         0.35667	-4.50000e+01	
1.33197   	7.95388e-01		         0.35833	-4.70000e+01	
1.33835   	4.79417e-01		         0.36000	-5.00000e+01	
1.34445   	1.11646e-02		         0.36167	-5.20000e+01	
1.35056   	-5.58899e-01		         0.36333	-5.40000e+01	
1.35666   	-1.06742e+00		         0.36500	-5.60000e+01	
1.36304   	-1.77392e+00		         0.36667	-5.80000e+01	
1.36914   	-2.37683e+00		         0.36833	-6.00000e+01	
1.37525   	-2.81370e+00		         0.37000	-6.10000e+01	
1.38135   	-3.31594e+00		         0.37167	-6.30000e+01	
1.38773   	-3.76840e+00		         0.37333	-6.40000e+01	
1.39383   	-4.06835e+00		         0.37500	-6.40000e+01	
1.39994   	-4.20342e+00		         0.37667	-6.50000e+01	
1.40604   	-4.30073e+00		         0.37833	-6.50000e+01	
1.41242   	-4.25811e+00		         0.38000	-6.50000e+01	
1.41852   	-4.07687e+00		         0.38167	-6.50000e+01	
1.42463   	-3.87795e+00		         0.38333	-6.40000e+01	
1.43074   	-3.72382e+00		         0.38500	-6.30000e+01	
1.43711   	-3.41869e+00		         0.38667	-6.20000e+01	
1.44321   	-3.20540e+00		         0.38833	-6.10000e+01	
1.44932   	-3.07813e+00		         0.39000	-6.00000e+01	
1.45542   	-2.90595e+00		         0.39167	-5.90000e+01	
1.46180   	-2.73827e+00		         0.39333	-5.80000e+01	
1.46790   	-2.67757e+00		         0.39500	-5.70000e+01	
1.47401   	-2.55547e+00		         0.39667	-5.60000e+01	
1.48012   	-2.35705e+00		         0.39833	-5.50000e+01	
1.48649   	-2.20169e+00		         0.40000	-5.40000e+01	
1.49260   	-2.02631e+00		         0.40167	-5.20000e+01	
1.49870   	-1.79690e+00		         0.40333	-5.10000e+01	
1.50481   	-1.55622e+00		         0.40500	-5.00000e+01	
1.51118   	-1.34275e+00		         0.40667	-4.90000e+01	
1.51728   	-1.15028e+00		         0.40833	-4.80000e+01	
1.52339   	-9.32337e-01		         0.41000	-4.70000e+01	
1.52950   	-7.72826e-01		         0.41167	-4.60000e+01	
1.53587   	-6.13956e-01		         0.41333	-4.40000e+01	
1.54198   	-5.00899e-01		         0.41500	-4.30000e+01	
1.54808   	-3.69375e-01		         0.41667	-4.20000e+01	
1.55418   	-2.80343e-01		         0.41833	-4.10000e+01	
1.56056   	-2.27605e-01		         0.42000	-3.90000e+01	
1.56666   	-2.62513e-01		         0.42167	-3.80000e+01	
1.57277   	-4.01675e-01		         0.42333	-3.70000e+01	
1.57888   	-7.21377e-01		         0.42500	-3.50000e+01	
1.58536   	-1.19903e+00		         0.42667	-3.30000e+01	
1.59136   	-1.77945e+00		         0.42833	-3.20000e+01	
1.59746   	-2.43094e+00		         0.43000	-3.00000e+01	
1.60356   	-3.21485e+00		         0.43167	-2.90000e+01	
1.60994   	-4.11319e+00		         0.43333	-2.80000e+01	
1.61604   	-5.19749e+00		         0.43500	-2.60000e+01	
1.62215   	-6.51616e+00		         0.43667	-2.50000e+01	
1.62826   	-7.82996e+00		         0.43833	-2.40000e+01	
1.63497   	-9.06473e+00		         0.44000	-2.30000e+01	
1.64074   	-1.01030e+01		         0.44167	-2.20000e+01	
1.64684   	-1.07167e+01		         0.44333	-2.10000e+01	
1.65295   	-1.08071e+01		         0.44500	-2.00000e+01	
1.65932   	-1.05596e+01		         0.44667	-2.00000e+01	
1.66542   	-9.86185e+00		         0.44833	-1.90000e+01	
1.67153   	-8.65059e+00		         0.45000	-1.90000e+01	
1.67764   	-7.40028e+00		         0.45167	-1.90000e+01	
1.68401   	-6.08551e+00		         0.45333	-1.80000e+01	
1.69012   	-4.91634e+00		         0.45500	-1.80000e+01	
1.69622   	-4.09247e+00		         0.45667	-1.90000e+01	
1.70233   	-3.50023e+00		         0.45833	-1.80000e+01	
1.70870   	-2.84676e+00		         0.46000	-1.80000e+01	
1.71481   	-2.54945e+00		         0.46167	-1.80000e+01	
1.72092   	-1.73726e+00		         0.46333	-1.80000e+01	
1.72702   	-7.38704e-01		         0.46500	-1.80000e+01	
1.73339   	4.02578e-01		         0.46667	-1.70000e+01	
1.73950   	1.53832e+00		         0.46833	-1.60000e+01	
1.74560   	2.92931e+00		         0.47000	-1.60000e+01	
1.75170   	3.38500e+00		         0.47167	-1.50000e+01	
1.75808   	3.31248e+00		         0.47333	-1.40000e+01	
1.76419   	2.56511e+00		         0.47500	-1.40000e+01	
1.77029   	1.25583e+00		         0.47667	-1.30000e+01	
1.77640   	-5.95872e-01		         0.47833	-1.30000e+01	
1.78277   	-2.31539e+00		         0.48000	-1.20000e+01	
1.78887   	-3.36584e+00		         0.48167	-1.20000e+01	
1.79498   	-3.12070e+00		         0.48333	-1.20000e+01	
1.80116   	-2.18727e+00		         0.48500	-1.20000e+01	
1.80746   	-6.27542e-01		         0.48667	-1.10000e+01	
1.81357   	1.33806e+00		         0.48833	-1.10000e+01	
1.81967   	3.11603e+00		         0.49000	-1.00000e+01	
1.82578   	3.95277e+00		         0.49167	-1.00000e+01	
1.83215   	4.57942e+00		         0.49333	-9.00000e+00	
1.83846   	4.95102e+00		         0.49500	-9.00000e+00	
1.84436   	5.12209e+00		         0.49667	-8.00000e+00	
1.85047   	5.22992e+00		         0.49833	-7.00000e+00	
1.85685   	5.29112e+00		         0.50000	-7.00000e+00	
1.86294   	5.26006e+00		         0.50167	-6.00000e+00	
1.86905   	5.21174e+00		         0.50333	-6.00000e+00	
1.87516   	5.23687e+00		         0.50500	-6.00000e+00	
1.88153   	5.23069e+00		         0.50667	-6.00000e+00	
1.88764   	5.25658e+00		         0.50833	-6.00000e+00	
1.89374   	5.25258e+00		         0.51000	-7.00000e+00	
1.89985   	5.28076e+00		         0.51167	-7.00000e+00	
1.90622   	5.26527e+00		         0.51333	-8.00000e+00	
1.91232   	5.22641e+00		         0.51500	-8.00000e+00	
1.91843   	5.25077e+00		         0.51667	-9.00000e+00	
1.92454   	5.27789e+00		         0.51833	-1.00000e+01	
1.93091   	5.31625e+00		         0.52000	-1.00000e+01	
1.93702   	5.33538e+00		         0.52167	-1.10000e+01	
1.94312   	5.37910e+00		         0.52333	-1.10000e+01	
1.94923   	5.36824e+00		         0.52500	-1.10000e+01	
1.95560   	5.33196e+00		         0.52667	-1.10000e+01	
1.96171   	5.27842e+00		         0.52833	-1.10000e+01	
1.96781   	5.15229e+00		         0.53000	-1.10000e+01	
1.97392   	5.03017e+00		         0.53167	-1.10000e+01	
1.98029   	4.87464e+00		         0.53333	-1.10000e+01	
1.98640   	4.74810e+00		         0.53500	-1.10000e+01	
1.99250   	4.54475e+00		         0.53667	-1.00000e+01	
1.99861   	4.44316e+00		         0.53833	-1.00000e+01	
2.00498   	4.28272e+00		         0.54000	-9.00000e+00	
2.01109   	4.12977e+00		         0.54167	-9.00000e+00	
2.01719   	3.97573e+00		         0.54333	-8.00000e+00	
2.02330   	3.83337e+00		         0.54500	-8.00000e+00	
2.02967   	3.68066e+00		         0.54667	-8.00000e+00	
2.03578   	3.53941e+00		         0.54833	-7.00000e+00	
2.04188   	3.35453e+00		         0.55000	-7.00000e+00	
2.04799   	3.17027e+00		         0.55167	-7.00000e+00	
2.05436   	2.97041e+00		         0.55333	-7.00000e+00	
2.06047   	2.73160e+00		         0.55500	-8.00000e+00	
2.06657   	2.53409e+00		         0.55667	-8.00000e+00	
2.07268   	2.29583e+00		         0.55833	-8.00000e+00	
2.07905   	2.03021e+00		         0.56000	-9.00000e+00	
2.08516   	1.79851e+00		         0.56167	-9.00000e+00	
2.09126   	1.52362e+00		         0.56333	-1.00000e+01	
2.09737   	1.09756e+00		         0.56500	-1.00000e+01	
2.10374   	6.86117e-01		         0.56667	-1.10000e+01	
2.10985   	2.40936e-01		         0.56833	-1.10000e+01	
2.11595   	-3.05495e-01		         0.57000	-1.10000e+01	
2.12206   	-1.02295e+00		         0.57167	-1.10000e+01	
2.12843   	-1.13547e+00		         0.57333	-1.10000e+01	
2.13454   	-9.07870e-01		         0.57500	-1.10000e+01	
2.14064   	-8.21372e-01		         0.57667	-1.10000e+01	
2.14675   	-3.84314e-01		         0.57833	-1.10000e+01	
2.15312   	1.86085e-01		         0.58000	-1.00000e+01	
2.15923   	5.25216e-01		         0.58167	-1.00000e+01	
2.16533   	5.69147e-01		         0.58333	-9.00000e+00	
2.17144   	7.22043e-01		         0.58500	-9.00000e+00	
2.17781   	7.12058e-01		         0.58667	-8.00000e+00	
2.18392   	8.20294e-01		         0.58833	-8.00000e+00	
2.19002   	5.99118e-01		         0.59000	-8.00000e+00	
2.19613   	4.69882e-01		         0.59167	-7.00000e+00	
2.20250   	1.80844e-01		         0.59333	-7.00000e+00	
2.20861   	-2.21042e-01		         0.59500	-7.00000e+00	
2.21471   	-7.94740e-01		         0.59667	-7.00000e+00	
2.22082   	-1.32620e+00		         0.59833	-7.00000e+00	
2.22719   	-2.13065e+00		         0.60000	-8.00000e+00	
2.23331   	-2.76527e+00		         0.60167	-8.00000e+00	
2.23940   	-3.33795e+00		         0.60333	-8.00000e+00	
2.24551   	-3.81078e+00		         0.60500	-9.00000e+00	
2.25188   	-4.11945e+00		         0.60667	-9.00000e+00	
2.25799   	-4.25430e+00		         0.60833	-9.00000e+00	
2.26409   	-4.29564e+00		         0.61000	-9.00000e+00	
2.27020   	-4.23815e+00		         0.61167	-8.00000e+00	
2.27657   	-4.11279e+00		         0.61333	-8.00000e+00	
2.28268   	-3.99380e+00		         0.61500	-7.00000e+00	
2.28878   	-3.80703e+00		         0.61667	-7.00000e+00	
2.29489   	-3.58688e+00		         0.61833	-6.00000e+00	
2.30126   	-3.36798e+00		         0.62000	-5.00000e+00	
2.30737   	-3.12275e+00		         0.62167	-5.00000e+00	
2.31347   	-2.94466e+00		         0.62333	-4.00000e+00	
2.31958   	-2.76600e+00		         0.62500	-4.00000e+00	
2.32595   	-2.58038e+00		         0.62667	-4.00000e+00	
2.33206   	-2.40740e+00		         0.62833	-4.00000e+00	
2.33816   	-2.23941e+00		         0.63000	-5.00000e+00	
2.34427   	-2.07675e+00		         0.63167	-5.00000e+00	
2.35064   	-1.88254e+00		         0.63333	-5.00000e+00	
2.35675   	-1.70532e+00		         0.63500	-6.00000e+00	
2.36285   	-1.51863e+00		         0.63667	-6.00000e+00	
2.36896   	-1.34943e+00		         0.63833	-7.00000e+00	
2.37533   	-1.14796e+00		         0.64000	-7.00000e+00	
2.38144   	-9.64704e-01		         0.64167	-7.00000e+00	
2.38755   	-7.86970e-01		         0.64333	-7.00000e+00	
2.39365   	-6.48279e-01		         0.64500	-7.00000e+00	
2.40002   	-4.95454e-01		         0.64667	-7.00000e+00	
2.40613   	-3.72824e-01		         0.64833	-7.00000e+00	
2.41223   	-2.97667e-01		         0.65000	-7.00000e+00	
2.41834   	-2.55923e-01		         0.65167	-7.00000e+00	
2.42471   	-2.91850e-01		         0.65333	-7.00000e+00	
2.43082   	-4.79399e-01		         0.65500	-8.00000e+00	
2.43693   	-8.39637e-01		         0.65667	-8.00000e+00	
2.44303   	-1.32439e+00		         0.65833	-9.00000e+00	
2.44940   	-1.87040e+00		         0.66000	-9.00000e+00	
2.45551   	-2.49968e+00		         0.66167	-9.00000e+00	
2.46162   	-3.23859e+00		         0.66333	-9.00000e+00	
2.46772   	-4.13335e+00		         0.66500	-9.00000e+00	
2.47410   	-5.24652e+00		         0.66667	-9.00000e+00	
2.48020   	-6.58563e+00		         0.66833	-8.00000e+00	
2.48631   	-7.88994e+00		         0.67000	-8.00000e+00	
2.49241   	-9.14816e+00		         0.67167	-7.00000e+00	
2.49878   	-1.01776e+01		         0.67333	-6.00000e+00	
2.50489   	-1.07285e+01		         0.67500	-5.00000e+00	
2.51099   	-1.07790e+01		         0.67667	-4.00000e+00	
2.51710   	-1.05608e+01		         0.67833	-2.00000e+00	
2.52348   	-9.85119e+00		         0.68000	-1.00000e+00	
2.52958   	-8.83672e+00		         0.68167	1.00000e+00	
2.53568   	-7.64155e+00		         0.68333	2.00000e+00	
2.54179   	-6.42927e+00		         0.68500	4.00000e+00	
2.54817   	-5.31462e+00		         0.68667	6.00000e+00	
2.55427   	-4.53864e+00		         0.68833	7.00000e+00	
2.56037   	-3.88426e+00		         0.69000	9.00000e+00	
2.56648   	-3.27564e+00		         0.69167	1.10000e+01	
2.57285   	-2.80960e+00		         0.69333	1.30000e+01	
2.57896   	-1.83141e+00		         0.69500	1.50000e+01	
2.58506   	-6.63412e-01		         0.69667	1.70000e+01	
2.59117   	6.30553e-01		         0.69833	1.90000e+01	
2.59754   	1.86807e+00		         0.70000	2.10000e+01	
2.60365   	3.05344e+00		         0.70167	2.40000e+01	
2.60976   	3.05064e+00		         0.70333	2.60000e+01	
2.61586   	2.33387e+00		         0.70500	2.90000e+01	
2.62224   	1.55013e+00		         0.70667	3.10000e+01	
2.62834   	8.74694e-01		         0.70833	3.40000e+01	
2.63444   	-2.71009e-01		         0.71000	3.70000e+01	
			         0.71167	4.00000e+01	
			         0.71333	4.40000e+01	
			         0.71500	4.70000e+01	
			         0.71667	5.00000e+01	
			         0.71833	5.20000e+01	
			         0.72000	5.50000e+01	
			         0.72167	5.70000e+01	
			         0.72333	5.90000e+01	
			         0.72500	6.10000e+01	
			         0.72667	6.30000e+01	
			         0.72833	6.40000e+01	
			         0.73000	6.40000e+01	
			         0.73167	6.40000e+01	
			         0.73333	6.40000e+01	
			         0.73500	6.30000e+01	
			         0.73667	6.10000e+01	
			         0.73833	5.90000e+01	
			         0.74000	5.70000e+01	
			         0.74167	5.40000e+01	
			         0.74333	5.00000e+01	
			         0.74500	4.60000e+01	
			         0.74667	4.20000e+01	
			         0.74833	3.70000e+01	
			         0.75000	3.20000e+01	
			         0.75167	2.70000e+01	
			         0.75333	2.10000e+01	
			         0.75500	1.50000e+01	
			         0.75667	9.00000e+00	
			         0.75833	2.00000e+00	
			         0.76000	-4.00000e+00	
			         0.76167	-1.00000e+01	
			         0.76333	-1.70000e+01	
			         0.76500	-2.30000e+01	
			         0.76667	-2.90000e+01	
			         0.76833	-3.50000e+01	
			         0.77000	-4.00000e+01	
			         0.77167	-4.50000e+01	
			         0.77333	-5.00000e+01	
			         0.77500	-5.40000e+01	
			         0.77667	-5.70000e+01	
			         0.77833	-5.90000e+01	
			         0.78000	-6.10000e+01	
			         0.78167	-6.30000e+01	
			         0.78333	-6.40000e+01	
			         0.78500	-6.50000e+01	
			         0.78667	-6.50000e+01	
			         0.78833	-6.60000e+01	
			         0.79000	-6.50000e+01	
			         0.79167	-6.50000e+01	
			         0.79333	-6.50000e+01	
			         0.79500	-6.40000e+01	
			         0.79667	-6.40000e+01	
			         0.79833	-6.30000e+01	
			         0.80000	-6.20000e+01	
			         0.80167	-6.20000e+01	
			         0.80333	-6.10000e+01	
			         0.80500	-6.00000e+01	
			         0.80667	-5.90000e+01	
			         0.80833	-5.80000e+01	
			         0.81000	-5.80000e+01	
			         0.81167	-5.70000e+01	
			         0.81333	-5.60000e+01	
			         0.81500	-5.50000e+01	
			         0.81667	-5.40000e+01	
			         0.81833	-5.30000e+01	
			         0.82000	-5.20000e+01	
			         0.82167	-5.10000e+01	
			         0.82333	-5.00000e+01	
			         0.82500	-4.90000e+01	
			         0.82667	-4.70000e+01	
			         0.82833	-4.60000e+01	
			         0.83000	-4.50000e+01	
			         0.83167	-4.40000e+01	
			         0.83333	-4.20000e+01	
			         0.83500	-4.10000e+01	
			         0.83667	-4.00000e+01	
			         0.83833	-3.90000e+01	
			         0.84000	-3.90000e+01	
			         0.84167	-3.80000e+01	
			         0.84333	-3.80000e+01	
			         0.84500	-3.80000e+01	
			         0.84667	-3.70000e+01	
			         0.84833	-3.70000e+01	
			         0.85000	-3.70000e+01	
			         0.85167	-3.70000e+01	
			         0.85333	-3.70000e+01	
			         0.85500	-3.70000e+01	
			         0.85667	-3.70000e+01	
			         0.85833	-3.70000e+01	
			         0.86000	-3.70000e+01	
			         0.86167	-3.60000e+01	
			         0.86333	-3.60000e+01	
			         0.86500	-3.60000e+01	
			         0.86667	-3.50000e+01	
			         0.86833	-3.40000e+01	
			         0.87000	-3.10000e+01	
			         0.87167	-2.70000e+01	
			         0.87333	-2.10000e+01	
			         0.87500	-1.20000e+01	
			         0.87667	0.00000e+00	
			         0.87833	1.60000e+01	
			         0.88000	3.70000e+01	
			         0.88167	6.30000e+01	
			         0.88333	9.40000e+01	
			         0.88500	1.29000e+02	
			         0.88667	1.67000e+02	
			         0.88833	2.07000e+02	
			         0.89000	2.45000e+02	
			         0.89167	2.82000e+02	
			         0.89333	3.15000e+02	
			         0.89500	3.43000e+02	
			         0.89667	3.64000e+02	
			         0.89833	3.78000e+02	
			         0.90000	3.82000e+02	
			         0.90167	3.78000e+02	
			         0.90333	3.65000e+02	
			         0.90500	3.44000e+02	
			         0.90667	3.17000e+02	
			         0.90833	2.85000e+02	
			         0.91000	2.50000e+02	
			         0.91167	2.14000e+02	
			         0.91333	1.77000e+02	
			         0.91500	1.42000e+02	
			         0.91667	1.08000e+02	
			         0.91833	7.70000e+01	
			         0.92000	4.80000e+01	
			         0.92167	2.30000e+01	
			         0.92333	0.00000e+00	
			         0.92500	-1.90000e+01	
			         0.92667	-3.60000e+01	
			         0.92833	-5.10000e+01	
			         0.93000	-6.40000e+01	
			         0.93167	-7.50000e+01	
			         0.93333	-8.40000e+01	
			         0.93500	-9.20000e+01	
			         0.93667	-9.90000e+01	
			         0.93833	-1.04000e+02	
			         0.94000	-1.08000e+02	
			         0.94167	-1.10000e+02	
			         0.94333	-1.12000e+02	
			         0.94500	-1.13000e+02	
			         0.94667	-1.13000e+02	
			         0.94833	-1.13000e+02	
			         0.95000	-1.11000e+02	
			         0.95167	-1.10000e+02	
			         0.95333	-1.07000e+02	
			         0.95500	-1.05000e+02	
			         0.95667	-1.02000e+02	
			         0.95833	-1.00000e+02	
			         0.96000	-9.70000e+01	
			         0.96167	-9.50000e+01	
			         0.96333	-9.20000e+01	
			         0.96500	-9.00000e+01	
			         0.96667	-8.70000e+01	
			         0.96833	-8.50000e+01	
			         0.97000	-8.30000e+01	
			         0.97167	-8.10000e+01	
			         0.97333	-7.90000e+01	
			         0.97500	-7.70000e+01	
			         0.97667	-7.60000e+01	
			         0.97833	-7.40000e+01	
			         0.98000	-7.20000e+01	
			         0.98167	-7.00000e+01	
			         0.98333	-6.80000e+01	
			         0.98500	-6.60000e+01	
			         0.98667	-6.40000e+01	
			         0.98833	-6.10000e+01	
			         0.99000	-5.90000e+01	
			         0.99167	-5.70000e+01	
			         0.99333	-5.50000e+01	
			         0.99500	-5.20000e+01	
			         0.99667	-5.00000e+01	
			         0.99833	-4.80000e+01	
			         1.00000	-4.60000e+01	
			         1.00167	-4.40000e+01	
			         1.00333	-4.20000e+01	
			         1.00500	-4.10000e+01	
			         1.00667	-4.00000e+01	
			         1.00833	-3.90000e+01	
			         1.01000	-3.80000e+01	
			         1.01167	-3.70000e+01	
			         1.01333	-3.60000e+01	
			         1.01500	-3.50000e+01	
			         1.01667	-3.40000e+01	
			         1.01833	-3.30000e+01	
			         1.02000	-3.20000e+01	
			         1.02167	-3.10000e+01	
			         1.02333	-3.00000e+01	
			         1.02500	-2.90000e+01	
			         1.02667	-2.80000e+01	
			         1.02833	-2.80000e+01	
			         1.03000	-2.70000e+01	
			         1.03167	-2.60000e+01	
			         1.03333	-2.50000e+01	
			         1.03500	-2.40000e+01	
			         1.03667	-2.30000e+01	
			         1.03833	-2.20000e+01	
			         1.04000	-2.10000e+01	
			         1.04167	-2.00000e+01	
			         1.04333	-1.90000e+01	
			         1.04500	-1.80000e+01	
			         1.04667	-1.70000e+01	
			         1.04833	-1.60000e+01	
			         1.05000	-1.50000e+01	
			         1.05167	-1.30000e+01	
			         1.05333	-1.20000e+01	
			         1.05500	-1.10000e+01	
			         1.05667	-1.00000e+01	
			         1.05833	-8.00000e+00	
			         1.06000	-7.00000e+00	
			         1.06167	-6.00000e+00	
			         1.06333	-5.00000e+00	
			         1.06500	-4.00000e+00	
			         1.06667	-3.00000e+00	
			         1.06833	-2.00000e+00	
			         1.07000	-1.00000e+00	
			         1.07167	-1.00000e+00	
			         1.07333	0.00000e+00	
			         1.07500	1.00000e+00	
			         1.07667	1.00000e+00	
			         1.07833	2.00000e+00	
			         1.08000	3.00000e+00	
			         1.08167	4.00000e+00	
			         1.08333	6.00000e+00	
			         1.08500	7.00000e+00	
			         1.08667	9.00000e+00	
			         1.08833	1.10000e+01	
			         1.09000	1.20000e+01	
			         1.09167	1.40000e+01	
			         1.09333	1.60000e+01	
			         1.09500	1.80000e+01	
			         1.09667	2.00000e+01	
			         1.09833	2.20000e+01	
			         1.10000	2.50000e+01	
			         1.10167	2.70000e+01	
			         1.10333	2.90000e+01	
			         1.10500	3.10000e+01	
			         1.10667	3.30000e+01	
			         1.10833	3.40000e+01	
			         1.11000	3.60000e+01	
			         1.11167	3.80000e+01	
			         1.11333	3.90000e+01	
			         1.11500	4.10000e+01	
			         1.11667	4.30000e+01	
			         1.11833	4.50000e+01	
			         1.12000	4.60000e+01	
			         1.12167	4.80000e+01	
			         1.12333	5.00000e+01	
			         1.12500	5.10000e+01	
			         1.12667	5.30000e+01	
			         1.12833	5.50000e+01	
			         1.13000	5.60000e+01	
			         1.13167	5.80000e+01	
			         1.13333	6.00000e+01	
			         1.13500	6.20000e+01	
			         1.13667	6.40000e+01	
			         1.13833	6.50000e+01	
			         1.14000	6.70000e+01	
			         1.14167	6.90000e+01	
			         1.14333	7.10000e+01	
			         1.14500	7.20000e+01	
			         1.14667	7.40000e+01	
			         1.14833	7.60000e+01	
			         1.15000	7.70000e+01	
			         1.15167	7.80000e+01	
			         1.15333	7.90000e+01	
			         1.15500	8.00000e+01	
			         1.15667	8.00000e+01	
			         1.15833	8.10000e+01	
			         1.16000	8.10000e+01	
			         1.16167	8.00000e+01	
			         1.16333	8.00000e+01	
			         1.16500	8.00000e+01	
			         1.16667	8.00000e+01	
			         1.16833	7.90000e+01	
			         1.17000	7.90000e+01	
			         1.17167	7.80000e+01	
			         1.17333	7.80000e+01	
			         1.17500	7.70000e+01	
			         1.17667	7.70000e+01	
			         1.17833	7.60000e+01	
			         1.18000	7.60000e+01	
			         1.18167	7.50000e+01	
			         1.18333	7.40000e+01	
			         1.18500	7.30000e+01	
			         1.18667	7.10000e+01	
			         1.18833	6.90000e+01	
			         1.19000	6.70000e+01	
			         1.19167	6.40000e+01	
			         1.19333	6.10000e+01	
			         1.19500	5.70000e+01	
			         1.19667	5.30000e+01	
			         1.19833	4.90000e+01	
			         1.20000	4.50000e+01	
			         1.20167	4.00000e+01	
			         1.20333	3.60000e+01	
			         1.20500	3.10000e+01	
			         1.20667	2.50000e+01	
			         1.20833	2.00000e+01	
			         1.21000	1.50000e+01	
			         1.21167	1.00000e+01	
			         1.21333	4.00000e+00	
			         1.21500	-1.00000e+00	
			         1.21667	-6.00000e+00	
			         1.21833	-1.10000e+01	
			         1.22000	-1.60000e+01	
			         1.22167	-2.10000e+01	
			         1.22333	-2.60000e+01	
			         1.22500	-3.00000e+01	
			         1.22667	-3.50000e+01	
			         1.22833	-3.90000e+01	
			         1.23000	-4.30000e+01	
			         1.23167	-4.60000e+01	
			         1.23333	-5.00000e+01	
			         1.23500	-5.30000e+01	
			         1.23667	-5.60000e+01	
			         1.23833	-5.80000e+01	
			         1.24000	-6.00000e+01	
			         1.24167	-6.20000e+01	
			         1.24333	-6.40000e+01	
			         1.24500	-6.50000e+01	
			         1.24667	-6.50000e+01	
			         1.24833	-6.60000e+01	
			         1.25000	-6.60000e+01	
			         1.25167	-6.60000e+01	
			         1.25333	-6.60000e+01	
			         1.25500	-6.60000e+01	
			         1.25667	-6.60000e+01	
			         1.25833	-6.50000e+01	
			         1.26000	-6.50000e+01	
			         1.26167	-6.40000e+01	
			         1.26333	-6.30000e+01	
			         1.26500	-6.30000e+01	
			         1.26667	-6.20000e+01	
			         1.26833	-6.20000e+01	
			         1.27000	-6.10000e+01	
			         1.27167	-6.00000e+01	
			         1.27333	-5.90000e+01	
			         1.27500	-5.80000e+01	
			         1.27667	-5.70000e+01	
			         1.27833	-5.60000e+01	
			         1.28000	-5.50000e+01	
			         1.28167	-5.30000e+01	
			         1.28333	-5.20000e+01	
			         1.28500	-5.10000e+01	
			         1.28667	-4.90000e+01	
			         1.28833	-4.80000e+01	
			         1.29000	-4.60000e+01	
			         1.29167	-4.50000e+01	
			         1.29333	-4.40000e+01	
			         1.29500	-4.20000e+01	
			         1.29667	-4.10000e+01	
			         1.29833	-4.00000e+01	
			         1.30000	-3.90000e+01	
			         1.30167	-3.70000e+01	
			         1.30333	-3.60000e+01	
			         1.30500	-3.50000e+01	
			         1.30667	-3.40000e+01	
			         1.30833	-3.30000e+01	
			         1.31000	-3.20000e+01	
			         1.31167	-3.10000e+01	
			         1.31333	-2.90000e+01	
			         1.31500	-2.80000e+01	
			         1.31667	-2.70000e+01	
			         1.31833	-2.60000e+01	
			         1.32000	-2.40000e+01	
			         1.32167	-2.30000e+01	
			         1.32333	-2.20000e+01	
			         1.32500	-2.10000e+01	
			         1.32667	-2.00000e+01	
			         1.32833	-1.90000e+01	
			         1.33000	-1.80000e+01	
			         1.33167	-1.70000e+01	
			         1.33333	-1.60000e+01	
			         1.33500	-1.50000e+01	
			         1.33667	-1.40000e+01	
			         1.33833	-1.30000e+01	
			         1.34000	-1.20000e+01	
			         1.34167	-1.20000e+01	
			         1.34333	-1.10000e+01	
			         1.34500	-1.00000e+01	
			         1.34667	-1.00000e+01	
			         1.34833	-9.00000e+00	
			         1.35000	-8.00000e+00	
			         1.35167	-8.00000e+00	
			         1.35333	-8.00000e+00	
			         1.35500	-8.00000e+00	
			         1.35667	-8.00000e+00	
			         1.35833	-8.00000e+00	
			         1.36000	-8.00000e+00	
			         1.36167	-8.00000e+00	
			         1.36333	-8.00000e+00	
			         1.36500	-8.00000e+00	
			         1.36667	-8.00000e+00	
			         1.36833	-8.00000e+00	
			         1.37000	-8.00000e+00	
			         1.37167	-8.00000e+00	
			         1.37333	-7.00000e+00	
			         1.37500	-7.00000e+00	
			         1.37667	-6.00000e+00	
			         1.37833	-6.00000e+00	
			         1.38000	-5.00000e+00	
			         1.38167	-4.00000e+00	
			         1.38333	-4.00000e+00	
			         1.38500	-3.00000e+00	
			         1.38667	-3.00000e+00	
			         1.38833	-2.00000e+00	
			         1.39000	-2.00000e+00	
			         1.39167	-2.00000e+00	
			         1.39333	-2.00000e+00	
			         1.39500	-3.00000e+00	
			         1.39667	-3.00000e+00	
			         1.39833	-3.00000e+00	
			         1.40000	-4.00000e+00	
			         1.40167	-5.00000e+00	
			         1.40333	-5.00000e+00	
			         1.40500	-5.00000e+00	
			         1.40667	-6.00000e+00	
			         1.40833	-6.00000e+00	
			         1.41000	-6.00000e+00	
			         1.41167	-6.00000e+00	
			         1.41333	-6.00000e+00	
			         1.41500	-6.00000e+00	
			         1.41667	-6.00000e+00	
			         1.41833	-6.00000e+00	
			         1.42000	-6.00000e+00	
			         1.42167	-6.00000e+00	
			         1.42333	-5.00000e+00	
			         1.42500	-5.00000e+00	
			         1.42667	-5.00000e+00	
			         1.42833	-5.00000e+00	
			         1.43000	-5.00000e+00	
			         1.43167	-5.00000e+00	
			         1.43333	-5.00000e+00	
			         1.43500	-5.00000e+00	
			         1.43667	-6.00000e+00	
			         1.43833	-6.00000e+00	
			         1.44000	-7.00000e+00	
			         1.44167	-7.00000e+00	
			         1.44333	-7.00000e+00	
			         1.44500	-8.00000e+00	
			         1.44667	-8.00000e+00	
			         1.44833	-8.00000e+00	
			         1.45000	-8.00000e+00	
			         1.45167	-7.00000e+00	
			         1.45333	-7.00000e+00	
			         1.45500	-6.00000e+00	
			         1.45667	-5.00000e+00	
			         1.45833	-4.00000e+00	
			         1.46000	-3.00000e+00	
			         1.46167	-1.00000e+00	
			         1.46333	-1.00000e+00	
			         1.46500	0.00000e+00	
			         1.46667	0.00000e+00	
			         1.46833	0.00000e+00	
			         1.47000	0.00000e+00	
			         1.47167	0.00000e+00	
			         1.47333	-1.00000e+00	
			         1.47500	-2.00000e+00	
			         1.47667	-2.00000e+00	
			         1.47833	-3.00000e+00	
			         1.48000	-4.00000e+00	
			         1.48167	-5.00000e+00	
			         1.48333	-6.00000e+00	
			         1.48500	-7.00000e+00	
			         1.48667	-7.00000e+00	
			         1.48833	-8.00000e+00	
			         1.49000	-8.00000e+00	
			         1.49167	-8.00000e+00	
			         1.49333	-8.00000e+00	
			         1.49500	-8.00000e+00	
			         1.49667	-8.00000e+00	
			         1.49833	-8.00000e+00	
			         1.50000	-8.00000e+00	
			         1.50167	-8.00000e+00	
			         1.50333	-8.00000e+00	
			         1.50500	-8.00000e+00	
			         1.50667	-8.00000e+00	
			         1.50833	-8.00000e+00	
			         1.51000	-8.00000e+00	
			         1.51167	-8.00000e+00	
			         1.51333	-8.00000e+00	
			         1.51500	-8.00000e+00	
			         1.51667	-7.00000e+00	
			         1.51833	-7.00000e+00	
			         1.52000	-7.00000e+00	
			         1.52167	-7.00000e+00	
			         1.52333	-7.00000e+00	
			         1.52500	-6.00000e+00	
			         1.52667	-6.00000e+00	
			         1.52833	-5.00000e+00	
			         1.53000	-5.00000e+00	
			         1.53167	-4.00000e+00	
			         1.53333	-2.00000e+00	
			         1.53500	-1.00000e+00	
			         1.53667	1.00000e+00	
			         1.53833	3.00000e+00	
			         1.54000	6.00000e+00	
			         1.54167	8.00000e+00	
			         1.54333	1.10000e+01	
			         1.54500	1.30000e+01	
			         1.54667	1.60000e+01	
			         1.54833	1.80000e+01	
			         1.55000	2.00000e+01	
			         1.55167	2.30000e+01	
			         1.55333	2.50000e+01	
			         1.55500	2.70000e+01	
			         1.55667	2.90000e+01	
			         1.55833	3.10000e+01	
			         1.56000	3.30000e+01	
			         1.56167	3.50000e+01	
			         1.56333	3.80000e+01	
			         1.56500	4.10000e+01	
			         1.56667	4.40000e+01	
			         1.56833	4.70000e+01	
			         1.57000	5.10000e+01	
			         1.57167	5.50000e+01	
			         1.57333	5.90000e+01	
			         1.57500	6.30000e+01	
			         1.57667	6.80000e+01	
			         1.57833	7.20000e+01	
			         1.58000	7.50000e+01	
			         1.58167	7.80000e+01	
			         1.58333	8.10000e+01	
			         1.58500	8.20000e+01	
			         1.58667	8.30000e+01	
			         1.58833	8.30000e+01	
			         1.59000	8.20000e+01	
			         1.59167	8.10000e+01	
			         1.59333	7.80000e+01	
			         1.59500	7.50000e+01	
			         1.59667	7.20000e+01	
			         1.59833	6.70000e+01	
			         1.60000	6.30000e+01	
			         1.60167	5.80000e+01	
			         1.60333	5.30000e+01	
			         1.60500	4.70000e+01	
			         1.60667	4.20000e+01	
			         1.60833	3.60000e+01	
			         1.61000	2.90000e+01	
			         1.61167	2.20000e+01	
			         1.61333	1.50000e+01	
			         1.61500	8.00000e+00	
			         1.61667	0.00000e+00	
			         1.61833	-7.00000e+00	
			         1.62000	-1.40000e+01	
			         1.62167	-2.10000e+01	
			         1.62333	-2.80000e+01	
			         1.62500	-3.40000e+01	
			         1.62667	-4.00000e+01	
			         1.62833	-4.50000e+01	
			         1.63000	-5.00000e+01	
			         1.63167	-5.30000e+01	
			         1.63333	-5.60000e+01	
			         1.63500	-5.80000e+01	
			         1.63667	-6.00000e+01	
			         1.63833	-6.10000e+01	
			         1.64000	-6.20000e+01	
			         1.64167	-6.20000e+01	
			         1.64333	-6.20000e+01	
			         1.64500	-6.30000e+01	
			         1.64667	-6.30000e+01	
			         1.64833	-6.30000e+01	
			         1.65000	-6.30000e+01	
			         1.65167	-6.20000e+01	
			         1.65333	-6.20000e+01	
			         1.65500	-6.20000e+01	
			         1.65667	-6.20000e+01	
			         1.65833	-6.30000e+01	
			         1.66000	-6.30000e+01	
			         1.66167	-6.30000e+01	
			         1.66333	-6.30000e+01	
			         1.66500	-6.30000e+01	
			         1.66667	-6.30000e+01	
			         1.66833	-6.20000e+01	
			         1.67000	-6.20000e+01	
			         1.67167	-6.10000e+01	
			         1.67333	-6.00000e+01	
			         1.67500	-5.90000e+01	
			         1.67667	-5.80000e+01	
			         1.67833	-5.60000e+01	
			         1.68000	-5.50000e+01	
			         1.68167	-5.30000e+01	
			         1.68333	-5.10000e+01	
			         1.68500	-5.00000e+01	
			         1.68667	-4.80000e+01	
			         1.68833	-4.60000e+01	
			         1.69000	-4.40000e+01	
			         1.69167	-4.20000e+01	
			         1.69333	-4.00000e+01	
			         1.69500	-3.90000e+01	
			         1.69667	-3.70000e+01	
			         1.69833	-3.60000e+01	
			         1.70000	-3.40000e+01	
			         1.70167	-3.30000e+01	
			         1.70333	-3.30000e+01	
			         1.70500	-3.20000e+01	
			         1.70667	-3.20000e+01	
			         1.70833	-3.10000e+01	
			         1.71000	-3.10000e+01	
			         1.71167	-3.10000e+01	
			         1.71333	-3.00000e+01	
			         1.71500	-3.00000e+01	
			         1.71667	-3.00000e+01	
			         1.71833	-2.90000e+01	
			         1.72000	-2.90000e+01	
			         1.72167	-2.90000e+01	
			         1.72333	-2.80000e+01	
			         1.72500	-2.60000e+01	
			         1.72667	-2.30000e+01	
			         1.72833	-1.90000e+01	
			         1.73000	-1.30000e+01	
			         1.73167	-4.00000e+00	
			         1.73333	8.00000e+00	
			         1.73500	2.40000e+01	
			         1.73667	4.50000e+01	
			         1.73833	7.20000e+01	
			         1.74000	1.03000e+02	
			         1.74167	1.38000e+02	
			         1.74333	1.76000e+02	
			         1.74500	2.16000e+02	
			         1.74667	2.54000e+02	
			         1.74833	2.91000e+02	
			         1.75000	3.24000e+02	
			         1.75167	3.52000e+02	
			         1.75333	3.73000e+02	
			         1.75500	3.87000e+02	
			         1.75667	3.91000e+02	
			         1.75833	3.86000e+02	
			         1.76000	3.73000e+02	
			         1.76167	3.51000e+02	
			         1.76333	3.24000e+02	
			         1.76500	2.92000e+02	
			         1.76667	2.57000e+02	
			         1.76833	2.20000e+02	
			         1.77000	1.83000e+02	
			         1.77167	1.47000e+02	
			         1.77333	1.12000e+02	
			         1.77500	8.00000e+01	
			         1.77667	5.10000e+01	
			         1.77833	2.50000e+01	
			         1.78000	2.00000e+00	
			         1.78167	-1.80000e+01	
			         1.78333	-3.50000e+01	
			         1.78500	-5.00000e+01	
			         1.78667	-6.30000e+01	
			         1.78833	-7.40000e+01	
			         1.79000	-8.30000e+01	
			         1.79167	-9.10000e+01	
			         1.79333	-9.70000e+01	
			         1.79500	-1.02000e+02	
			         1.79667	-1.05000e+02	
			         1.79833	-1.08000e+02	
			         1.80000	-1.09000e+02	
			         1.80167	-1.10000e+02	
			         1.80333	-1.09000e+02	
			         1.80500	-1.08000e+02	
			         1.80667	-1.07000e+02	
			         1.80833	-1.05000e+02	
			         1.81000	-1.03000e+02	
			         1.81167	-1.01000e+02	
			         1.81333	-9.80000e+01	
			         1.81500	-9.60000e+01	
			         1.81667	-9.40000e+01	
			         1.81833	-9.20000e+01	
			         1.82000	-9.00000e+01	
			         1.82167	-8.80000e+01	
			         1.82333	-8.70000e+01	
			         1.82500	-8.50000e+01	
			         1.82667	-8.40000e+01	
			         1.82833	-8.20000e+01	
			         1.83000	-8.10000e+01	
			         1.83167	-7.90000e+01	
			         1.83333	-7.80000e+01	
			         1.83500	-7.60000e+01	
			         1.83667	-7.50000e+01	
			         1.83833	-7.30000e+01	
			         1.84000	-7.20000e+01	
			         1.84167	-7.00000e+01	
			         1.84333	-6.80000e+01	
			         1.84500	-6.70000e+01	
			         1.84667	-6.50000e+01	
			         1.84833	-6.40000e+01	
			         1.85000	-6.30000e+01	
			         1.85167	-6.10000e+01	
			         1.85333	-6.00000e+01	
			         1.85500	-5.80000e+01	
			         1.85667	-5.70000e+01	
			         1.85833	-5.50000e+01	
			         1.86000	-5.30000e+01	
			         1.86167	-5.10000e+01	
			         1.86333	-4.90000e+01	
			         1.86500	-4.70000e+01	
			         1.86667	-4.50000e+01	
			         1.86833	-4.30000e+01	
			         1.87000	-4.10000e+01	
			         1.87167	-3.90000e+01	
			         1.87333	-3.60000e+01	
			         1.87500	-3.40000e+01	
			         1.87667	-3.10000e+01	
			         1.87833	-2.90000e+01	
			         1.88000	-2.60000e+01	
			         1.88167	-2.40000e+01	
			         1.88333	-2.20000e+01	
			         1.88500	-1.90000e+01	
			         1.88667	-1.70000e+01	
			         1.88833	-1.50000e+01	
			         1.89000	-1.30000e+01	
			         1.89167	-1.10000e+01	
			         1.89333	-1.00000e+01	
			         1.89500	-8.00000e+00	
			         1.89667	-7.00000e+00	
			         1.89833	-5.00000e+00	
			         1.90000	-4.00000e+00	
			         1.90167	-3.00000e+00	
			         1.90333	-2.00000e+00	
			         1.90500	-2.00000e+00	
			         1.90667	-1.00000e+00	
			         1.90833	0.00000e+00	
			         1.91000	0.00000e+00	
			         1.91167	0.00000e+00	
			         1.91333	1.00000e+00	
			         1.91500	1.00000e+00	
			         1.91667	1.00000e+00	
			         1.91833	2.00000e+00	
			         1.92000	2.00000e+00	
			         1.92167	3.00000e+00	
			         1.92333	4.00000e+00	
			         1.92500	5.00000e+00	
			         1.92667	6.00000e+00	
			         1.92833	7.00000e+00	
			         1.93000	8.00000e+00	
			         1.93167	9.00000e+00	
			         1.93333	1.10000e+01	
			         1.93500	1.20000e+01	
			         1.93667	1.30000e+01	
			         1.93833	1.40000e+01	
			         1.94000	1.50000e+01	
			         1.94167	1.60000e+01	
			         1.94333	1.70000e+01	
			         1.94500	1.80000e+01	
			         1.94667	1.90000e+01	
			         1.94833	2.00000e+01	
			         1.95000	2.10000e+01	
			         1.95167	2.30000e+01	
			         1.95333	2.40000e+01	
			         1.95500	2.60000e+01	
			         1.95667	2.80000e+01	
			         1.95833	3.00000e+01	
			         1.96000	3.20000e+01	
			         1.96167	3.40000e+01	
			         1.96333	3.70000e+01	
			         1.96500	3.90000e+01	
			         1.96667	4.10000e+01	
			         1.96833	4.30000e+01	
			         1.97000	4.40000e+01	
			         1.97167	4.60000e+01	
			         1.97333	4.80000e+01	
			         1.97500	5.00000e+01	
			         1.97667	5.10000e+01	
			         1.97833	5.30000e+01	
			         1.98000	5.50000e+01	
			         1.98167	5.70000e+01	
			         1.98333	5.80000e+01	
			         1.98500	6.00000e+01	
			         1.98667	6.20000e+01	
			         1.98833	6.40000e+01	
			         1.99000	6.60000e+01	
			         1.99167	6.80000e+01	
			         1.99333	7.00000e+01	
			         1.99500	7.10000e+01	
			         1.99667	7.30000e+01	
			         1.99833	7.50000e+01	
			         2.00000	7.70000e+01	
			         2.00167	7.80000e+01	
			         2.00333	7.90000e+01	
			         2.00500	8.10000e+01	
			         2.00667	8.20000e+01	
			         2.00833	8.30000e+01	
			         2.01000	8.30000e+01	
			         2.01167	8.40000e+01	
			         2.01333	8.50000e+01	
			         2.01500	8.50000e+01	
			         2.01667	8.50000e+01	
			         2.01833	8.50000e+01	
			         2.02000	8.50000e+01	
			         2.02167	8.40000e+01	
			         2.02333	8.40000e+01	
			         2.02500	8.40000e+01	
			         2.02667	8.30000e+01	
			         2.02833	8.30000e+01	
			         2.03000	8.20000e+01	
			         2.03167	8.10000e+01	
			         2.03333	8.00000e+01	
			         2.03500	7.80000e+01	
			         2.03667	7.70000e+01	
			         2.03833	7.50000e+01	
			         2.04000	7.40000e+01	
			         2.04167	7.20000e+01	
			         2.04333	7.00000e+01	
			         2.04500	6.70000e+01	
			         2.04667	6.50000e+01	
			         2.04833	6.20000e+01	
			         2.05000	5.90000e+01	
			         2.05167	5.50000e+01	
			         2.05333	5.10000e+01	
			         2.05500	4.70000e+01	
			         2.05667	4.30000e+01	
			         2.05833	3.80000e+01	
			         2.06000	3.40000e+01	
			         2.06167	2.90000e+01	
			         2.06333	2.30000e+01	
			         2.06500	1.80000e+01	
			         2.06667	1.30000e+01	
			         2.06833	8.00000e+00	
			         2.07000	3.00000e+00	
			         2.07167	-2.00000e+00	
			         2.07333	-7.00000e+00	
			         2.07500	-1.10000e+01	
			         2.07667	-1.60000e+01	
			         2.07833	-2.00000e+01	
			         2.08000	-2.40000e+01	
			         2.08167	-2.80000e+01	
			         2.08333	-3.20000e+01	
			         2.08500	-3.50000e+01	
			         2.08667	-3.80000e+01	
			         2.08833	-4.10000e+01	
			         2.09000	-4.40000e+01	
			         2.09167	-4.70000e+01	
			         2.09333	-4.90000e+01	
			         2.09500	-5.20000e+01	
			         2.09667	-5.30000e+01	
			         2.09833	-5.50000e+01	
			         2.10000	-5.70000e+01	
			         2.10167	-5.80000e+01	
			         2.10333	-6.00000e+01	
			         2.10500	-6.10000e+01	
			         2.10667	-6.10000e+01	
			         2.10833	-6.20000e+01	
			         2.11000	-6.20000e+01	
			         2.11167	-6.20000e+01	
			         2.11333	-6.20000e+01	
			         2.11500	-6.20000e+01	
			         2.11667	-6.10000e+01	
			         2.11833	-6.10000e+01	
			         2.12000	-6.00000e+01	
			         2.12167	-5.90000e+01	
			         2.12333	-5.90000e+01	
			         2.12500	-5.80000e+01	
			         2.12667	-5.80000e+01	
			         2.12833	-5.70000e+01	
			         2.13000	-5.70000e+01	
			         2.13167	-5.60000e+01	
			         2.13333	-5.50000e+01	
			         2.13500	-5.50000e+01	
			         2.13667	-5.40000e+01	
			         2.13833	-5.40000e+01	
			         2.14000	-5.30000e+01	
			         2.14167	-5.20000e+01	
			         2.14333	-5.10000e+01	
			         2.14500	-5.00000e+01	
			         2.14667	-4.80000e+01	
			         2.14833	-4.70000e+01	
			         2.15000	-4.60000e+01	
			         2.15167	-4.50000e+01	
			         2.15333	-4.40000e+01	
			         2.15500	-4.30000e+01	
			         2.15667	-4.10000e+01	
			         2.15833	-4.10000e+01	
			         2.16000	-4.00000e+01	
			         2.16167	-3.80000e+01	
			         2.16333	-3.70000e+01	
			         2.16500	-3.60000e+01	
			         2.16667	-3.50000e+01	
			         2.16833	-3.30000e+01	
			         2.17000	-3.20000e+01	
			         2.17167	-3.00000e+01	
			         2.17333	-2.90000e+01	
			         2.17500	-2.70000e+01	
			         2.17667	-2.60000e+01	
			         2.17833	-2.40000e+01	
			         2.18000	-2.30000e+01	
			         2.18167	-2.10000e+01	
			         2.18333	-2.00000e+01	
			         2.18500	-1.90000e+01	
			         2.18667	-1.80000e+01	
			         2.18833	-1.70000e+01	
			         2.19000	-1.70000e+01	
			         2.19167	-1.60000e+01	
			         2.19333	-1.50000e+01	
			         2.19500	-1.50000e+01	
			         2.19667	-1.40000e+01	
			         2.19833	-1.40000e+01	
			         2.20000	-1.30000e+01	
			         2.20167	-1.20000e+01	
			         2.20333	-1.10000e+01	
			         2.20500	-1.00000e+01	
			         2.20667	-9.00000e+00	
			         2.20833	-8.00000e+00	
			         2.21000	-7.00000e+00	
			         2.21167	-6.00000e+00	
			         2.21333	-5.00000e+00	
			         2.21500	-4.00000e+00	
			         2.21667	-3.00000e+00	
			         2.21833	-3.00000e+00	
			         2.22000	-2.00000e+00	
			         2.22167	-2.00000e+00	
			         2.22333	-2.00000e+00	
			         2.22500	-2.00000e+00	
			         2.22667	-2.00000e+00	
			         2.22833	-2.00000e+00	
			         2.23000	-2.00000e+00	
			         2.23167	-2.00000e+00	
			         2.23333	-2.00000e+00	
			         2.23500	-1.00000e+00	
			         2.23667	-1.00000e+00	
			         2.23833	-1.00000e+00	
			         2.24000	-1.00000e+00	
			         2.24167	0.00000e+00	
			         2.24333	0.00000e+00	
			         2.24500	0.00000e+00	
			         2.24667	0.00000e+00	
			         2.24833	0.00000e+00	
			         2.25000	0.00000e+00	
			         2.25167	0.00000e+00	
			         2.25333	0.00000e+00	
			         2.25500	0.00000e+00	
			         2.25667	0.00000e+00	
			         2.25833	0.00000e+00	
			         2.26000	-1.00000e+00	
			         2.26167	-1.00000e+00	
			         2.26333	-1.00000e+00	
			         2.26500	-2.00000e+00	
			         2.26667	-2.00000e+00	
			         2.26833	-3.00000e+00	
			         2.27000	-4.00000e+00	
			         2.27167	-4.00000e+00	
			         2.27333	-5.00000e+00	
			         2.27500	-6.00000e+00	
			         2.27667	-6.00000e+00	
			         2.27833	-7.00000e+00	
			         2.28000	-7.00000e+00	
			         2.28167	-7.00000e+00	
			         2.28333	-7.00000e+00	
			         2.28500	-7.00000e+00	
			         2.28667	-7.00000e+00	
			         2.28833	-7.00000e+00	
			         2.29000	-7.00000e+00	
			         2.29167	-7.00000e+00	
			         2.29333	-7.00000e+00	
			         2.29500	-7.00000e+00	
			         2.29667	-7.00000e+00	
			         2.29833	-6.00000e+00	
			         2.30000	-6.00000e+00	
			         2.30167	-7.00000e+00	
			         2.30333	-7.00000e+00	
			         2.30500	-7.00000e+00	
			         2.30667	-7.00000e+00	
			         2.30833	-7.00000e+00	
			         2.31000	-7.00000e+00	
			         2.31167	-7.00000e+00	
			         2.31333	-7.00000e+00	
			         2.31500	-7.00000e+00	
			         2.31667	-8.00000e+00	
			         2.31833	-8.00000e+00	
			         2.32000	-7.00000e+00	
			         2.32167	-7.00000e+00	
			         2.32333	-7.00000e+00	
			         2.32500	-7.00000e+00	
			         2.32667	-6.00000e+00	
			         2.32833	-6.00000e+00	
			         2.33000	-6.00000e+00	
			         2.33167	-6.00000e+00	
			         2.33333	-6.00000e+00	
			         2.33500	-6.00000e+00	
			         2.33667	-6.00000e+00	
			         2.33833	-6.00000e+00	
			         2.34000	-6.00000e+00	
			         2.34167	-7.00000e+00	
			         2.34333	-7.00000e+00	
			         2.34500	-7.00000e+00	
			         2.34667	-8.00000e+00	
			         2.34833	-8.00000e+00	
			         2.35000	-8.00000e+00	
			         2.35167	-8.00000e+00	
			         2.35333	-7.00000e+00	
			         2.35500	-7.00000e+00	
			         2.35667	-7.00000e+00	
			         2.35833	-7.00000e+00	
			         2.36000	-7.00000e+00	
			         2.36167	-7.00000e+00	
			         2.36333	-7.00000e+00	
			         2.36500	-7.00000e+00	
			         2.36667	-7.00000e+00	
			         2.36833	-7.00000e+00	
			         2.37000	-7.00000e+00	
			         2.37167	-7.00000e+00	
			         2.37333	-8.00000e+00	
			         2.37500	-8.00000e+00	
			         2.37667	-8.00000e+00	
			         2.37833	-8.00000e+00	
			         2.38000	-8.00000e+00	
			         2.38167	-8.00000e+00	
			         2.38333	-7.00000e+00	
			         2.38500	-7.00000e+00	
			         2.38667	-6.00000e+00	
			         2.38833	-5.00000e+00	
			         2.39000	-4.00000e+00	
			         2.39167	-3.00000e+00	
			         2.39333	-1.00000e+00	
			         2.39500	0.00000e+00	
			         2.39667	2.00000e+00	
			         2.39833	4.00000e+00	
			         2.40000	6.00000e+00	
			         2.40167	7.00000e+00	
			         2.40333	9.00000e+00	
			         2.40500	1.10000e+01	
			         2.40667	1.30000e+01	
			         2.40833	1.50000e+01	
			         2.41000	1.70000e+01	
			         2.41167	1.90000e+01	
			         2.41333	2.10000e+01	
			         2.41500	2.30000e+01	
			         2.41667	2.50000e+01	
			         2.41833	2.80000e+01	
			         2.42000	3.10000e+01	
			         2.42167	3.40000e+01	
			         2.42333	3.80000e+01	
			         2.42500	4.10000e+01	
			         2.42667	4.50000e+01	
			         2.42833	4.90000e+01	
			         2.43000	5.30000e+01	
			         2.43167	5.70000e+01	
			         2.43333	6.10000e+01	
			         2.43500	6.50000e+01	
			         2.43667	6.80000e+01	
			         2.43833	7.20000e+01	
			         2.44000	7.40000e+01	
			         2.44167	7.60000e+01	
			         2.44333	7.80000e+01	
			         2.44500	7.80000e+01	
			         2.44667	7.80000e+01	
			         2.44833	7.80000e+01	
			         2.45000	7.60000e+01	
			         2.45167	7.40000e+01	
			         2.45333	7.00000e+01	
			         2.45500	6.60000e+01	
			         2.45667	6.10000e+01	
			         2.45833	5.60000e+01	
			         2.46000	5.10000e+01	
			         2.46167	4.50000e+01	
			         2.46333	3.90000e+01	
			         2.46500	3.30000e+01	
			         2.46667	2.60000e+01	
			         2.46833	2.00000e+01	
			         2.47000	1.30000e+01	
			         2.47167	6.00000e+00	
			         2.47333	0.00000e+00	
			         2.47500	-7.00000e+00	
			         2.47667	-1.40000e+01	
			         2.47833	-2.00000e+01	
			         2.48000	-2.70000e+01	
			         2.48167	-3.20000e+01	
			         2.48333	-3.80000e+01	
			         2.48500	-4.30000e+01	
			         2.48667	-4.80000e+01	
			         2.48833	-5.20000e+01	
			         2.49000	-5.50000e+01	
			         2.49167	-5.80000e+01	
			         2.49333	-6.10000e+01	
			         2.49500	-6.30000e+01	
			         2.49667	-6.50000e+01	
			         2.49833	-6.60000e+01	
			         2.50000	-6.70000e+01	
			         2.50167	-6.80000e+01	
			         2.50333	-6.80000e+01	
			         2.50500	-6.80000e+01	
			         2.50667	-6.70000e+01	
			         2.50833	-6.60000e+01	
			         2.51000	-6.50000e+01	
			         2.51167	-6.40000e+01	
			         2.51333	-6.30000e+01	
			         2.51500	-6.10000e+01	
			         2.51667	-6.00000e+01	
			         2.51833	-5.80000e+01	
			         2.52000	-5.70000e+01	
			         2.52167	-5.60000e+01	
			         2.52333	-5.50000e+01	
			         2.52500	-5.40000e+01	
			         2.52667	-5.30000e+01	
			         2.52833	-5.20000e+01	
			         2.53000	-5.20000e+01	
			         2.53167	-5.10000e+01	
			         2.53333	-5.10000e+01	
			         2.53500	-5.10000e+01	
			         2.53667	-5.00000e+01	
			         2.53833	-5.00000e+01	
			         2.54000	-5.00000e+01	
			         2.54167	-5.00000e+01	
			         2.54333	-5.00000e+01	
			         2.54500	-4.90000e+01	
			         2.54667	-4.90000e+01	
			         2.54833	-4.90000e+01	
			         2.55000	-4.80000e+01	
			         2.55167	-4.80000e+01	
			         2.55333	-4.70000e+01	
			         2.55500	-4.60000e+01	
			         2.55667	-4.50000e+01	
			         2.55833	-4.40000e+01	
			         2.56000	-4.30000e+01	
			         2.56167	-4.20000e+01	
			         2.56333	-4.10000e+01	
			         2.56500	-4.00000e+01	
			         2.56667	-3.90000e+01	
			         2.56833	-3.80000e+01	
			         2.57000	-3.60000e+01	
			         2.57167	-3.50000e+01	
			         2.57333	-3.40000e+01	
			         2.57500	-3.40000e+01	
			         2.57667	-3.30000e+01	
			         2.57833	-3.20000e+01	
			         2.58000	-3.20000e+01	
			         2.58167	-3.00000e+01	
			         2.58333	-2.80000e+01	
			         2.58500	-2.40000e+01	
			         2.58667	-1.90000e+01	
			         2.58833	-1.10000e+01	
			         2.59000	0.00000e+00	
			         2.59167	1.50000e+01	
			         2.59333	3.40000e+01	
			         2.59500	5.90000e+01	
			         2.59667	8.80000e+01	
			         2.59833	1.22000e+02	
			         2.60000	1.59000e+02	
			         2.60167	1.98000e+02	
			         2.60333	2.37000e+02	
			         2.60500	2.74000e+02	
			         2.60667	3.08000e+02	
			         2.60833	3.37000e+02	
			         2.61000	3.60000e+02	
			         2.61167	3.75000e+02	
			         2.61333	3.82000e+02	
			         2.61500	3.79000e+02	
			         2.61667	3.68000e+02	
			         2.61833	3.48000e+02	
			         2.62000	3.22000e+02	
			         2.62167	2.91000e+02	
			         2.62333	2.57000e+02	
			         2.62500	2.21000e+02	
			         2.62667	1.84000e+02	
			         2.62833	1.48000e+02	
			         2.63000	1.14000e+02	
			         2.63167	8.20000e+01	
			         2.63333	5.30000e+01	
			         2.63500	2.70000e+01	
			         2.63667	5.00000e+00	
			         2.63833	-1.50000e+01	
			         2.64000	-3.30000e+01	
			         2.64167	-4.80000e+01	
			         2.64333	-6.10000e+01	
			         2.64500	-7.30000e+01	
			         2.64667	-8.30000e+01	
			         2.64833	-9.10000e+01	
			         2.65000	-9.80000e+01	
			         2.65167	-1.04000e+02	
			         2.65333	-1.09000e+02	
			         2.65500	-1.13000e+02	
			         2.65667	-1.15000e+02	
			         2.65833	-1.16000e+02	
			         2.66000	-1.17000e+02	
			         2.66167	-1.17000e+02	
			         2.66333	-1.16000e+02	
			         2.66500	-1.14000e+02	
			         2.66667	-1.12000e+02	
			         2.66833	-1.10000e+02	
