Velocity (TVI), in cm/s

Time (s) :	Trace 1 : 		Ecg : 		
0.01219   	-5.88707e-01		         0.00000	2.43000e+02	
0.01833   	-1.34317e+00		         0.00167	2.81000e+02	
0.02447   	-1.60741e+00		         0.00333	3.16000e+02	
0.03088   	-2.24011e+00		         0.00500	3.48000e+02	
0.03702   	-2.60084e+00		         0.00667	3.74000e+02	
0.04315   	-1.98681e+00		         0.00833	3.93000e+02	
0.04929   	-1.19382e+00		         0.01000	4.04000e+02	
0.05570   	-5.48758e-01		         0.01167	4.06000e+02	
0.06184   	5.32509e-02		         0.01333	3.97000e+02	
0.06798   	6.66677e-01		         0.01500	3.79000e+02	
0.07411   	1.41444e+00		         0.01667	3.51000e+02	
0.08052   	2.14583e+00		         0.01833	3.15000e+02	
0.08666   	2.99223e+00		         0.02000	2.73000e+02	
0.09280   	3.77348e+00		         0.02167	2.26000e+02	
0.09893   	4.41986e+00		         0.02333	1.77000e+02	
0.10534   	4.86050e+00		         0.02500	1.27000e+02	
0.11148   	5.21399e+00		         0.02667	7.90000e+01	
0.11762   	5.38107e+00		         0.02833	3.20000e+01	
0.12376   	5.63200e+00		         0.03000	-1.10000e+01	
0.13016   	5.78470e+00		         0.03167	-5.00000e+01	
0.13631   	5.84454e+00		         0.03333	-8.40000e+01	
0.14244   	5.84560e+00		         0.03500	-1.12000e+02	
0.14858   	5.88854e+00		         0.03667	-1.34000e+02	
0.15499   	5.78267e+00		         0.03833	-1.51000e+02	
0.16113   	5.73457e+00		         0.04000	-1.62000e+02	
0.16727   	5.65132e+00		         0.04167	-1.69000e+02	
0.17340   	5.67779e+00		         0.04333	-1.71000e+02	
0.17981   	5.68243e+00		         0.04500	-1.70000e+02	
0.18595   	5.70175e+00		         0.04667	-1.66000e+02	
0.19209   	5.70732e+00		         0.04833	-1.60000e+02	
0.19822   	5.71559e+00		         0.05000	-1.52000e+02	
0.20463   	5.58219e+00		         0.05167	-1.44000e+02	
0.21077   	5.42259e+00		         0.05333	-1.34000e+02	
0.21691   	5.35705e+00		         0.05500	-1.25000e+02	
0.22305   	5.21702e+00		         0.05667	-1.15000e+02	
0.22945   	5.03601e+00		         0.05833	-1.06000e+02	
0.23559   	4.86837e+00		         0.06000	-9.80000e+01	
0.24173   	4.68319e+00		         0.06167	-9.00000e+01	
0.24787   	4.44456e+00		         0.06333	-8.40000e+01	
0.25428   	4.29822e+00		         0.06500	-7.80000e+01	
0.26041   	4.14926e+00		         0.06667	-7.30000e+01	
0.26655   	4.03786e+00		         0.06833	-6.90000e+01	
0.27269   	3.96306e+00		         0.07000	-6.60000e+01	
0.27910   	3.81531e+00		         0.07167	-6.40000e+01	
0.28524   	3.53804e+00		         0.07333	-6.20000e+01	
0.29137   	3.29739e+00		         0.07500	-6.10000e+01	
0.29751   	3.07271e+00		         0.07667	-6.00000e+01	
0.30392   	2.86671e+00		         0.07833	-6.00000e+01	
0.31006   	2.65211e+00		         0.08000	-6.00000e+01	
0.31619   	2.60160e+00		         0.08167	-6.00000e+01	
0.32233   	2.49701e+00		         0.08333	-6.00000e+01	
0.32874   	2.34771e+00		         0.08500	-6.00000e+01	
0.33488   	2.16729e+00		         0.08667	-6.00000e+01	
0.34102   	2.03466e+00		         0.08833	-5.90000e+01	
0.34715   	1.76870e+00		         0.09000	-5.90000e+01	
0.35356   	1.53282e+00		         0.09167	-5.80000e+01	
0.35970   	1.24902e+00		         0.09333	-5.70000e+01	
0.36584   	8.97390e-01		         0.09500	-5.60000e+01	
0.37198   	5.03427e-01		         0.09667	-5.50000e+01	
0.37839   	5.60575e-02		         0.09833	-5.40000e+01	
0.38453   	-3.35582e-01		         0.10000	-5.20000e+01	
0.39066   	-5.88944e-01		         0.10167	-5.20000e+01	
0.39680   	-7.70187e-01		         0.10333	-5.10000e+01	
0.40321   	-8.56704e-01		         0.10500	-5.00000e+01	
0.40934   	-8.70749e-01		         0.10667	-4.90000e+01	
0.41548   	-9.48943e-01		         0.10833	-4.90000e+01	
0.42162   	-1.10966e+00		         0.11000	-4.80000e+01	
0.42811   	-1.23565e+00		         0.11167	-4.70000e+01	
0.43417   	-1.41382e+00		         0.11333	-4.70000e+01	
0.44031   	-1.56539e+00		         0.11500	-4.60000e+01	
0.44644   	-1.66197e+00		         0.11667	-4.50000e+01	
0.45285   	-1.64035e+00		         0.11833	-4.40000e+01	
0.45899   	-1.65528e+00		         0.12000	-4.20000e+01	
0.46513   	-1.61455e+00		         0.12167	-4.10000e+01	
0.47127   	-1.38287e+00		         0.12333	-3.90000e+01	
0.47784   	-1.21070e+00		         0.12500	-3.80000e+01	
0.48381   	-1.27026e+00		         0.12667	-3.60000e+01	
0.48995   	-1.28031e+00		         0.12833	-3.30000e+01	
0.49609   	-1.59170e+00		         0.13000	-3.10000e+01	
0.50250   	-2.21679e+00		         0.13167	-2.90000e+01	
0.50863   	-2.85587e+00		         0.13333	-2.60000e+01	
0.51477   	-3.44080e+00		         0.13500	-2.30000e+01	
0.52091   	-4.12199e+00		         0.13667	-2.10000e+01	
0.52732   	-4.45876e+00		         0.13833	-1.80000e+01	
0.53346   	-4.68770e+00		         0.14000	-1.60000e+01	
0.53959   	-4.72026e+00		         0.14167	-1.40000e+01	
0.54573   	-4.45907e+00		         0.14333	-1.20000e+01	
0.55214   	-4.10670e+00		         0.14500	-1.00000e+01	
0.55828   	-3.58084e+00		         0.14667	-9.00000e+00	
0.56441   	-2.95163e+00		         0.14833	-8.00000e+00	
0.57055   	-2.47042e+00		         0.15000	-7.00000e+00	
0.57696   	-2.06659e+00		         0.15167	-6.00000e+00	
0.58310   	-1.77463e+00		         0.15333	-5.00000e+00	
0.58924   	-1.57628e+00		         0.15500	-4.00000e+00	
0.59537   	-1.51032e+00		         0.15667	-3.00000e+00	
0.60178   	-1.28356e+00		         0.15833	-2.00000e+00	
0.60792   	-1.23935e+00		         0.16000	0.00000e+00	
0.61406   	-1.10712e+00		         0.16167	1.00000e+00	
0.62020   	-1.07553e+00		         0.16333	3.00000e+00	
0.62660   	-9.33018e-01		         0.16500	6.00000e+00	
0.63274   	-9.83195e-01		         0.16667	9.00000e+00	
0.63888   	-9.59201e-01		         0.16833	1.20000e+01	
0.64502   	-8.92191e-01		         0.17000	1.50000e+01	
0.65143   	-8.71580e-01		         0.17167	1.90000e+01	
0.65756   	-8.50236e-01		         0.17333	2.20000e+01	
0.66370   	-7.53774e-01		         0.17500	2.50000e+01	
0.66984   	-6.71875e-01		         0.17667	2.90000e+01	
0.67625   	-5.95183e-01		         0.17833	3.20000e+01	
0.68239   	-4.87881e-01		         0.18000	3.50000e+01	
0.68852   	-4.08271e-01		         0.18167	3.70000e+01	
0.69466   	-3.49352e-01		         0.18333	4.00000e+01	
0.70107   	-2.67818e-01		         0.18500	4.20000e+01	
0.70721   	-2.33843e-01		         0.18667	4.50000e+01	
0.71335   	-1.94418e-01		         0.18833	4.70000e+01	
0.71948   	-1.70816e-01		         0.19000	4.90000e+01	
0.72589   	-1.48454e-01		         0.19167	5.20000e+01	
0.73203   	-1.58971e-01		         0.19333	5.40000e+01	
0.73817   	-1.48500e-01		         0.19500	5.70000e+01	
0.74430   	-1.65657e-01		         0.19667	6.00000e+01	
0.75071   	-1.78495e-01		         0.19833	6.30000e+01	
0.75685   	-1.83616e-01		         0.20000	6.60000e+01	
0.76299   	-1.79808e-01		         0.20167	6.90000e+01	
0.76913   	-1.87451e-01		         0.20333	7.30000e+01	
0.77553   	-1.83976e-01		         0.20500	7.70000e+01	
0.78168   	-1.79295e-01		         0.20667	8.00000e+01	
0.78781   	-1.78919e-01		         0.20833	8.40000e+01	
0.79395   	-1.80385e-01		         0.21000	8.80000e+01	
0.80036   	-1.79154e-01		         0.21167	9.20000e+01	
0.80650   	-1.84913e-01		         0.21333	9.50000e+01	
0.81264   	-1.92688e-01		         0.21500	9.90000e+01	
0.81877   	-2.02362e-01		         0.21667	1.03000e+02	
0.82518   	-2.04102e-01		         0.21833	1.07000e+02	
0.83132   	-2.36394e-01		         0.22000	1.11000e+02	
0.83746   	-2.50379e-01		         0.22167	1.14000e+02	
0.84359   	-3.30617e-01		         0.22333	1.17000e+02	
0.85000   	-5.51684e-01		         0.22500	1.21000e+02	
0.85614   	-1.04741e+00		         0.22667	1.24000e+02	
0.86228   	-1.78485e+00		         0.22833	1.26000e+02	
0.86842   	-2.80810e+00		         0.23000	1.29000e+02	
0.87482   	-4.06729e+00		         0.23167	1.31000e+02	
0.88096   	-5.48299e+00		         0.23333	1.33000e+02	
0.88710   	-6.64270e+00		         0.23500	1.34000e+02	
0.89324   	-7.68708e+00		         0.23667	1.36000e+02	
0.89965   	-8.42243e+00		         0.23833	1.36000e+02	
0.90578   	-8.75007e+00		         0.24000	1.37000e+02	
0.91192   	-8.68336e+00		         0.24167	1.37000e+02	
0.91806   	-8.39292e+00		         0.24333	1.36000e+02	
0.92447   	-7.71704e+00		         0.24500	1.35000e+02	
0.93061   	-6.77026e+00		         0.24667	1.34000e+02	
0.93674   	-5.61523e+00		         0.24833	1.32000e+02	
0.94307   	-4.39556e+00		         0.25000	1.30000e+02	
0.94928   	-3.34582e+00		         0.25167	1.28000e+02	
0.95543   	-2.49762e+00		         0.25333	1.26000e+02	
0.96156   	-1.89265e+00		         0.25500	1.23000e+02	
0.96771   	-1.56213e+00		         0.25667	1.19000e+02	
0.97411   	-1.40471e+00		         0.25833	1.15000e+02	
0.98025   	-1.30854e+00		         0.26000	1.11000e+02	
0.98639   	-1.09864e+00		         0.26167	1.07000e+02	
0.99281   	-7.75002e-01		         0.26333	1.02000e+02	
0.99893   	-4.82674e-01		         0.26500	9.60000e+01	
1.00507   	-3.56667e-01		         0.26667	9.00000e+01	
1.01121   	-5.01248e-01		         0.26833	8.40000e+01	
1.01735   	-1.00975e+00		         0.27000	7.70000e+01	
1.02375   	-1.64237e+00		         0.27167	7.00000e+01	
1.02990   	-2.08669e+00		         0.27333	6.30000e+01	
1.03603   	-2.12234e+00		         0.27500	5.50000e+01	
1.04217   	-1.70992e+00		         0.27667	4.80000e+01	
1.04858   	-9.43648e-01		         0.27833	4.00000e+01	
1.05472   	-2.44587e-01		         0.28000	3.30000e+01	
1.06085   	2.79954e-01		         0.28167	2.50000e+01	
1.06699   	6.70456e-01		         0.28333	1.80000e+01	
1.07340   	1.12162e+00		         0.28500	1.10000e+01	
1.07954   	1.69212e+00		         0.28667	4.00000e+00	
1.08568   	2.48440e+00		         0.28833	-3.00000e+00	
1.09181   	3.32500e+00		         0.29000	-1.00000e+01	
1.09822   	4.10123e+00		         0.29167	-1.60000e+01	
1.10436   	4.73784e+00		         0.29333	-2.20000e+01	
1.11050   	5.14510e+00		         0.29500	-2.80000e+01	
1.11664   	5.44585e+00		         0.29667	-3.40000e+01	
1.12304   	5.58709e+00		         0.29833	-4.00000e+01	
1.12918   	5.71885e+00		         0.30000	-4.60000e+01	
1.13532   	5.77524e+00		         0.30167	-5.10000e+01	
1.14145   	5.83919e+00		         0.30333	-5.70000e+01	
1.14787   	5.77289e+00		         0.30500	-6.20000e+01	
1.15400   	5.75197e+00		         0.30667	-6.70000e+01	
1.16014   	5.72118e+00		         0.30833	-7.20000e+01	
1.16628   	5.67341e+00		         0.31000	-7.70000e+01	
1.17269   	5.52467e+00		         0.31167	-8.10000e+01	
1.17882   	5.40935e+00		         0.31333	-8.60000e+01	
1.18496   	5.38047e+00		         0.31500	-9.10000e+01	
1.19110   	5.29102e+00		         0.31667	-9.50000e+01	
1.19751   	5.20889e+00		         0.31833	-9.90000e+01	
1.20365   	5.25800e+00		         0.32000	-1.03000e+02	
1.20978   	5.22613e+00		         0.32167	-1.06000e+02	
1.21592   	5.16741e+00		         0.32333	-1.10000e+02	
1.22233   	4.99831e+00		         0.32500	-1.12000e+02	
1.22847   	4.85470e+00		         0.32667	-1.15000e+02	
1.23461   	4.58888e+00		         0.32833	-1.17000e+02	
1.24074   	4.37096e+00		         0.33000	-1.18000e+02	
1.24715   	4.09720e+00		         0.33167	-1.18000e+02	
1.25329   	4.02534e+00		         0.33333	-1.18000e+02	
1.25943   	3.82553e+00		         0.33500	-1.18000e+02	
1.26557   	3.71006e+00		         0.33667	-1.17000e+02	
1.27197   	3.61323e+00		         0.33833	-1.16000e+02	
1.27811   	3.55507e+00		         0.34000	-1.14000e+02	
1.28425   	3.43171e+00		         0.34167	-1.12000e+02	
1.29039   	3.34295e+00		         0.34333	-1.10000e+02	
1.29680   	3.22350e+00		         0.34500	-1.08000e+02	
1.30294   	3.06135e+00		         0.34667	-1.06000e+02	
1.30907   	2.88691e+00		         0.34833	-1.04000e+02	
1.31521   	2.69356e+00		         0.35000	-1.01000e+02	
1.32162   	2.60195e+00		         0.35167	-9.90000e+01	
1.32776   	2.47226e+00		         0.35333	-9.80000e+01	
1.33390   	2.35440e+00		         0.35500	-9.60000e+01	
1.34003   	2.17543e+00		         0.35667	-9.40000e+01	
1.34644   	1.95873e+00		         0.35833	-9.30000e+01	
1.35258   	1.67624e+00		         0.36000	-9.20000e+01	
1.35871   	1.33655e+00		         0.36167	-9.00000e+01	
1.36485   	9.51458e-01		         0.36333	-8.90000e+01	
1.37126   	5.66830e-01		         0.36500	-8.80000e+01	
1.37740   	1.71615e-01		         0.36667	-8.70000e+01	
1.38354   	-2.75587e-01		         0.36833	-8.50000e+01	
1.38968   	-4.94684e-01		         0.37000	-8.40000e+01	
1.39609   	-6.61117e-01		         0.37167	-8.20000e+01	
1.40223   	-8.24770e-01		         0.37333	-8.10000e+01	
1.40836   	-8.97519e-01		         0.37500	-7.90000e+01	
1.41450   	-9.34155e-01		         0.37667	-7.70000e+01	
1.42091   	-1.11135e+00		         0.37833	-7.60000e+01	
1.42704   	-1.26468e+00		         0.38000	-7.40000e+01	
1.43318   	-1.37657e+00		         0.38167	-7.30000e+01	
1.43932   	-1.50309e+00		         0.38333	-7.30000e+01	
1.44573   	-1.50051e+00		         0.38500	-7.20000e+01	
1.45187   	-1.49737e+00		         0.38667	-7.10000e+01	
1.45800   	-1.43192e+00		         0.38833	-7.10000e+01	
1.46414   	-1.32383e+00		         0.39000	-7.10000e+01	
1.47055   	-1.37680e+00		         0.39167	-7.10000e+01	
1.47669   	-1.59069e+00		         0.39333	-7.00000e+01	
1.48283   	-1.68921e+00		         0.39500	-7.00000e+01	
1.48896   	-1.81034e+00		         0.39667	-7.00000e+01	
1.49537   	-2.18152e+00		         0.39833	-6.90000e+01	
1.50151   	-2.35565e+00		         0.40000	-6.80000e+01	
1.50765   	-2.68718e+00		         0.40167	-6.70000e+01	
1.51379   	-3.08670e+00		         0.40333	-6.60000e+01	
1.52020   	-3.81998e+00		         0.40500	-6.50000e+01	
1.52633   	-4.15738e+00		         0.40667	-6.30000e+01	
1.53247   	-4.62369e+00		         0.40833	-6.20000e+01	
1.53861   	-4.66904e+00		         0.41000	-6.00000e+01	
1.54502   	-4.69308e+00		         0.41167	-5.80000e+01	
1.55116   	-4.24763e+00		         0.41333	-5.60000e+01	
1.55731   	-3.81279e+00		         0.41500	-5.40000e+01	
1.56343   	-3.18664e+00		         0.41667	-5.20000e+01	
1.56984   	-2.65463e+00		         0.41833	-4.90000e+01	
1.57598   	-2.14549e+00		         0.42000	-4.70000e+01	
1.58212   	-1.81402e+00		         0.42167	-4.50000e+01	
1.58825   	-1.55315e+00		         0.42333	-4.20000e+01	
1.59466   	-1.42275e+00		         0.42500	-4.00000e+01	
1.60080   	-1.36768e+00		         0.42667	-3.80000e+01	
1.60711   	-1.30418e+00		         0.42833	-3.60000e+01	
1.61307   	-1.17803e+00		         0.43000	-3.40000e+01	
1.61948   	-1.18020e+00		         0.43167	-3.30000e+01	
1.62562   	-1.13116e+00		         0.43333	-3.10000e+01	
1.63176   	-1.06728e+00		         0.43500	-3.00000e+01	
1.63789   	-1.05454e+00		         0.43667	-2.80000e+01	
1.64431   	-1.06009e+00		         0.43833	-2.70000e+01	
1.65044   	-1.05430e+00		         0.44000	-2.60000e+01	
1.65658   	-1.02015e+00		         0.44167	-2.50000e+01	
1.66272   	-9.81179e-01		         0.44333	-2.30000e+01	
1.66913   	-9.18995e-01		         0.44500	-2.20000e+01	
1.67526   	-8.65384e-01		         0.44667	-2.10000e+01	
1.68140   	-7.65369e-01		         0.44833	-2.00000e+01	
1.68754   	-6.67267e-01		         0.45000	-1.80000e+01	
1.69395   	-5.94986e-01		         0.45167	-1.70000e+01	
1.70009   	-5.37360e-01		         0.45333	-1.60000e+01	
1.70655   	-5.17165e-01		         0.45500	-1.40000e+01	
1.71236   	-4.93127e-01		         0.45667	-1.30000e+01	
1.71877   	-4.73453e-01		         0.45833	-1.20000e+01	
1.72491   	-4.41780e-01		         0.46000	-1.10000e+01	
1.73105   	-3.73925e-01		         0.46167	-1.10000e+01	
1.73718   	-2.99929e-01		         0.46333	-1.00000e+01	
1.74359   	-2.52491e-01		         0.46500	-9.00000e+00	
1.74973   	-2.28797e-01		         0.46667	-9.00000e+00	
1.75587   	-2.24350e-01		         0.46833	-8.00000e+00	
1.76201   	-2.71581e-01		         0.47000	-8.00000e+00	
1.76841   	-3.01385e-01		         0.47167	-7.00000e+00	
1.77455   	-3.25476e-01		         0.47333	-7.00000e+00	
1.78069   	-3.58344e-01		         0.47500	-6.00000e+00	
1.78683   	-3.76081e-01		         0.47667	-5.00000e+00	
1.79324   	-3.90756e-01		         0.47833	-4.00000e+00	
1.79937   	-3.98928e-01		         0.48000	-3.00000e+00	
1.80551   	-3.66591e-01		         0.48167	-2.00000e+00	
1.81165   	-3.26581e-01		         0.48333	-1.00000e+00	
1.81806   	-2.91060e-01		         0.48500	0.00000e+00	
1.82419   	-2.24406e-01		         0.48667	0.00000e+00	
1.83033   	-1.36460e-01		         0.48833	1.00000e+00	
1.83647   	-6.15121e-02		         0.49000	1.00000e+00	
1.84288   	7.15418e-03		         0.49167	1.00000e+00	
1.84902   	7.36838e-02		         0.49333	1.00000e+00	
1.85515   	1.26590e-01		         0.49500	1.00000e+00	
1.86129   	1.19415e-01		         0.49667	0.00000e+00	
1.86770   	6.84950e-02		         0.49833	0.00000e+00	
1.87384   	9.52404e-03		         0.50000	-1.00000e+00	
1.87998   	-1.18617e-01		         0.50167	-2.00000e+00	
1.88611   	-3.39710e-01		         0.50333	-3.00000e+00	
1.89252   	-7.25476e-01		         0.50500	-4.00000e+00	
1.89866   	-1.36791e+00		         0.50667	-5.00000e+00	
1.90480   	-2.35517e+00		         0.50833	-5.00000e+00	
1.91094   	-3.55225e+00		         0.51000	-6.00000e+00	
1.91735   	-4.95086e+00		         0.51167	-7.00000e+00	
1.92348   	-6.33757e+00		         0.51333	-7.00000e+00	
1.92962   	-7.52499e+00		         0.51500	-8.00000e+00	
1.93576   	-8.29547e+00		         0.51667	-9.00000e+00	
1.94217   	-8.73060e+00		         0.51833	-9.00000e+00	
1.94831   	-8.90834e+00		         0.52000	-1.00000e+01	
1.95444   	-8.67577e+00		         0.52167	-1.00000e+01	
1.96058   	-8.13594e+00		         0.52333	-1.00000e+01	
1.96699   	-7.37139e+00		         0.52500	-1.10000e+01	
1.97313   	-6.35453e+00		         0.52667	-1.10000e+01	
1.97927   	-5.01692e+00		         0.52833	-1.00000e+01	
1.98540   	-3.87148e+00		         0.53000	-1.00000e+01	
1.99181   	-2.88832e+00		         0.53167	-1.00000e+01	
1.99795   	-2.20137e+00		         0.53333	-1.00000e+01	
2.00409   	-1.81486e+00		         0.53500	-9.00000e+00	
2.01022   	-1.71183e+00		         0.53667	-9.00000e+00	
2.01664   	-1.56584e+00		         0.53833	-9.00000e+00	
2.02299   	-1.39730e+00		         0.54000	-9.00000e+00	
2.02891   	-1.12561e+00		         0.54167	-1.00000e+01	
2.03505   	-6.56204e-01		         0.54333	-1.00000e+01	
2.04145   	-1.91902e-01		         0.54500	-1.00000e+01	
2.04760   	4.06447e-02		         0.54667	-1.10000e+01	
2.05373   	-3.02751e-01		         0.54833	-1.20000e+01	
2.05987   	-8.06548e-01		         0.55000	-1.30000e+01	
2.06627   	-1.33628e+00		         0.55167	-1.30000e+01	
2.07241   	-1.73159e+00		         0.55333	-1.40000e+01	
2.07855   	-1.73553e+00		         0.55500	-1.40000e+01	
2.08469   	-1.09607e+00		         0.55667	-1.40000e+01	
2.09110   	-2.95519e-01		         0.55833	-1.50000e+01	
2.09724   	2.48367e-01		         0.56000	-1.50000e+01	
2.10337   	7.43335e-01		         0.56167	-1.50000e+01	
2.10951   	1.11474e+00		         0.56333	-1.50000e+01	
2.11592   	1.61685e+00		         0.56500	-1.50000e+01	
2.12206   	2.29739e+00		         0.56667	-1.50000e+01	
2.12819   	3.13635e+00		         0.56833	-1.50000e+01	
2.13433   	3.97010e+00		         0.57000	-1.50000e+01	
2.14074   	4.70910e+00		         0.57167	-1.50000e+01	
2.14688   	5.09429e+00		         0.57333	-1.50000e+01	
2.15302   	5.36749e+00		         0.57500	-1.50000e+01	
2.15916   	5.60453e+00		         0.57667	-1.50000e+01	
2.16557   	5.71152e+00		         0.57833	-1.50000e+01	
2.17172   	5.79493e+00		         0.58000	-1.40000e+01	
2.17784   	5.95453e+00		         0.58167	-1.40000e+01	
2.18398   	5.94145e+00		         0.58333	-1.30000e+01	
2.19039   	5.85333e+00		         0.58500	-1.30000e+01	
2.19653   	5.75038e+00		         0.58667	-1.20000e+01	
2.20266   	5.74059e+00		         0.58833	-1.10000e+01	
2.20880   	5.65367e+00		         0.59000	-1.00000e+01	
2.21521   	5.61879e+00		         0.59167	-9.00000e+00	
2.22142   	5.55117e+00		         0.59333	-8.00000e+00	
2.22748   	5.54616e+00		         0.59500	-8.00000e+00	
2.23362   	5.34339e+00		         0.59667	-8.00000e+00	
2.24003   	5.30475e+00		         0.59833	-7.00000e+00	
2.24617   	5.24830e+00		         0.60000	-7.00000e+00	
2.25231   	5.20099e+00		         0.60167	-7.00000e+00	
2.25845   	5.05401e+00		         0.60333	-7.00000e+00	
2.26485   	5.01966e+00		         0.60500	-7.00000e+00	
2.27099   	4.91919e+00		         0.60667	-7.00000e+00	
2.27713   	4.71186e+00		         0.60833	-7.00000e+00	
2.28326   	4.47004e+00		         0.61000	-7.00000e+00	
2.28967   	4.35505e+00		         0.61167	-8.00000e+00	
2.29581   	4.19322e+00		         0.61333	-8.00000e+00	
2.30195   	3.95141e+00		         0.61500	-8.00000e+00	
2.30809   	3.72936e+00		         0.61667	-8.00000e+00	
2.31450   	3.62957e+00		         0.61833	-8.00000e+00	
2.32063   	3.45503e+00		         0.62000	-8.00000e+00	
2.32677   	3.32723e+00		         0.62167	-8.00000e+00	
2.33291   	3.19463e+00		         0.62333	-8.00000e+00	
2.33932   	3.06318e+00		         0.62500	-8.00000e+00	
2.34546   	2.89373e+00		         0.62667	-8.00000e+00	
2.35159   	2.76782e+00		         0.62833	-8.00000e+00	
2.35774   	2.60364e+00		         0.63000	-8.00000e+00	
2.36414   	2.43532e+00		         0.63167	-8.00000e+00	
2.37028   	2.34736e+00		         0.63333	-8.00000e+00	
2.37642   	2.19094e+00		         0.63500	-8.00000e+00	
2.38255   	1.99690e+00		         0.63667	-8.00000e+00	
2.38896   	1.79087e+00		         0.63833	-8.00000e+00	
2.39510   	1.56862e+00		         0.64000	-8.00000e+00	
2.40124   	1.21555e+00		         0.64167	-8.00000e+00	
2.40737   	8.48079e-01		         0.64333	-8.00000e+00	
2.41378   	4.41806e-01		         0.64500	-8.00000e+00	
2.41992   	1.04024e-02		         0.64667	-9.00000e+00	
2.42606   	-3.36598e-01		         0.64833	-9.00000e+00	
2.43220   	-5.79188e-01		         0.65000	-9.00000e+00	
2.43861   	-8.27175e-01		         0.65167	-1.00000e+01	
2.44474   	-9.95613e-01		         0.65333	-1.00000e+01	
2.45088   	-1.11182e+00		         0.65500	-1.00000e+01	
2.45702   	-1.22780e+00		         0.65667	-1.00000e+01	
2.46343   	-1.38715e+00		         0.65833	-1.00000e+01	
2.46956   	-1.47501e+00		         0.66000	-1.10000e+01	
2.47571   	-1.62819e+00		         0.66167	-1.10000e+01	
2.48184   	-1.72236e+00		         0.66333	-1.10000e+01	
2.48825   	-1.79248e+00		         0.66500	-1.10000e+01	
2.49439   	-1.70206e+00		         0.66667	-1.10000e+01	
2.50052   	-1.61760e+00		         0.66833	-1.10000e+01	
2.50666   	-1.48299e+00		         0.67000	-1.10000e+01	
2.51307   	-1.45833e+00		         0.67167	-1.10000e+01	
2.51921   	-1.54468e+00		         0.67333	-1.00000e+01	
2.52535   	-1.79568e+00		         0.67500	-1.00000e+01	
2.53148   	-2.06893e+00		         0.67667	-9.00000e+00	
2.53789   	-2.07441e+00		         0.67833	-8.00000e+00	
2.54403   	-2.35421e+00		         0.68000	-7.00000e+00	
2.55017   	-2.57693e+00		         0.68167	-6.00000e+00	
2.55631   	-2.92477e+00		         0.68333	-5.00000e+00	
2.56272   	-3.30829e+00		         0.68500	-4.00000e+00	
2.56885   	-3.97100e+00		         0.68667	-3.00000e+00	
2.57499   	-4.25360e+00		         0.68833	-3.00000e+00	
2.58113   	-4.37409e+00		         0.69000	-2.00000e+00	
2.58754   	-4.21272e+00		         0.69167	-2.00000e+00	
2.59368   	-3.85257e+00		         0.69333	-2.00000e+00	
2.59981   	-3.35531e+00		         0.69500	-3.00000e+00	
2.60595   	-2.82821e+00		         0.69667	-3.00000e+00	
2.61236   	-2.43080e+00		         0.69833	-3.00000e+00	
2.61850   	-2.07457e+00		         0.70000	-4.00000e+00	
2.62464   	-1.84782e+00		         0.70167	-4.00000e+00	
2.63077   	-1.61789e+00		         0.70333	-4.00000e+00	
2.63718   	-1.47081e+00		         0.70500	-4.00000e+00	
2.64332   	-1.39331e+00		         0.70667	-3.00000e+00	
2.64946   	-1.29526e+00		         0.70833	-3.00000e+00	
2.65559   	-1.22746e+00		         0.71000	-2.00000e+00	
2.66200   	-1.18166e+00		         0.71167	-1.00000e+00	
2.66814   	-1.17118e+00		         0.71333	0.00000e+00	
2.67428   	-1.12385e+00		         0.71500	1.00000e+00	
2.68042   	-1.11734e+00		         0.71667	2.00000e+00	
2.68682   	-1.05592e+00		         0.71833	3.00000e+00	
2.69297   	-1.04086e+00		         0.72000	4.00000e+00	
2.69910   	-9.94056e-01		         0.72167	4.00000e+00	
2.70524   	-8.70789e-01		         0.72333	5.00000e+00	
2.71165   	-7.81900e-01		         0.72500	5.00000e+00	
2.71778   	-6.60899e-01		         0.72667	5.00000e+00	
2.72393   	-5.81083e-01		         0.72833	5.00000e+00	
2.73006   	-4.78702e-01		         0.73000	5.00000e+00	
2.73647   	-4.31607e-01		         0.73167	4.00000e+00	
2.74261   	-3.67195e-01		         0.73333	4.00000e+00	
2.74874   	-3.48177e-01		         0.73500	3.00000e+00	
2.75488   	-2.99489e-01		         0.73667	2.00000e+00	
2.76129   	-2.56288e-01		         0.73833	2.00000e+00	
2.76743   	-2.26159e-01		         0.74000	1.00000e+00	
2.77357   	-2.05508e-01		         0.74167	0.00000e+00	
2.77970   	-1.84932e-01		         0.74333	0.00000e+00	
2.78611   	-1.81803e-01		         0.74500	-1.00000e+00	
2.79225   	-1.85301e-01		         0.74667	-1.00000e+00	
2.79839   	-1.74363e-01		         0.74833	-1.00000e+00	
2.80453   	-1.84355e-01		         0.75000	-1.00000e+00	
2.81093   	-2.10101e-01		         0.75167	-1.00000e+00	
2.81707   	-2.32915e-01		         0.75333	-1.00000e+00	
2.82321   	-2.52929e-01		         0.75500	-1.00000e+00	
2.82935   	-2.82804e-01		         0.75667	0.00000e+00	
2.83576   	-3.00411e-01		         0.75833	0.00000e+00	
2.84190   	-2.97050e-01		         0.76000	1.00000e+00	
2.84803   	-2.78478e-01		         0.76167	2.00000e+00	
2.85417   	-2.62161e-01		         0.76333	3.00000e+00	
2.86058   	-2.30200e-01		         0.76500	4.00000e+00	
2.86671   	-1.96685e-01		         0.76667	6.00000e+00	
2.87285   	-1.70908e-01		         0.76833	8.00000e+00	
2.87899   	-1.63952e-01		         0.77000	1.00000e+01	
2.88549   	-1.37038e-01		         0.77167	1.30000e+01	
2.89154   	-1.12882e-01		         0.77333	1.50000e+01	
2.89768   	-8.47266e-02		         0.77500	1.80000e+01	
2.90381   	-8.24075e-02		         0.77667	2.10000e+01	
2.91023   	-1.09529e-01		         0.77833	2.30000e+01	
2.91636   	-1.80771e-01		         0.78000	2.60000e+01	
2.92250   	-4.38375e-01		         0.78167	2.80000e+01	
2.92864   	-6.50303e-01		         0.78333	3.00000e+01	
2.93517   	-1.21478e+00		         0.78500	3.10000e+01	
2.94118   	-2.12921e+00		         0.78667	3.30000e+01	
2.94732   	-3.25170e+00		         0.78833	3.40000e+01	
2.95346   	-4.44942e+00		         0.79000	3.50000e+01	
2.95987   	-5.92943e+00		         0.79167	3.60000e+01	
2.96600   	-7.22110e+00		         0.79333	3.70000e+01	
2.97214   	-8.00432e+00		         0.79500	3.70000e+01	
2.97828   	-8.56588e+00		         0.79667	3.80000e+01	
2.98469   	-8.86879e+00		         0.79833	3.90000e+01	
2.99083   	-8.75742e+00		         0.80000	4.00000e+01	
2.99696   	-8.10889e+00		         0.80167	4.10000e+01	
3.00310   	-7.36342e+00		         0.80333	4.20000e+01	
3.00951   	-6.36873e+00		         0.80500	4.30000e+01	
3.01565   	-5.09231e+00		         0.80667	4.40000e+01	
3.02179   	-3.89478e+00		         0.80833	4.50000e+01	
3.02793   	-2.92388e+00		         0.81000	4.70000e+01	
3.03465   	-2.22088e+00		         0.81167	4.80000e+01	
3.04047   	-1.66299e+00		         0.81333	4.90000e+01	
3.04661   	-1.47825e+00		         0.81500	5.00000e+01	
3.05275   	-1.37967e+00		         0.81667	5.00000e+01	
3.05915   	-1.26897e+00		         0.81833	5.10000e+01	
3.06529   	-1.01808e+00		         0.82000	5.20000e+01	
3.07143   	-7.53265e-01		         0.82167	5.20000e+01	
3.07757   	-2.60825e-01		         0.82333	5.20000e+01	
3.08398   	1.23113e-01		         0.82500	5.20000e+01	
3.09011   	3.49062e-01		         0.82667	5.20000e+01	
3.09625   	5.57905e-01		         0.82833	5.10000e+01	
			         0.83000	5.10000e+01	
			         0.83167	5.00000e+01	
			         0.83333	4.90000e+01	
			         0.83500	4.80000e+01	
			         0.83667	4.70000e+01	
			         0.83833	4.50000e+01	
			         0.84000	4.40000e+01	
			         0.84167	4.20000e+01	
			         0.84333	4.00000e+01	
			         0.84500	3.70000e+01	
			         0.84667	3.50000e+01	
			         0.84833	3.30000e+01	
			         0.85000	3.00000e+01	
			         0.85167	2.80000e+01	
			         0.85333	2.50000e+01	
			         0.85500	2.30000e+01	
			         0.85667	2.00000e+01	
			         0.85833	1.70000e+01	
			         0.86000	1.40000e+01	
			         0.86167	1.00000e+01	
			         0.86333	7.00000e+00	
			         0.86500	4.00000e+00	
			         0.86667	1.00000e+00	
			         0.86833	-3.00000e+00	
			         0.87000	-6.00000e+00	
			         0.87167	-1.00000e+01	
			         0.87333	-1.30000e+01	
			         0.87500	-1.60000e+01	
			         0.87667	-1.90000e+01	
			         0.87833	-2.20000e+01	
			         0.88000	-2.40000e+01	
			         0.88167	-2.70000e+01	
			         0.88333	-2.80000e+01	
			         0.88500	-3.00000e+01	
			         0.88667	-3.10000e+01	
			         0.88833	-3.20000e+01	
			         0.89000	-3.30000e+01	
			         0.89167	-3.30000e+01	
			         0.89333	-3.30000e+01	
			         0.89500	-3.30000e+01	
			         0.89667	-3.30000e+01	
			         0.89833	-3.20000e+01	
			         0.90000	-3.10000e+01	
			         0.90167	-3.10000e+01	
			         0.90333	-3.00000e+01	
			         0.90500	-2.90000e+01	
			         0.90667	-2.90000e+01	
			         0.90833	-2.80000e+01	
			         0.91000	-2.80000e+01	
			         0.91167	-2.70000e+01	
			         0.91333	-2.70000e+01	
			         0.91500	-2.70000e+01	
			         0.91667	-2.70000e+01	
			         0.91833	-2.60000e+01	
			         0.92000	-2.60000e+01	
			         0.92167	-2.60000e+01	
			         0.92333	-2.60000e+01	
			         0.92500	-2.60000e+01	
			         0.92667	-2.50000e+01	
			         0.92833	-2.40000e+01	
			         0.93000	-2.40000e+01	
			         0.93167	-2.30000e+01	
			         0.93333	-2.20000e+01	
			         0.93500	-2.10000e+01	
			         0.93667	-2.00000e+01	
			         0.93833	-1.90000e+01	
			         0.94000	-1.80000e+01	
			         0.94167	-1.70000e+01	
			         0.94333	-1.50000e+01	
			         0.94500	-1.40000e+01	
			         0.94667	-1.30000e+01	
			         0.94833	-1.20000e+01	
			         0.95000	-1.10000e+01	
			         0.95167	-1.00000e+01	
			         0.95333	-1.00000e+01	
			         0.95500	-1.00000e+01	
			         0.95667	-1.00000e+01	
			         0.95833	-1.10000e+01	
			         0.96000	-1.20000e+01	
			         0.96167	-1.40000e+01	
			         0.96333	-1.60000e+01	
			         0.96500	-1.80000e+01	
			         0.96667	-2.00000e+01	
			         0.96833	-2.20000e+01	
			         0.97000	-2.40000e+01	
			         0.97167	-2.50000e+01	
			         0.97333	-2.60000e+01	
			         0.97500	-2.60000e+01	
			         0.97667	-2.60000e+01	
			         0.97833	-2.50000e+01	
			         0.98000	-2.30000e+01	
			         0.98167	-2.00000e+01	
			         0.98333	-1.50000e+01	
			         0.98500	-1.00000e+01	
			         0.98667	-3.00000e+00	
			         0.98833	6.00000e+00	
			         0.99000	1.80000e+01	
			         0.99167	3.30000e+01	
			         0.99333	5.20000e+01	
			         0.99500	7.60000e+01	
			         0.99667	1.03000e+02	
			         0.99833	1.35000e+02	
			         1.00000	1.69000e+02	
			         1.00167	2.05000e+02	
			         1.00333	2.42000e+02	
			         1.00500	2.77000e+02	
			         1.00667	3.10000e+02	
			         1.00833	3.38000e+02	
			         1.01000	3.60000e+02	
			         1.01167	3.74000e+02	
			         1.01333	3.80000e+02	
			         1.01500	3.77000e+02	
			         1.01667	3.64000e+02	
			         1.01833	3.41000e+02	
			         1.02000	3.10000e+02	
			         1.02167	2.72000e+02	
			         1.02333	2.29000e+02	
			         1.02500	1.83000e+02	
			         1.02667	1.36000e+02	
			         1.02833	8.80000e+01	
			         1.03000	4.20000e+01	
			         1.03167	-1.00000e+00	
			         1.03333	-4.00000e+01	
			         1.03500	-7.40000e+01	
			         1.03667	-1.03000e+02	
			         1.03833	-1.27000e+02	
			         1.04000	-1.45000e+02	
			         1.04167	-1.58000e+02	
			         1.04333	-1.65000e+02	
			         1.04500	-1.68000e+02	
			         1.04667	-1.67000e+02	
			         1.04833	-1.63000e+02	
			         1.05000	-1.57000e+02	
			         1.05167	-1.48000e+02	
			         1.05333	-1.39000e+02	
			         1.05500	-1.29000e+02	
			         1.05667	-1.19000e+02	
			         1.05833	-1.08000e+02	
			         1.06000	-9.90000e+01	
			         1.06167	-9.00000e+01	
			         1.06333	-8.20000e+01	
			         1.06500	-7.50000e+01	
			         1.06667	-6.80000e+01	
			         1.06833	-6.30000e+01	
			         1.07000	-5.80000e+01	
			         1.07167	-5.50000e+01	
			         1.07333	-5.10000e+01	
			         1.07500	-4.90000e+01	
			         1.07667	-4.60000e+01	
			         1.07833	-4.40000e+01	
			         1.08000	-4.30000e+01	
			         1.08167	-4.10000e+01	
			         1.08333	-4.00000e+01	
			         1.08500	-3.80000e+01	
			         1.08667	-3.70000e+01	
			         1.08833	-3.60000e+01	
			         1.09000	-3.40000e+01	
			         1.09167	-3.30000e+01	
			         1.09333	-3.20000e+01	
			         1.09500	-3.00000e+01	
			         1.09667	-2.80000e+01	
			         1.09833	-2.60000e+01	
			         1.10000	-2.40000e+01	
			         1.10167	-2.20000e+01	
			         1.10333	-2.00000e+01	
			         1.10500	-1.80000e+01	
			         1.10667	-1.60000e+01	
			         1.10833	-1.40000e+01	
			         1.11000	-1.20000e+01	
			         1.11167	-1.00000e+01	
			         1.11333	-8.00000e+00	
			         1.11500	-7.00000e+00	
			         1.11667	-6.00000e+00	
			         1.11833	-5.00000e+00	
			         1.12000	-5.00000e+00	
			         1.12167	-4.00000e+00	
			         1.12333	-4.00000e+00	
			         1.12500	-4.00000e+00	
			         1.12667	-3.00000e+00	
			         1.12833	-3.00000e+00	
			         1.13000	-2.00000e+00	
			         1.13167	-2.00000e+00	
			         1.13333	-1.00000e+00	
			         1.13500	0.00000e+00	
			         1.13667	1.00000e+00	
			         1.13833	2.00000e+00	
			         1.14000	3.00000e+00	
			         1.14167	5.00000e+00	
			         1.14333	6.00000e+00	
			         1.14500	8.00000e+00	
			         1.14667	9.00000e+00	
			         1.14833	1.10000e+01	
			         1.15000	1.20000e+01	
			         1.15167	1.30000e+01	
			         1.15333	1.40000e+01	
			         1.15500	1.50000e+01	
			         1.15667	1.60000e+01	
			         1.15833	1.80000e+01	
			         1.16000	1.90000e+01	
			         1.16167	2.00000e+01	
			         1.16333	2.10000e+01	
			         1.16500	2.20000e+01	
			         1.16667	2.40000e+01	
			         1.16833	2.50000e+01	
			         1.17000	2.70000e+01	
			         1.17167	2.90000e+01	
			         1.17333	3.10000e+01	
			         1.17500	3.30000e+01	
			         1.17667	3.50000e+01	
			         1.17833	3.80000e+01	
			         1.18000	4.00000e+01	
			         1.18167	4.30000e+01	
			         1.18333	4.60000e+01	
			         1.18500	4.80000e+01	
			         1.18667	5.10000e+01	
			         1.18833	5.40000e+01	
			         1.19000	5.60000e+01	
			         1.19167	5.80000e+01	
			         1.19333	6.00000e+01	
			         1.19500	6.20000e+01	
			         1.19667	6.40000e+01	
			         1.19833	6.60000e+01	
			         1.20000	6.80000e+01	
			         1.20167	7.00000e+01	
			         1.20333	7.20000e+01	
			         1.20500	7.50000e+01	
			         1.20667	7.70000e+01	
			         1.20833	8.00000e+01	
			         1.21000	8.30000e+01	
			         1.21167	8.60000e+01	
			         1.21333	9.00000e+01	
			         1.21500	9.30000e+01	
			         1.21667	9.70000e+01	
			         1.21833	1.00000e+02	
			         1.22000	1.04000e+02	
			         1.22167	1.07000e+02	
			         1.22333	1.10000e+02	
			         1.22500	1.13000e+02	
			         1.22667	1.15000e+02	
			         1.22833	1.18000e+02	
			         1.23000	1.20000e+02	
			         1.23167	1.22000e+02	
			         1.23333	1.23000e+02	
			         1.23500	1.24000e+02	
			         1.23667	1.25000e+02	
			         1.23833	1.26000e+02	
			         1.24000	1.27000e+02	
			         1.24167	1.27000e+02	
			         1.24333	1.26000e+02	
			         1.24500	1.26000e+02	
			         1.24667	1.25000e+02	
			         1.24833	1.23000e+02	
			         1.25000	1.21000e+02	
			         1.25167	1.18000e+02	
			         1.25333	1.16000e+02	
			         1.25500	1.13000e+02	
			         1.25667	1.09000e+02	
			         1.25833	1.06000e+02	
			         1.26000	1.03000e+02	
			         1.26167	9.90000e+01	
			         1.26333	9.60000e+01	
			         1.26500	9.20000e+01	
			         1.26667	8.90000e+01	
			         1.26833	8.60000e+01	
			         1.27000	8.20000e+01	
			         1.27167	7.90000e+01	
			         1.27333	7.50000e+01	
			         1.27500	7.10000e+01	
			         1.27667	6.70000e+01	
			         1.27833	6.30000e+01	
			         1.28000	5.80000e+01	
			         1.28167	5.30000e+01	
			         1.28333	4.80000e+01	
			         1.28500	4.20000e+01	
			         1.28667	3.50000e+01	
			         1.28833	2.90000e+01	
			         1.29000	2.20000e+01	
			         1.29167	1.40000e+01	
			         1.29333	7.00000e+00	
			         1.29500	-1.00000e+00	
			         1.29667	-9.00000e+00	
			         1.29833	-1.70000e+01	
			         1.30000	-2.50000e+01	
			         1.30167	-3.20000e+01	
			         1.30333	-3.90000e+01	
			         1.30500	-4.60000e+01	
			         1.30667	-5.20000e+01	
			         1.30833	-5.80000e+01	
			         1.31000	-6.40000e+01	
			         1.31167	-6.90000e+01	
			         1.31333	-7.40000e+01	
			         1.31500	-7.80000e+01	
			         1.31667	-8.20000e+01	
			         1.31833	-8.60000e+01	
			         1.32000	-9.00000e+01	
			         1.32167	-9.30000e+01	
			         1.32333	-9.70000e+01	
			         1.32500	-1.00000e+02	
			         1.32667	-1.03000e+02	
			         1.32833	-1.06000e+02	
			         1.33000	-1.09000e+02	
			         1.33167	-1.12000e+02	
			         1.33333	-1.14000e+02	
			         1.33500	-1.16000e+02	
			         1.33667	-1.18000e+02	
			         1.33833	-1.19000e+02	
			         1.34000	-1.20000e+02	
			         1.34167	-1.21000e+02	
			         1.34333	-1.21000e+02	
			         1.34500	-1.21000e+02	
			         1.34667	-1.21000e+02	
			         1.34833	-1.20000e+02	
			         1.35000	-1.19000e+02	
			         1.35167	-1.18000e+02	
			         1.35333	-1.17000e+02	
			         1.35500	-1.15000e+02	
			         1.35667	-1.14000e+02	
			         1.35833	-1.12000e+02	
			         1.36000	-1.10000e+02	
			         1.36167	-1.08000e+02	
			         1.36333	-1.07000e+02	
			         1.36500	-1.05000e+02	
			         1.36667	-1.03000e+02	
			         1.36833	-1.01000e+02	
			         1.37000	-9.90000e+01	
			         1.37167	-9.80000e+01	
			         1.37333	-9.60000e+01	
			         1.37500	-9.40000e+01	
			         1.37667	-9.30000e+01	
			         1.37833	-9.20000e+01	
			         1.38000	-9.00000e+01	
			         1.38167	-8.90000e+01	
			         1.38333	-8.70000e+01	
			         1.38500	-8.50000e+01	
			         1.38667	-8.40000e+01	
			         1.38833	-8.20000e+01	
			         1.39000	-8.00000e+01	
			         1.39167	-7.70000e+01	
			         1.39333	-7.50000e+01	
			         1.39500	-7.30000e+01	
			         1.39667	-7.00000e+01	
			         1.39833	-6.80000e+01	
			         1.40000	-6.50000e+01	
			         1.40167	-6.30000e+01	
			         1.40333	-6.10000e+01	
			         1.40500	-6.00000e+01	
			         1.40667	-5.80000e+01	
			         1.40833	-5.70000e+01	
			         1.41000	-5.50000e+01	
			         1.41167	-5.40000e+01	
			         1.41333	-5.30000e+01	
			         1.41500	-5.20000e+01	
			         1.41667	-5.00000e+01	
			         1.41833	-4.90000e+01	
			         1.42000	-4.70000e+01	
			         1.42167	-4.50000e+01	
			         1.42333	-4.30000e+01	
			         1.42500	-4.00000e+01	
			         1.42667	-3.80000e+01	
			         1.42833	-3.50000e+01	
			         1.43000	-3.30000e+01	
			         1.43167	-3.00000e+01	
			         1.43333	-2.70000e+01	
			         1.43500	-2.50000e+01	
			         1.43667	-2.20000e+01	
			         1.43833	-2.00000e+01	
			         1.44000	-1.70000e+01	
			         1.44167	-1.50000e+01	
			         1.44333	-1.30000e+01	
			         1.44500	-1.10000e+01	
			         1.44667	-1.00000e+01	
			         1.44833	-8.00000e+00	
			         1.45000	-7.00000e+00	
			         1.45167	-6.00000e+00	
			         1.45333	-5.00000e+00	
			         1.45500	-5.00000e+00	
			         1.45667	-5.00000e+00	
			         1.45833	-4.00000e+00	
			         1.46000	-4.00000e+00	
			         1.46167	-5.00000e+00	
			         1.46333	-5.00000e+00	
			         1.46500	-5.00000e+00	
			         1.46667	-5.00000e+00	
			         1.46833	-5.00000e+00	
			         1.47000	-4.00000e+00	
			         1.47167	-4.00000e+00	
			         1.47333	-3.00000e+00	
			         1.47500	-3.00000e+00	
			         1.47667	-2.00000e+00	
			         1.47833	-2.00000e+00	
			         1.48000	-1.00000e+00	
			         1.48167	-1.00000e+00	
			         1.48333	0.00000e+00	
			         1.48500	0.00000e+00	
			         1.48667	0.00000e+00	
			         1.48833	0.00000e+00	
			         1.49000	0.00000e+00	
			         1.49167	1.00000e+00	
			         1.49333	1.00000e+00	
			         1.49500	1.00000e+00	
			         1.49667	1.00000e+00	
			         1.49833	2.00000e+00	
			         1.50000	2.00000e+00	
			         1.50167	3.00000e+00	
			         1.50333	4.00000e+00	
			         1.50500	4.00000e+00	
			         1.50667	5.00000e+00	
			         1.50833	5.00000e+00	
			         1.51000	5.00000e+00	
			         1.51167	5.00000e+00	
			         1.51333	5.00000e+00	
			         1.51500	5.00000e+00	
			         1.51667	4.00000e+00	
			         1.51833	3.00000e+00	
			         1.52000	2.00000e+00	
			         1.52167	1.00000e+00	
			         1.52333	0.00000e+00	
			         1.52500	0.00000e+00	
			         1.52667	-1.00000e+00	
			         1.52833	-2.00000e+00	
			         1.53000	-3.00000e+00	
			         1.53167	-4.00000e+00	
			         1.53333	-5.00000e+00	
			         1.53500	-6.00000e+00	
			         1.53667	-7.00000e+00	
			         1.53833	-7.00000e+00	
			         1.54000	-8.00000e+00	
			         1.54167	-9.00000e+00	
			         1.54333	-9.00000e+00	
			         1.54500	-1.00000e+01	
			         1.54667	-1.00000e+01	
			         1.54833	-1.10000e+01	
			         1.55000	-1.10000e+01	
			         1.55167	-1.20000e+01	
			         1.55333	-1.30000e+01	
			         1.55500	-1.40000e+01	
			         1.55667	-1.40000e+01	
			         1.55833	-1.50000e+01	
			         1.56000	-1.60000e+01	
			         1.56167	-1.70000e+01	
			         1.56333	-1.70000e+01	
			         1.56500	-1.80000e+01	
			         1.56667	-1.80000e+01	
			         1.56833	-1.80000e+01	
			         1.57000	-1.80000e+01	
			         1.57167	-1.80000e+01	
			         1.57333	-1.70000e+01	
			         1.57500	-1.70000e+01	
			         1.57667	-1.60000e+01	
			         1.57833	-1.50000e+01	
			         1.58000	-1.40000e+01	
			         1.58167	-1.40000e+01	
			         1.58333	-1.30000e+01	
			         1.58500	-1.30000e+01	
			         1.58667	-1.30000e+01	
			         1.58833	-1.40000e+01	
			         1.59000	-1.40000e+01	
			         1.59167	-1.50000e+01	
			         1.59333	-1.60000e+01	
			         1.59500	-1.70000e+01	
			         1.59667	-1.80000e+01	
			         1.59833	-1.90000e+01	
			         1.60000	-2.00000e+01	
			         1.60167	-2.00000e+01	
			         1.60333	-2.10000e+01	
			         1.60500	-2.10000e+01	
			         1.60667	-2.10000e+01	
			         1.60833	-2.10000e+01	
			         1.61000	-2.10000e+01	
			         1.61167	-2.10000e+01	
			         1.61333	-2.10000e+01	
			         1.61500	-2.10000e+01	
			         1.61667	-2.20000e+01	
			         1.61833	-2.20000e+01	
			         1.62000	-2.20000e+01	
			         1.62167	-2.30000e+01	
			         1.62333	-2.30000e+01	
			         1.62500	-2.40000e+01	
			         1.62667	-2.40000e+01	
			         1.62833	-2.50000e+01	
			         1.63000	-2.50000e+01	
			         1.63167	-2.60000e+01	
			         1.63333	-2.60000e+01	
			         1.63500	-2.60000e+01	
			         1.63667	-2.70000e+01	
			         1.63833	-2.70000e+01	
			         1.64000	-2.70000e+01	
			         1.64167	-2.70000e+01	
			         1.64333	-2.80000e+01	
			         1.64500	-2.80000e+01	
			         1.64667	-2.80000e+01	
			         1.64833	-2.80000e+01	
			         1.65000	-2.80000e+01	
			         1.65167	-2.80000e+01	
			         1.65333	-2.70000e+01	
			         1.65500	-2.70000e+01	
			         1.65667	-2.60000e+01	
			         1.65833	-2.50000e+01	
			         1.66000	-2.40000e+01	
			         1.66167	-2.30000e+01	
			         1.66333	-2.20000e+01	
			         1.66500	-2.00000e+01	
			         1.66667	-1.90000e+01	
			         1.66833	-1.80000e+01	
			         1.67000	-1.60000e+01	
			         1.67167	-1.50000e+01	
			         1.67333	-1.40000e+01	
			         1.67500	-1.30000e+01	
			         1.67667	-1.20000e+01	
			         1.67833	-1.10000e+01	
			         1.68000	-1.10000e+01	
			         1.68167	-1.00000e+01	
			         1.68333	-9.00000e+00	
			         1.68500	-9.00000e+00	
			         1.68667	-8.00000e+00	
			         1.68833	-8.00000e+00	
			         1.69000	-8.00000e+00	
			         1.69167	-8.00000e+00	
			         1.69333	-8.00000e+00	
			         1.69500	-8.00000e+00	
			         1.69667	-9.00000e+00	
			         1.69833	-1.00000e+01	
			         1.70000	-1.00000e+01	
			         1.70167	-1.10000e+01	
			         1.70333	-1.20000e+01	
			         1.70500	-1.20000e+01	
			         1.70667	-1.30000e+01	
			         1.70833	-1.30000e+01	
			         1.71000	-1.30000e+01	
			         1.71167	-1.30000e+01	
			         1.71333	-1.20000e+01	
			         1.71500	-1.20000e+01	
			         1.71667	-1.10000e+01	
			         1.71833	-1.00000e+01	
			         1.72000	-1.00000e+01	
			         1.72167	-9.00000e+00	
			         1.72333	-8.00000e+00	
			         1.72500	-7.00000e+00	
			         1.72667	-6.00000e+00	
			         1.72833	-4.00000e+00	
			         1.73000	-3.00000e+00	
			         1.73167	-2.00000e+00	
			         1.73333	-1.00000e+00	
			         1.73500	0.00000e+00	
			         1.73667	2.00000e+00	
			         1.73833	3.00000e+00	
			         1.74000	4.00000e+00	
			         1.74167	5.00000e+00	
			         1.74333	6.00000e+00	
			         1.74500	7.00000e+00	
			         1.74667	8.00000e+00	
			         1.74833	8.00000e+00	
			         1.75000	9.00000e+00	
			         1.75167	1.00000e+01	
			         1.75333	1.00000e+01	
			         1.75500	1.10000e+01	
			         1.75667	1.10000e+01	
			         1.75833	1.20000e+01	
			         1.76000	1.30000e+01	
			         1.76167	1.30000e+01	
			         1.76333	1.40000e+01	
			         1.76500	1.50000e+01	
			         1.76667	1.60000e+01	
			         1.76833	1.70000e+01	
			         1.77000	1.80000e+01	
			         1.77167	1.90000e+01	
			         1.77333	1.90000e+01	
			         1.77500	2.00000e+01	
			         1.77667	2.10000e+01	
			         1.77833	2.20000e+01	
			         1.78000	2.30000e+01	
			         1.78167	2.40000e+01	
			         1.78333	2.40000e+01	
			         1.78500	2.50000e+01	
			         1.78667	2.60000e+01	
			         1.78833	2.60000e+01	
			         1.79000	2.70000e+01	
			         1.79167	2.70000e+01	
			         1.79333	2.80000e+01	
			         1.79500	2.80000e+01	
			         1.79667	2.80000e+01	
			         1.79833	2.80000e+01	
			         1.80000	2.90000e+01	
			         1.80167	2.90000e+01	
			         1.80333	3.00000e+01	
			         1.80500	3.00000e+01	
			         1.80667	3.10000e+01	
			         1.80833	3.20000e+01	
			         1.81000	3.30000e+01	
			         1.81167	3.30000e+01	
			         1.81333	3.40000e+01	
			         1.81500	3.50000e+01	
			         1.81667	3.60000e+01	
			         1.81833	3.70000e+01	
			         1.82000	3.70000e+01	
			         1.82167	3.80000e+01	
			         1.82333	3.80000e+01	
			         1.82500	3.90000e+01	
			         1.82667	3.90000e+01	
			         1.82833	3.90000e+01	
			         1.83000	3.80000e+01	
			         1.83167	3.80000e+01	
			         1.83333	3.80000e+01	
			         1.83500	3.70000e+01	
			         1.83667	3.70000e+01	
			         1.83833	3.70000e+01	
			         1.84000	3.60000e+01	
			         1.84167	3.60000e+01	
			         1.84333	3.60000e+01	
			         1.84500	3.60000e+01	
			         1.84667	3.70000e+01	
			         1.84833	3.70000e+01	
			         1.85000	3.80000e+01	
			         1.85167	3.90000e+01	
			         1.85333	4.00000e+01	
			         1.85500	4.10000e+01	
			         1.85667	4.20000e+01	
			         1.85833	4.30000e+01	
			         1.86000	4.50000e+01	
			         1.86167	4.60000e+01	
			         1.86333	4.70000e+01	
			         1.86500	4.70000e+01	
			         1.86667	4.80000e+01	
			         1.86833	4.90000e+01	
			         1.87000	4.90000e+01	
			         1.87167	4.90000e+01	
			         1.87333	4.80000e+01	
			         1.87500	4.70000e+01	
			         1.87667	4.60000e+01	
			         1.87833	4.40000e+01	
			         1.88000	4.20000e+01	
			         1.88167	4.00000e+01	
			         1.88333	3.70000e+01	
			         1.88500	3.40000e+01	
			         1.88667	3.10000e+01	
			         1.88833	2.80000e+01	
			         1.89000	2.50000e+01	
			         1.89167	2.10000e+01	
			         1.89333	1.70000e+01	
			         1.89500	1.40000e+01	
			         1.89667	1.00000e+01	
			         1.89833	7.00000e+00	
			         1.90000	3.00000e+00	
			         1.90167	0.00000e+00	
			         1.90333	-3.00000e+00	
			         1.90500	-6.00000e+00	
			         1.90667	-9.00000e+00	
			         1.90833	-1.20000e+01	
			         1.91000	-1.40000e+01	
			         1.91167	-1.70000e+01	
			         1.91333	-1.90000e+01	
			         1.91500	-2.00000e+01	
			         1.91667	-2.20000e+01	
			         1.91833	-2.30000e+01	
			         1.92000	-2.40000e+01	
			         1.92167	-2.50000e+01	
			         1.92333	-2.60000e+01	
			         1.92500	-2.60000e+01	
			         1.92667	-2.60000e+01	
			         1.92833	-2.60000e+01	
			         1.93000	-2.60000e+01	
			         1.93167	-2.50000e+01	
			         1.93333	-2.40000e+01	
			         1.93500	-2.40000e+01	
			         1.93667	-2.30000e+01	
			         1.93833	-2.20000e+01	
			         1.94000	-2.20000e+01	
			         1.94167	-2.10000e+01	
			         1.94333	-2.10000e+01	
			         1.94500	-2.00000e+01	
			         1.94667	-2.00000e+01	
			         1.94833	-2.00000e+01	
			         1.95000	-2.10000e+01	
			         1.95167	-2.10000e+01	
			         1.95333	-2.10000e+01	
			         1.95500	-2.10000e+01	
			         1.95667	-2.20000e+01	
			         1.95833	-2.20000e+01	
			         1.96000	-2.20000e+01	
			         1.96167	-2.20000e+01	
			         1.96333	-2.30000e+01	
			         1.96500	-2.30000e+01	
			         1.96667	-2.30000e+01	
			         1.96833	-2.30000e+01	
			         1.97000	-2.30000e+01	
			         1.97167	-2.40000e+01	
			         1.97333	-2.40000e+01	
			         1.97500	-2.40000e+01	
			         1.97667	-2.40000e+01	
			         1.97833	-2.40000e+01	
			         1.98000	-2.40000e+01	
			         1.98167	-2.40000e+01	
			         1.98333	-2.30000e+01	
			         1.98500	-2.20000e+01	
			         1.98667	-2.20000e+01	
			         1.98833	-2.10000e+01	
			         1.99000	-2.00000e+01	
			         1.99167	-1.90000e+01	
			         1.99333	-1.80000e+01	
			         1.99500	-1.80000e+01	
			         1.99667	-1.70000e+01	
			         1.99833	-1.70000e+01	
			         2.00000	-1.70000e+01	
			         2.00167	-1.60000e+01	
			         2.00333	-1.60000e+01	
			         2.00500	-1.60000e+01	
			         2.00667	-1.50000e+01	
			         2.00833	-1.40000e+01	
			         2.01000	-1.30000e+01	
			         2.01167	-1.10000e+01	
			         2.01333	-9.00000e+00	
			         2.01500	-7.00000e+00	
			         2.01667	-4.00000e+00	
			         2.01833	-1.00000e+00	
			         2.02000	2.00000e+00	
			         2.02167	6.00000e+00	
			         2.02333	1.10000e+01	
			         2.02500	1.60000e+01	
			         2.02667	2.20000e+01	
			         2.02833	3.00000e+01	
			         2.03000	4.20000e+01	
			         2.03167	5.60000e+01	
			         2.03333	7.50000e+01	
			         2.03500	9.80000e+01	
			         2.03667	1.25000e+02	
			         2.03833	1.56000e+02	
			         2.04000	1.89000e+02	
			         2.04167	2.25000e+02	
			         2.04333	2.60000e+02	
			         2.04500	2.94000e+02	
			         2.04667	3.25000e+02	
			         2.04833	3.51000e+02	
			         2.05000	3.71000e+02	
			         2.05167	3.83000e+02	
			         2.05333	3.86000e+02	
			         2.05500	3.80000e+02	
			         2.05667	3.64000e+02	
			         2.05833	3.39000e+02	
			         2.06000	3.06000e+02	
			         2.06167	2.67000e+02	
			         2.06333	2.23000e+02	
			         2.06500	1.76000e+02	
			         2.06667	1.28000e+02	
			         2.06833	8.10000e+01	
			         2.07000	3.60000e+01	
			         2.07167	-5.00000e+00	
			         2.07333	-4.30000e+01	
			         2.07500	-7.50000e+01	
			         2.07667	-1.02000e+02	
			         2.07833	-1.24000e+02	
			         2.08000	-1.40000e+02	
			         2.08167	-1.51000e+02	
			         2.08333	-1.57000e+02	
			         2.08500	-1.59000e+02	
			         2.08667	-1.57000e+02	
			         2.08833	-1.53000e+02	
			         2.09000	-1.46000e+02	
			         2.09167	-1.38000e+02	
			         2.09333	-1.30000e+02	
			         2.09500	-1.21000e+02	
			         2.09667	-1.12000e+02	
			         2.09833	-1.03000e+02	
			         2.10000	-9.40000e+01	
			         2.10167	-8.60000e+01	
			         2.10333	-7.90000e+01	
			         2.10500	-7.30000e+01	
			         2.10667	-6.70000e+01	
			         2.10833	-6.20000e+01	
			         2.11000	-5.80000e+01	
			         2.11167	-5.50000e+01	
			         2.11333	-5.20000e+01	
			         2.11500	-5.00000e+01	
			         2.11667	-4.80000e+01	
			         2.11833	-4.70000e+01	
			         2.12000	-4.50000e+01	
			         2.12167	-4.40000e+01	
			         2.12333	-4.30000e+01	
			         2.12500	-4.20000e+01	
			         2.12667	-4.20000e+01	
			         2.12833	-4.10000e+01	
			         2.13000	-4.00000e+01	
			         2.13167	-3.90000e+01	
			         2.13333	-3.90000e+01	
			         2.13500	-3.80000e+01	
			         2.13667	-3.70000e+01	
			         2.13833	-3.60000e+01	
			         2.14000	-3.50000e+01	
			         2.14167	-3.40000e+01	
			         2.14333	-3.30000e+01	
			         2.14500	-3.20000e+01	
			         2.14667	-3.20000e+01	
			         2.14833	-3.10000e+01	
			         2.15000	-3.00000e+01	
			         2.15167	-3.00000e+01	
			         2.15333	-2.90000e+01	
			         2.15500	-2.80000e+01	
			         2.15667	-2.70000e+01	
			         2.15833	-2.60000e+01	
			         2.16000	-2.50000e+01	
			         2.16167	-2.40000e+01	
			         2.16333	-2.20000e+01	
			         2.16500	-2.10000e+01	
			         2.16667	-1.90000e+01	
			         2.16833	-1.80000e+01	
			         2.17000	-1.60000e+01	
			         2.17167	-1.40000e+01	
			         2.17333	-1.30000e+01	
			         2.17500	-1.10000e+01	
			         2.17667	-1.00000e+01	
			         2.17833	-9.00000e+00	
			         2.18000	-8.00000e+00	
			         2.18167	-7.00000e+00	
			         2.18333	-6.00000e+00	
			         2.18500	-6.00000e+00	
			         2.18667	-5.00000e+00	
			         2.18833	-4.00000e+00	
			         2.19000	-3.00000e+00	
			         2.19167	-1.00000e+00	
			         2.19333	0.00000e+00	
			         2.19500	2.00000e+00	
			         2.19667	4.00000e+00	
			         2.19833	6.00000e+00	
			         2.20000	9.00000e+00	
			         2.20167	1.20000e+01	
			         2.20333	1.50000e+01	
			         2.20500	1.80000e+01	
			         2.20667	2.10000e+01	
			         2.20833	2.50000e+01	
			         2.21000	2.80000e+01	
			         2.21167	3.00000e+01	
			         2.21333	3.30000e+01	
			         2.21500	3.60000e+01	
			         2.21667	3.80000e+01	
			         2.21833	4.10000e+01	
			         2.22000	4.30000e+01	
			         2.22167	4.50000e+01	
			         2.22333	4.80000e+01	
			         2.22500	5.00000e+01	
			         2.22667	5.20000e+01	
			         2.22833	5.50000e+01	
			         2.23000	5.70000e+01	
			         2.23167	6.00000e+01	
			         2.23333	6.20000e+01	
			         2.23500	6.50000e+01	
			         2.23667	6.70000e+01	
			         2.23833	7.00000e+01	
			         2.24000	7.20000e+01	
			         2.24167	7.50000e+01	
			         2.24333	7.70000e+01	
			         2.24500	7.90000e+01	
			         2.24667	8.20000e+01	
			         2.24833	8.50000e+01	
			         2.25000	8.70000e+01	
			         2.25167	9.00000e+01	
			         2.25333	9.30000e+01	
			         2.25500	9.60000e+01	
			         2.25667	9.80000e+01	
			         2.25833	1.01000e+02	
			         2.26000	1.04000e+02	
			         2.26167	1.07000e+02	
			         2.26333	1.10000e+02	
			         2.26500	1.12000e+02	
			         2.26667	1.15000e+02	
			         2.26833	1.17000e+02	
			         2.27000	1.19000e+02	
			         2.27167	1.21000e+02	
			         2.27333	1.22000e+02	
			         2.27500	1.23000e+02	
			         2.27667	1.24000e+02	
			         2.27833	1.25000e+02	
			         2.28000	1.25000e+02	
			         2.28167	1.25000e+02	
			         2.28333	1.24000e+02	
			         2.28500	1.23000e+02	
			         2.28667	1.22000e+02	
			         2.28833	1.20000e+02	
			         2.29000	1.19000e+02	
			         2.29167	1.17000e+02	
			         2.29333	1.15000e+02	
			         2.29500	1.14000e+02	
			         2.29667	1.12000e+02	
			         2.29833	1.10000e+02	
			         2.30000	1.08000e+02	
			         2.30167	1.05000e+02	
			         2.30333	1.03000e+02	
			         2.30500	1.00000e+02	
			         2.30667	9.70000e+01	
			         2.30833	9.30000e+01	
			         2.31000	9.00000e+01	
			         2.31167	8.50000e+01	
			         2.31333	8.10000e+01	
			         2.31500	7.50000e+01	
			         2.31667	7.00000e+01	
			         2.31833	6.40000e+01	
			         2.32000	5.80000e+01	
			         2.32167	5.10000e+01	
			         2.32333	4.40000e+01	
			         2.32500	3.70000e+01	
			         2.32667	3.00000e+01	
			         2.32833	2.30000e+01	
			         2.33000	1.50000e+01	
			         2.33167	8.00000e+00	
			         2.33333	0.00000e+00	
			         2.33500	-7.00000e+00	
			         2.33667	-1.40000e+01	
			         2.33833	-2.10000e+01	
			         2.34000	-2.80000e+01	
			         2.34167	-3.50000e+01	
			         2.34333	-4.10000e+01	
			         2.34500	-4.80000e+01	
			         2.34667	-5.40000e+01	
			         2.34833	-5.90000e+01	
			         2.35000	-6.50000e+01	
			         2.35167	-7.00000e+01	
			         2.35333	-7.50000e+01	
			         2.35500	-7.90000e+01	
			         2.35667	-8.30000e+01	
			         2.35833	-8.60000e+01	
			         2.36000	-9.00000e+01	
			         2.36167	-9.30000e+01	
			         2.36333	-9.50000e+01	
			         2.36500	-9.80000e+01	
			         2.36667	-1.00000e+02	
			         2.36833	-1.01000e+02	
			         2.37000	-1.03000e+02	
			         2.37167	-1.05000e+02	
			         2.37333	-1.07000e+02	
			         2.37500	-1.08000e+02	
			         2.37667	-1.09000e+02	
			         2.37833	-1.10000e+02	
			         2.38000	-1.11000e+02	
			         2.38167	-1.11000e+02	
			         2.38333	-1.11000e+02	
			         2.38500	-1.11000e+02	
			         2.38667	-1.10000e+02	
			         2.38833	-1.09000e+02	
			         2.39000	-1.07000e+02	
			         2.39167	-1.05000e+02	
			         2.39333	-1.03000e+02	
			         2.39500	-1.00000e+02	
			         2.39667	-9.80000e+01	
			         2.39833	-9.50000e+01	
			         2.40000	-9.30000e+01	
			         2.40167	-9.00000e+01	
			         2.40333	-8.70000e+01	
			         2.40500	-8.50000e+01	
			         2.40667	-8.20000e+01	
			         2.40833	-8.00000e+01	
			         2.41000	-7.70000e+01	
			         2.41167	-7.40000e+01	
			         2.41333	-7.10000e+01	
			         2.41500	-6.90000e+01	
			         2.41667	-6.60000e+01	
			         2.41833	-6.40000e+01	
			         2.42000	-6.20000e+01	
			         2.42167	-6.00000e+01	
			         2.42333	-5.90000e+01	
			         2.42500	-5.80000e+01	
			         2.42667	-5.80000e+01	
			         2.42833	-5.70000e+01	
			         2.43000	-5.70000e+01	
			         2.43167	-5.70000e+01	
			         2.43333	-5.80000e+01	
			         2.43500	-5.80000e+01	
			         2.43667	-5.80000e+01	
			         2.43833	-5.80000e+01	
			         2.44000	-5.80000e+01	
			         2.44167	-5.70000e+01	
			         2.44333	-5.70000e+01	
			         2.44500	-5.60000e+01	
			         2.44667	-5.50000e+01	
			         2.44833	-5.30000e+01	
			         2.45000	-5.20000e+01	
			         2.45167	-5.00000e+01	
			         2.45333	-4.80000e+01	
			         2.45500	-4.50000e+01	
			         2.45667	-4.30000e+01	
			         2.45833	-4.00000e+01	
			         2.46000	-3.70000e+01	
			         2.46167	-3.40000e+01	
			         2.46333	-3.10000e+01	
			         2.46500	-2.80000e+01	
			         2.46667	-2.50000e+01	
			         2.46833	-2.20000e+01	
			         2.47000	-1.90000e+01	
			         2.47167	-1.70000e+01	
			         2.47333	-1.50000e+01	
			         2.47500	-1.30000e+01	
			         2.47667	-1.10000e+01	
			         2.47833	-1.00000e+01	
			         2.48000	-9.00000e+00	
			         2.48167	-8.00000e+00	
			         2.48333	-8.00000e+00	
			         2.48500	-8.00000e+00	
			         2.48667	-9.00000e+00	
			         2.48833	-9.00000e+00	
			         2.49000	-1.00000e+01	
			         2.49167	-1.00000e+01	
			         2.49333	-1.10000e+01	
			         2.49500	-1.10000e+01	
			         2.49667	-1.20000e+01	
			         2.49833	-1.20000e+01	
			         2.50000	-1.20000e+01	
			         2.50167	-1.10000e+01	
			         2.50333	-1.00000e+01	
			         2.50500	-9.00000e+00	
			         2.50667	-8.00000e+00	
			         2.50833	-6.00000e+00	
			         2.51000	-4.00000e+00	
			         2.51167	-3.00000e+00	
			         2.51333	-1.00000e+00	
			         2.51500	0.00000e+00	
			         2.51667	1.00000e+00	
			         2.51833	2.00000e+00	
			         2.52000	3.00000e+00	
			         2.52167	4.00000e+00	
			         2.52333	4.00000e+00	
			         2.52500	4.00000e+00	
			         2.52667	4.00000e+00	
			         2.52833	4.00000e+00	
			         2.53000	4.00000e+00	
			         2.53167	4.00000e+00	
			         2.53333	3.00000e+00	
			         2.53500	3.00000e+00	
			         2.53667	3.00000e+00	
			         2.53833	3.00000e+00	
			         2.54000	3.00000e+00	
			         2.54167	3.00000e+00	
			         2.54333	4.00000e+00	
			         2.54500	4.00000e+00	
			         2.54667	4.00000e+00	
			         2.54833	4.00000e+00	
			         2.55000	4.00000e+00	
			         2.55167	3.00000e+00	
			         2.55333	2.00000e+00	
			         2.55500	2.00000e+00	
			         2.55667	0.00000e+00	
			         2.55833	-1.00000e+00	
			         2.56000	-3.00000e+00	
			         2.56167	-4.00000e+00	
			         2.56333	-6.00000e+00	
			         2.56500	-8.00000e+00	
			         2.56667	-1.00000e+01	
			         2.56833	-1.10000e+01	
			         2.57000	-1.20000e+01	
			         2.57167	-1.30000e+01	
			         2.57333	-1.40000e+01	
			         2.57500	-1.40000e+01	
			         2.57667	-1.50000e+01	
			         2.57833	-1.50000e+01	
			         2.58000	-1.50000e+01	
			         2.58167	-1.50000e+01	
			         2.58333	-1.60000e+01	
			         2.58500	-1.60000e+01	
			         2.58667	-1.60000e+01	
			         2.58833	-1.70000e+01	
			         2.59000	-1.80000e+01	
			         2.59167	-1.80000e+01	
			         2.59333	-1.90000e+01	
			         2.59500	-2.00000e+01	
			         2.59667	-2.10000e+01	
			         2.59833	-2.10000e+01	
			         2.60000	-2.20000e+01	
			         2.60167	-2.20000e+01	
			         2.60333	-2.20000e+01	
			         2.60500	-2.20000e+01	
			         2.60667	-2.30000e+01	
			         2.60833	-2.30000e+01	
			         2.61000	-2.30000e+01	
			         2.61167	-2.20000e+01	
			         2.61333	-2.20000e+01	
			         2.61500	-2.20000e+01	
			         2.61667	-2.20000e+01	
			         2.61833	-2.20000e+01	
			         2.62000	-2.20000e+01	
			         2.62167	-2.10000e+01	
			         2.62333	-2.10000e+01	
			         2.62500	-2.10000e+01	
			         2.62667	-2.10000e+01	
			         2.62833	-2.00000e+01	
			         2.63000	-2.00000e+01	
			         2.63167	-2.00000e+01	
			         2.63333	-2.00000e+01	
			         2.63500	-2.00000e+01	
			         2.63667	-2.00000e+01	
			         2.63833	-2.00000e+01	
			         2.64000	-2.10000e+01	
			         2.64167	-2.10000e+01	
			         2.64333	-2.10000e+01	
			         2.64500	-2.10000e+01	
			         2.64667	-2.10000e+01	
			         2.64833	-2.10000e+01	
			         2.65000	-2.10000e+01	
			         2.65167	-2.00000e+01	
			         2.65333	-2.00000e+01	
			         2.65500	-1.90000e+01	
			         2.65667	-1.80000e+01	
			         2.65833	-1.60000e+01	
			         2.66000	-1.50000e+01	
			         2.66167	-1.40000e+01	
			         2.66333	-1.20000e+01	
			         2.66500	-1.10000e+01	
			         2.66667	-1.00000e+01	
			         2.66833	-9.00000e+00	
			         2.67000	-8.00000e+00	
			         2.67167	-7.00000e+00	
			         2.67333	-6.00000e+00	
			         2.67500	-6.00000e+00	
			         2.67667	-5.00000e+00	
			         2.67833	-5.00000e+00	
			         2.68000	-5.00000e+00	
			         2.68167	-6.00000e+00	
			         2.68333	-6.00000e+00	
			         2.68500	-6.00000e+00	
			         2.68667	-6.00000e+00	
			         2.68833	-7.00000e+00	
			         2.69000	-7.00000e+00	
			         2.69167	-8.00000e+00	
			         2.69333	-9.00000e+00	
			         2.69500	-9.00000e+00	
			         2.69667	-1.00000e+01	
			         2.69833	-1.10000e+01	
			         2.70000	-1.20000e+01	
			         2.70167	-1.20000e+01	
			         2.70333	-1.30000e+01	
			         2.70500	-1.30000e+01	
			         2.70667	-1.30000e+01	
			         2.70833	-1.40000e+01	
			         2.71000	-1.40000e+01	
			         2.71167	-1.30000e+01	
			         2.71333	-1.30000e+01	
			         2.71500	-1.30000e+01	
			         2.71667	-1.20000e+01	
			         2.71833	-1.20000e+01	
			         2.72000	-1.10000e+01	
			         2.72167	-1.10000e+01	
			         2.72333	-1.00000e+01	
			         2.72500	-1.00000e+01	
			         2.72667	-9.00000e+00	
			         2.72833	-8.00000e+00	
			         2.73000	-7.00000e+00	
			         2.73167	-6.00000e+00	
			         2.73333	-5.00000e+00	
			         2.73500	-4.00000e+00	
			         2.73667	-2.00000e+00	
			         2.73833	-1.00000e+00	
			         2.74000	1.00000e+00	
			         2.74167	2.00000e+00	
			         2.74333	3.00000e+00	
			         2.74500	4.00000e+00	
			         2.74667	5.00000e+00	
			         2.74833	5.00000e+00	
			         2.75000	5.00000e+00	
			         2.75167	5.00000e+00	
			         2.75333	5.00000e+00	
			         2.75500	4.00000e+00	
			         2.75667	3.00000e+00	
			         2.75833	2.00000e+00	
			         2.76000	1.00000e+00	
			         2.76167	0.00000e+00	
			         2.76333	-1.00000e+00	
			         2.76500	-2.00000e+00	
			         2.76667	-3.00000e+00	
			         2.76833	-3.00000e+00	
			         2.77000	-4.00000e+00	
			         2.77167	-5.00000e+00	
			         2.77333	-5.00000e+00	
			         2.77500	-5.00000e+00	
			         2.77667	-6.00000e+00	
			         2.77833	-6.00000e+00	
			         2.78000	-6.00000e+00	
			         2.78167	-6.00000e+00	
			         2.78333	-6.00000e+00	
			         2.78500	-6.00000e+00	
			         2.78667	-6.00000e+00	
			         2.78833	-6.00000e+00	
			         2.79000	-6.00000e+00	
			         2.79167	-6.00000e+00	
			         2.79333	-6.00000e+00	
			         2.79500	-7.00000e+00	
			         2.79667	-8.00000e+00	
			         2.79833	-8.00000e+00	
			         2.80000	-1.00000e+01	
			         2.80167	-1.10000e+01	
			         2.80333	-1.20000e+01	
			         2.80500	-1.30000e+01	
			         2.80667	-1.40000e+01	
			         2.80833	-1.50000e+01	
			         2.81000	-1.60000e+01	
			         2.81167	-1.60000e+01	
			         2.81333	-1.70000e+01	
			         2.81500	-1.70000e+01	
			         2.81667	-1.70000e+01	
			         2.81833	-1.70000e+01	
			         2.82000	-1.70000e+01	
			         2.82167	-1.70000e+01	
			         2.82333	-1.80000e+01	
			         2.82500	-1.80000e+01	
			         2.82667	-1.80000e+01	
			         2.82833	-1.80000e+01	
			         2.83000	-1.80000e+01	
			         2.83167	-1.90000e+01	
			         2.83333	-1.90000e+01	
			         2.83500	-1.90000e+01	
			         2.83667	-1.90000e+01	
			         2.83833	-1.90000e+01	
			         2.84000	-1.80000e+01	
			         2.84167	-1.70000e+01	
			         2.84333	-1.60000e+01	
			         2.84500	-1.40000e+01	
			         2.84667	-1.10000e+01	
			         2.84833	-9.00000e+00	
			         2.85000	-6.00000e+00	
			         2.85167	-3.00000e+00	
			         2.85333	1.00000e+00	
			         2.85500	4.00000e+00	
			         2.85667	8.00000e+00	
			         2.85833	1.10000e+01	
			         2.86000	1.30000e+01	
			         2.86167	1.60000e+01	
			         2.86333	1.70000e+01	
			         2.86500	1.90000e+01	
			         2.86667	2.00000e+01	
			         2.86833	2.10000e+01	
			         2.87000	2.20000e+01	
			         2.87167	2.20000e+01	
			         2.87333	2.30000e+01	
			         2.87500	2.30000e+01	
			         2.87667	2.30000e+01	
			         2.87833	2.40000e+01	
			         2.88000	2.50000e+01	
			         2.88167	2.60000e+01	
			         2.88333	2.70000e+01	
			         2.88500	2.80000e+01	
			         2.88667	2.90000e+01	
			         2.88833	3.00000e+01	
			         2.89000	3.10000e+01	
			         2.89167	3.20000e+01	
			         2.89333	3.20000e+01	
			         2.89500	3.30000e+01	
			         2.89667	3.30000e+01	
			         2.89833	3.30000e+01	
			         2.90000	3.40000e+01	
			         2.90167	3.40000e+01	
			         2.90333	3.40000e+01	
			         2.90500	3.40000e+01	
			         2.90667	3.30000e+01	
			         2.90833	3.30000e+01	
			         2.91000	3.30000e+01	
			         2.91167	3.20000e+01	
			         2.91333	3.10000e+01	
			         2.91500	2.90000e+01	
			         2.91667	2.70000e+01	
			         2.91833	2.50000e+01	
			         2.92000	2.20000e+01	
			         2.92167	1.90000e+01	
			         2.92333	1.60000e+01	
			         2.92500	1.20000e+01	
			         2.92667	9.00000e+00	
			         2.92833	5.00000e+00	
			         2.93000	2.00000e+00	
			         2.93167	-1.00000e+00	
			         2.93333	-4.00000e+00	
			         2.93500	-7.00000e+00	
			         2.93667	-1.00000e+01	
			         2.93833	-1.20000e+01	
			         2.94000	-1.50000e+01	
			         2.94167	-1.70000e+01	
			         2.94333	-2.00000e+01	
			         2.94500	-2.20000e+01	
			         2.94667	-2.50000e+01	
			         2.94833	-2.70000e+01	
			         2.95000	-3.00000e+01	
			         2.95167	-3.20000e+01	
			         2.95333	-3.50000e+01	
			         2.95500	-3.70000e+01	
			         2.95667	-3.90000e+01	
			         2.95833	-4.00000e+01	
			         2.96000	-4.10000e+01	
			         2.96167	-4.20000e+01	
			         2.96333	-4.20000e+01	
			         2.96500	-4.20000e+01	
			         2.96667	-4.10000e+01	
			         2.96833	-4.00000e+01	
			         2.97000	-3.90000e+01	
			         2.97167	-3.80000e+01	
			         2.97333	-3.70000e+01	
			         2.97500	-3.60000e+01	
			         2.97667	-3.50000e+01	
			         2.97833	-3.30000e+01	
			         2.98000	-3.20000e+01	
			         2.98167	-3.10000e+01	
			         2.98333	-2.90000e+01	
			         2.98500	-2.80000e+01	
			         2.98667	-2.60000e+01	
			         2.98833	-2.50000e+01	
			         2.99000	-2.30000e+01	
			         2.99167	-2.10000e+01	
			         2.99333	-1.90000e+01	
			         2.99500	-1.80000e+01	
			         2.99667	-1.60000e+01	
			         2.99833	-1.50000e+01	
			         3.00000	-1.40000e+01	
			         3.00167	-1.30000e+01	
			         3.00333	-1.20000e+01	
			         3.00500	-1.20000e+01	
			         3.00667	-1.10000e+01	
			         3.00833	-1.10000e+01	
			         3.01000	-1.20000e+01	
			         3.01167	-1.20000e+01	
			         3.01333	-1.20000e+01	
			         3.01500	-1.30000e+01	
			         3.01667	-1.30000e+01	
			         3.01833	-1.30000e+01	
			         3.02000	-1.30000e+01	
			         3.02167	-1.30000e+01	
			         3.02333	-1.30000e+01	
			         3.02500	-1.30000e+01	
			         3.02667	-1.30000e+01	
			         3.02833	-1.30000e+01	
			         3.03000	-1.30000e+01	
			         3.03167	-1.20000e+01	
			         3.03333	-1.20000e+01	
			         3.03500	-1.20000e+01	
			         3.03667	-1.20000e+01	
			         3.03833	-1.30000e+01	
			         3.04000	-1.30000e+01	
			         3.04167	-1.30000e+01	
			         3.04333	-1.40000e+01	
			         3.04500	-1.50000e+01	
			         3.04667	-1.50000e+01	
			         3.04833	-1.60000e+01	
			         3.05000	-1.60000e+01	
			         3.05167	-1.60000e+01	
			         3.05333	-1.60000e+01	
			         3.05500	-1.50000e+01	
			         3.05667	-1.30000e+01	
			         3.05833	-1.10000e+01	
			         3.06000	-8.00000e+00	
			         3.06167	-4.00000e+00	
			         3.06333	2.00000e+00	
			         3.06500	1.00000e+01	
			         3.06667	2.20000e+01	
			         3.06833	3.70000e+01	
			         3.07000	5.60000e+01	
			         3.07167	7.90000e+01	
			         3.07333	1.07000e+02	
			         3.07500	1.39000e+02	
			         3.07667	1.74000e+02	
			         3.07833	2.11000e+02	
			         3.08000	2.48000e+02	
			         3.08167	2.84000e+02	
			         3.08333	3.16000e+02	
			         3.08500	3.44000e+02	
			         3.08667	3.66000e+02	
			         3.08833	3.80000e+02	
			         3.09000	3.86000e+02	
			         3.09167	3.82000e+02	
			         3.09333	3.68000e+02	
			         3.09500	3.46000e+02	
			         3.09667	3.14000e+02	
			         3.09833	2.76000e+02	
			         3.10000	2.33000e+02	
			         3.10167	1.87000e+02	
			         3.10333	1.39000e+02	
			         3.10500	9.20000e+01	
			         3.10667	4.60000e+01	
			         3.10833	4.00000e+00	
			         3.11000	-3.40000e+01	
			         3.11167	-6.80000e+01	
			         3.11333	-9.60000e+01	
			         3.11500	-1.19000e+02	
			         3.11667	-1.36000e+02	
			         3.11833	-1.47000e+02	
			         3.12000	-1.54000e+02	
			         3.12167	-1.56000e+02	
			         3.12333	-1.55000e+02	
			         3.12500	-1.50000e+02	
			         3.12667	-1.44000e+02	
			         3.12833	-1.36000e+02	
			         3.13000	-1.28000e+02	
