Velocity (TVI), in cm/s

Time (s) :	Trace 1 : 		Ecg : 		
0.00495   	-5.09811e-01		         0.00000	-9.00000e+00	
0.01081   	-2.72446e-01		         0.00167	6.00000e+00	
0.01668   	-5.07991e-02		         0.00333	2.60000e+01	
0.02255   	4.56285e-01		         0.00500	5.00000e+01	
0.02842   	1.24546e+00		         0.00667	8.00000e+01	
0.03429   	2.04304e+00		         0.00833	1.13000e+02	
0.04016   	2.80048e+00		         0.01000	1.51000e+02	
0.04602   	3.30466e+00		         0.01167	1.91000e+02	
0.05190   	3.18258e+00		         0.01333	2.33000e+02	
0.05776   	2.37695e+00		         0.01500	2.77000e+02	
0.06376   	1.55638e+00		         0.01667	3.19000e+02	
0.06950   	6.38903e-01		         0.01833	3.60000e+02	
0.07537   	-1.17873e-01		         0.02000	3.98000e+02	
0.08124   	-2.32215e-01		         0.02167	4.30000e+02	
0.08711   	3.32002e-01		         0.02333	4.56000e+02	
0.09297   	8.84801e-01		         0.02500	4.73000e+02	
0.09884   	1.67614e+00		         0.02667	4.80000e+02	
0.10471   	2.57149e+00		         0.02833	4.77000e+02	
0.11058   	3.41850e+00		         0.03000	4.64000e+02	
0.11645   	4.03027e+00		         0.03167	4.41000e+02	
0.12232   	4.35476e+00		         0.03333	4.08000e+02	
0.12818   	4.60710e+00		         0.03500	3.68000e+02	
0.13406   	4.81910e+00		         0.03667	3.20000e+02	
0.13992   	4.89851e+00		         0.03833	2.68000e+02	
0.14579   	4.85214e+00		         0.04000	2.12000e+02	
0.15166   	5.00393e+00		         0.04167	1.55000e+02	
0.15753   	5.00449e+00		         0.04333	9.80000e+01	
0.16340   	4.99468e+00		         0.04500	4.30000e+01	
0.16927   	4.97794e+00		         0.04667	-7.00000e+00	
0.17514   	5.01388e+00		         0.04833	-5.20000e+01	
0.18100   	4.94542e+00		         0.05000	-9.10000e+01	
0.18687   	4.98120e+00		         0.05167	-1.22000e+02	
0.19274   	4.92698e+00		         0.05333	-1.47000e+02	
0.19861   	4.95896e+00		         0.05500	-1.66000e+02	
0.20448   	4.99706e+00		         0.05667	-1.78000e+02	
0.21034   	5.03789e+00		         0.05833	-1.85000e+02	
0.21621   	5.05809e+00		         0.06000	-1.88000e+02	
0.22208   	5.09105e+00		         0.06167	-1.87000e+02	
0.22795   	5.01231e+00		         0.06333	-1.83000e+02	
0.23382   	4.98563e+00		         0.06500	-1.76000e+02	
0.23969   	4.97908e+00		         0.06667	-1.69000e+02	
0.24556   	4.87890e+00		         0.06833	-1.60000e+02	
0.25143   	4.76164e+00		         0.07000	-1.52000e+02	
0.25729   	4.81533e+00		         0.07167	-1.43000e+02	
0.26316   	4.81946e+00		         0.07333	-1.35000e+02	
0.26902   	4.80025e+00		         0.07500	-1.27000e+02	
0.27490   	4.85634e+00		         0.07667	-1.20000e+02	
0.28077   	4.88266e+00		         0.07833	-1.13000e+02	
0.28664   	4.80273e+00		         0.08000	-1.08000e+02	
0.29251   	4.71480e+00		         0.08167	-1.02000e+02	
0.29837   	4.62734e+00		         0.08333	-9.80000e+01	
0.30424   	4.56103e+00		         0.08500	-9.40000e+01	
0.31011   	4.46588e+00		         0.08667	-9.10000e+01	
0.31598   	4.44653e+00		         0.08833	-8.90000e+01	
0.32185   	4.32860e+00		         0.09000	-8.80000e+01	
0.32772   	4.20337e+00		         0.09167	-8.80000e+01	
0.33359   	3.94579e+00		         0.09333	-8.80000e+01	
0.33946   	3.93016e+00		         0.09500	-8.90000e+01	
0.34532   	3.79485e+00		         0.09667	-9.00000e+01	
0.35119   	3.78284e+00		         0.09833	-9.10000e+01	
0.35706   	3.67358e+00		         0.10000	-9.10000e+01	
0.36293   	3.68031e+00		         0.10167	-9.20000e+01	
0.36880   	3.56137e+00		         0.10333	-9.10000e+01	
0.37467   	3.40055e+00		         0.10500	-9.00000e+01	
0.38053   	3.24197e+00		         0.10667	-8.80000e+01	
0.38640   	3.10538e+00		         0.10833	-8.60000e+01	
0.39227   	2.86194e+00		         0.11000	-8.30000e+01	
0.39814   	2.61850e+00		         0.11167	-7.90000e+01	
0.40401   	2.31031e+00		         0.11333	-7.50000e+01	
0.40988   	1.97793e+00		         0.11500	-7.10000e+01	
0.41575   	1.70902e+00		         0.11667	-6.60000e+01	
0.42161   	1.08394e+00		         0.11833	-6.20000e+01	
0.42748   	2.69387e-01		         0.12000	-5.90000e+01	
0.43335   	-2.07694e-01		         0.12167	-5.60000e+01	
0.43922   	-1.18163e+00		         0.12333	-5.40000e+01	
0.44509   	-1.29467e+00		         0.12500	-5.20000e+01	
0.45096   	-9.60026e-01		         0.12667	-5.10000e+01	
0.45682   	-5.13764e-01		         0.12833	-5.10000e+01	
0.46269   	-2.66064e-01		         0.13000	-5.10000e+01	
0.46856   	6.45124e-01		         0.13167	-5.20000e+01	
0.47443   	6.01415e-01		         0.13333	-5.30000e+01	
0.48030   	5.29041e-01		         0.13500	-5.40000e+01	
0.48617   	5.91879e-01		         0.13667	-5.40000e+01	
0.49204   	5.37414e-01		         0.13833	-5.50000e+01	
0.49791   	-5.48433e-03		         0.14000	-5.50000e+01	
0.50377   	-4.03631e-01		         0.14167	-5.50000e+01	
0.50964   	-1.30595e+00		         0.14333	-5.50000e+01	
0.51551   	-1.93818e+00		         0.14500	-5.40000e+01	
0.52138   	-2.85398e+00		         0.14667	-5.20000e+01	
0.52725   	-3.53852e+00		         0.14833	-4.90000e+01	
0.53312   	-4.25703e+00		         0.15000	-4.60000e+01	
0.53899   	-4.76091e+00		         0.15167	-4.20000e+01	
0.54522   	-5.62390e+00		         0.15333	-3.90000e+01	
0.55072   	-5.97217e+00		         0.15500	-3.60000e+01	
0.55659   	-6.24978e+00		         0.15667	-3.20000e+01	
0.56246   	-6.49630e+00		         0.15833	-2.90000e+01	
0.56833   	-6.45993e+00		         0.16000	-2.70000e+01	
0.57419   	-6.19185e+00		         0.16167	-2.50000e+01	
0.58007   	-5.88780e+00		         0.16333	-2.30000e+01	
0.58593   	-5.58587e+00		         0.16500	-2.20000e+01	
0.59181   	-5.16531e+00		         0.16667	-2.10000e+01	
0.59767   	-4.70358e+00		         0.16833	-2.00000e+01	
0.60354   	-4.49455e+00		         0.17000	-2.00000e+01	
0.60941   	-4.20978e+00		         0.17167	-2.00000e+01	
0.61528   	-3.88282e+00		         0.17333	-2.00000e+01	
0.62115   	-3.43532e+00		         0.17500	-2.10000e+01	
0.62701   	-2.97459e+00		         0.17667	-2.20000e+01	
0.63289   	-2.69553e+00		         0.17833	-2.30000e+01	
0.63875   	-2.62203e+00		         0.18000	-2.30000e+01	
0.64480   	-2.49655e+00		         0.18167	-2.40000e+01	
0.65049   	-2.61706e+00		         0.18333	-2.40000e+01	
0.65636   	-2.72355e+00		         0.18500	-2.30000e+01	
0.66222   	-2.67382e+00		         0.18667	-2.20000e+01	
0.66809   	-2.70206e+00		         0.18833	-2.00000e+01	
0.67396   	-2.74100e+00		         0.19000	-1.70000e+01	
0.67983   	-2.65890e+00		         0.19167	-1.50000e+01	
0.68570   	-2.57172e+00		         0.19333	-1.20000e+01	
0.69157   	-2.37009e+00		         0.19500	-9.00000e+00	
0.69744   	-2.06211e+00		         0.19667	-6.00000e+00	
0.70331   	-1.81065e+00		         0.19833	-3.00000e+00	
0.70917   	-1.69158e+00		         0.20000	0.00000e+00	
0.71504   	-1.57401e+00		         0.20167	2.00000e+00	
0.72091   	-1.52131e+00		         0.20333	3.00000e+00	
0.72678   	-1.53082e+00		         0.20500	3.00000e+00	
0.73265   	-1.50453e+00		         0.20667	2.00000e+00	
0.73852   	-1.44289e+00		         0.20833	1.00000e+00	
0.74451   	-1.42097e+00		         0.21000	-1.00000e+00	
0.75025   	-1.42570e+00		         0.21167	-3.00000e+00	
0.75613   	-1.38249e+00		         0.21333	-6.00000e+00	
0.76199   	-1.35050e+00		         0.21500	-8.00000e+00	
0.76786   	-1.32333e+00		         0.21667	-1.00000e+01	
0.77373   	-1.28287e+00		         0.21833	-1.10000e+01	
0.77960   	-1.15281e+00		         0.22000	-1.10000e+01	
0.78547   	-1.04693e+00		         0.22167	-1.10000e+01	
0.79133   	-9.76942e-01		         0.22333	-1.10000e+01	
0.79720   	-8.98399e-01		         0.22500	-1.00000e+01	
0.80307   	-8.62628e-01		         0.22667	-8.00000e+00	
0.80894   	-8.52969e-01		         0.22833	-6.00000e+00	
0.81481   	-9.23961e-01		         0.23000	-3.00000e+00	
0.82068   	-1.06720e+00		         0.23167	0.00000e+00	
0.82655   	-1.37582e+00		         0.23333	3.00000e+00	
0.83241   	-1.73921e+00		         0.23500	6.00000e+00	
0.83828   	-2.27955e+00		         0.23667	9.00000e+00	
0.84417   	-2.99641e+00		         0.23833	1.20000e+01	
0.85002   	-3.73096e+00		         0.24000	1.50000e+01	
0.85589   	-4.40954e+00		         0.24167	1.70000e+01	
0.86176   	-5.14161e+00		         0.24333	1.80000e+01	
0.86763   	-5.75894e+00		         0.24500	2.00000e+01	
0.87350   	-6.16216e+00		         0.24667	2.10000e+01	
0.87936   	-6.31455e+00		         0.24833	2.10000e+01	
0.88523   	-6.35668e+00		         0.25000	2.10000e+01	
0.89110   	-6.12783e+00		         0.25167	2.10000e+01	
0.89697   	-5.85636e+00		         0.25333	2.10000e+01	
0.90284   	-5.59432e+00		         0.25500	2.20000e+01	
0.90870   	-5.26538e+00		         0.25667	2.20000e+01	
0.91458   	-5.13991e+00		         0.25833	2.20000e+01	
0.92044   	-4.98869e+00		         0.26000	2.20000e+01	
0.92631   	-4.84210e+00		         0.26167	2.30000e+01	
0.93218   	-4.40371e+00		         0.26333	2.40000e+01	
0.93805   	-4.00373e+00		         0.26500	2.60000e+01	
0.94392   	-3.41774e+00		         0.26667	2.90000e+01	
0.94979   	-2.83398e+00		         0.26833	3.20000e+01	
0.95565   	-2.18581e+00		         0.27000	3.60000e+01	
0.96152   	-1.67296e+00		         0.27167	4.00000e+01	
0.96739   	-1.29385e+00		         0.27333	4.40000e+01	
0.97326   	-8.01828e-01		         0.27500	4.90000e+01	
0.97913   	-3.28805e-01		         0.27667	5.30000e+01	
0.98500   	3.09820e-01		         0.27833	5.80000e+01	
0.99087   	1.13776e+00		         0.28000	6.20000e+01	
0.99673   	2.14896e+00		         0.28167	6.60000e+01	
1.00260   	3.17256e+00		         0.28333	7.00000e+01	
1.00847   	3.70819e+00		         0.28500	7.30000e+01	
1.01435   	3.79744e+00		         0.28667	7.50000e+01	
1.02021   	3.27988e+00		         0.28833	7.60000e+01	
1.02608   	2.53748e+00		         0.29000	7.80000e+01	
1.03195   	1.58129e+00		         0.29167	7.80000e+01	
1.03782   	1.07429e+00		         0.29333	7.90000e+01	
1.04368   	8.37001e-01		         0.29500	7.90000e+01	
1.04955   	1.07022e+00		         0.29667	7.90000e+01	
1.05542   	1.59738e+00		         0.29833	7.90000e+01	
1.06129   	2.52464e+00		         0.30000	7.80000e+01	
1.06716   	3.30467e+00		         0.30167	7.70000e+01	
1.07302   	4.09029e+00		         0.30333	7.60000e+01	
1.07889   	4.73173e+00		         0.30500	7.50000e+01	
1.08477   	5.05042e+00		         0.30667	7.30000e+01	
1.09063   	5.02596e+00		         0.30833	7.10000e+01	
1.09650   	5.07451e+00		         0.31000	6.80000e+01	
1.10237   	5.12120e+00		         0.31167	6.50000e+01	
1.10824   	5.13057e+00		         0.31333	6.10000e+01	
1.11411   	5.21420e+00		         0.31500	5.70000e+01	
1.11997   	5.27297e+00		         0.31667	5.30000e+01	
1.12584   	5.35736e+00		         0.31833	4.90000e+01	
1.13171   	5.37207e+00		         0.32000	4.50000e+01	
1.13758   	5.41035e+00		         0.32167	4.10000e+01	
1.14345   	5.47967e+00		         0.32333	3.80000e+01	
1.14932   	5.55976e+00		         0.32500	3.50000e+01	
1.15519   	5.62620e+00		         0.32667	3.20000e+01	
1.16106   	5.64159e+00		         0.32833	2.80000e+01	
1.16692   	5.69601e+00		         0.33000	2.50000e+01	
1.17279   	5.72144e+00		         0.33167	2.20000e+01	
1.17866   	5.69633e+00		         0.33333	1.80000e+01	
1.18453   	5.57115e+00		         0.33500	1.50000e+01	
1.19040   	5.46853e+00		         0.33667	1.10000e+01	
1.19627   	5.27742e+00		         0.33833	8.00000e+00	
1.20214   	5.01173e+00		         0.34000	5.00000e+00	
1.20800   	4.95152e+00		         0.34167	1.00000e+00	
1.21387   	5.01037e+00		         0.34333	-2.00000e+00	
1.21974   	5.03643e+00		         0.34500	-5.00000e+00	
1.22596   	5.07718e+00		         0.34667	-8.00000e+00	
1.23148   	5.15124e+00		         0.34833	-1.10000e+01	
1.23735   	5.19762e+00		         0.35000	-1.40000e+01	
1.24321   	5.06882e+00		         0.35167	-1.60000e+01	
1.24909   	4.98347e+00		         0.35333	-1.90000e+01	
1.25496   	4.90000e+00		         0.35500	-2.00000e+01	
1.26082   	4.76567e+00		         0.35667	-2.20000e+01	
1.26669   	4.44592e+00		         0.35833	-2.40000e+01	
1.27256   	4.35378e+00		         0.36000	-2.60000e+01	
1.27842   	4.33114e+00		         0.36167	-2.80000e+01	
1.28430   	4.15927e+00		         0.36333	-3.20000e+01	
1.29016   	3.98153e+00		         0.36500	-3.50000e+01	
1.29602   	3.84937e+00		         0.36667	-3.90000e+01	
1.30190   	3.65676e+00		         0.36833	-4.30000e+01	
1.30777   	3.41830e+00		         0.37000	-4.60000e+01	
1.31364   	3.29626e+00		         0.37167	-5.00000e+01	
1.31951   	3.27889e+00		         0.37333	-5.30000e+01	
1.32549   	3.15232e+00		         0.37500	-5.60000e+01	
1.33124   	2.98663e+00		         0.37667	-5.80000e+01	
1.33711   	2.80252e+00		         0.37833	-6.00000e+01	
1.34298   	2.70849e+00		         0.38000	-6.10000e+01	
1.34885   	2.51922e+00		         0.38167	-6.20000e+01	
1.35472   	2.44141e+00		         0.38333	-6.20000e+01	
1.36059   	2.28313e+00		         0.38500	-6.20000e+01	
1.36646   	2.01833e+00		         0.38667	-6.00000e+01	
1.37232   	1.67270e+00		         0.38833	-5.80000e+01	
1.37819   	1.22408e+00		         0.39000	-5.60000e+01	
1.38406   	3.41231e-01		         0.39167	-5.40000e+01	
1.38993   	-4.78215e-01		         0.39333	-5.20000e+01	
1.39580   	-1.05071e+00		         0.39500	-5.00000e+01	
1.40167   	-1.29740e+00		         0.39667	-4.80000e+01	
1.40753   	-1.60636e+00		         0.39833	-4.60000e+01	
1.41341   	-1.18614e+00		         0.40000	-4.50000e+01	
1.41927   	-8.00068e-01		         0.40167	-4.30000e+01	
1.42519   	-3.20323e-01		         0.40333	-4.20000e+01	
1.43101   	-2.18499e-01		         0.40500	-4.20000e+01	
1.43688   	1.21392e-01		         0.40667	-4.20000e+01	
1.44275   	1.92941e-02		         0.40833	-4.20000e+01	
1.44861   	-1.36698e-01		         0.41000	-4.30000e+01	
1.45448   	-3.40098e-01		         0.41167	-4.40000e+01	
1.46035   	-1.04567e+00		         0.41333	-4.50000e+01	
1.46622   	-1.50263e+00		         0.41500	-4.60000e+01	
1.47209   	-1.99875e+00		         0.41667	-4.70000e+01	
1.47796   	-2.48315e+00		         0.41833	-4.70000e+01	
1.48383   	-3.55597e+00		         0.42000	-4.70000e+01	
1.48969   	-3.89707e+00		         0.42167	-4.70000e+01	
1.49556   	-4.80188e+00		         0.42333	-4.60000e+01	
1.50143   	-5.33203e+00		         0.42500	-4.50000e+01	
1.50730   	-6.03565e+00		         0.42667	-4.30000e+01	
1.51317   	-6.31334e+00		         0.42833	-4.00000e+01	
1.51904   	-6.56957e+00		         0.43000	-3.70000e+01	
1.52490   	-6.42178e+00		         0.43167	-3.40000e+01	
1.53078   	-6.41841e+00		         0.43333	-3.10000e+01	
1.53664   	-6.24283e+00		         0.43500	-2.80000e+01	
1.54251   	-5.90421e+00		         0.43667	-2.50000e+01	
1.54838   	-5.45382e+00		         0.43833	-2.30000e+01	
1.55425   	-5.10207e+00		         0.44000	-2.20000e+01	
1.56012   	-4.97375e+00		         0.44167	-2.00000e+01	
1.56599   	-4.64567e+00		         0.44333	-2.00000e+01	
1.57186   	-4.17197e+00		         0.44500	-1.90000e+01	
1.57773   	-4.02788e+00		         0.44667	-2.00000e+01	
1.58359   	-3.70032e+00		         0.44833	-2.10000e+01	
1.58946   	-3.37452e+00		         0.45000	-2.30000e+01	
1.59533   	-3.17567e+00		         0.45167	-2.50000e+01	
1.60120   	-3.21785e+00		         0.45333	-2.70000e+01	
1.60706   	-3.17312e+00		         0.45500	-2.90000e+01	
1.61293   	-3.09642e+00		         0.45667	-3.00000e+01	
1.61880   	-2.80575e+00		         0.45833	-3.10000e+01	
1.62467   	-2.41923e+00		         0.46000	-3.10000e+01	
1.63054   	-2.20269e+00		         0.46167	-3.10000e+01	
1.63641   	-1.91738e+00		         0.46333	-3.10000e+01	
1.64228   	-1.86440e+00		         0.46500	-2.90000e+01	
1.64814   	-1.81042e+00		         0.46667	-2.70000e+01	
1.65401   	-1.82865e+00		         0.46833	-2.40000e+01	
1.65988   	-1.72487e+00		         0.47000	-2.10000e+01	
1.66575   	-1.72564e+00		         0.47167	-1.70000e+01	
1.67162   	-1.70763e+00		         0.47333	-1.40000e+01	
1.67749   	-1.75237e+00		         0.47500	-1.10000e+01	
1.68336   	-1.82287e+00		         0.47667	-8.00000e+00	
1.68922   	-1.85692e+00		         0.47833	-7.00000e+00	
1.69510   	-1.85550e+00		         0.48000	-6.00000e+00	
1.70097   	-1.85210e+00		         0.48167	-6.00000e+00	
1.70683   	-1.80591e+00		         0.48333	-7.00000e+00	
1.71270   	-1.68069e+00		         0.48500	-9.00000e+00	
1.71857   	-1.56733e+00		         0.48667	-1.10000e+01	
1.72444   	-1.46137e+00		         0.48833	-1.30000e+01	
1.73031   	-1.39157e+00		         0.49000	-1.60000e+01	
1.73618   	-1.24145e+00		         0.49167	-1.80000e+01	
1.74205   	-1.16839e+00		         0.49333	-2.10000e+01	
1.74792   	-1.11283e+00		         0.49500	-2.30000e+01	
1.75378   	-1.07857e+00		         0.49667	-2.50000e+01	
1.75965   	-9.85041e-01		         0.49833	-2.60000e+01	
1.76552   	-9.26600e-01		         0.50000	-2.70000e+01	
1.77139   	-8.55285e-01		         0.50167	-2.70000e+01	
1.77725   	-7.94992e-01		         0.50333	-2.70000e+01	
1.78313   	-7.66073e-01		         0.50500	-2.60000e+01	
1.78899   	-7.93943e-01		         0.50667	-2.60000e+01	
1.79486   	-9.32366e-01		         0.50833	-2.40000e+01	
1.80073   	-1.18273e+00		         0.51000	-2.30000e+01	
1.80697   	-1.58611e+00		         0.51167	-2.10000e+01	
1.81247   	-2.18341e+00		         0.51333	-2.00000e+01	
1.81834   	-2.94765e+00		         0.51500	-1.80000e+01	
1.82420   	-3.84527e+00		         0.51667	-1.60000e+01	
1.83008   	-4.65107e+00		         0.51833	-1.50000e+01	
1.83594   	-5.41257e+00		         0.52000	-1.40000e+01	
1.84181   	-6.05790e+00		         0.52167	-1.30000e+01	
1.84768   	-6.55855e+00		         0.52333	-1.30000e+01	
1.85355   	-6.87124e+00		         0.52500	-1.30000e+01	
1.85942   	-7.04921e+00		         0.52667	-1.30000e+01	
1.86529   	-6.94366e+00		         0.52833	-1.30000e+01	
1.87115   	-6.63193e+00		         0.53000	-1.30000e+01	
1.87702   	-6.30810e+00		         0.53167	-1.30000e+01	
1.88289   	-5.93840e+00		         0.53333	-1.30000e+01	
1.88876   	-5.60158e+00		         0.53500	-1.30000e+01	
1.89463   	-5.22094e+00		         0.53667	-1.20000e+01	
1.90049   	-5.03493e+00		         0.53833	-1.20000e+01	
1.90655   	-4.75213e+00		         0.54000	-1.20000e+01	
1.91223   	-4.26498e+00		         0.54167	-1.20000e+01	
1.91810   	-3.75048e+00		         0.54333	-1.10000e+01	
1.92397   	-3.32244e+00		         0.54500	-1.00000e+01	
1.92984   	-2.79397e+00		         0.54667	-1.00000e+01	
1.93571   	-2.16903e+00		         0.54833	-9.00000e+00	
1.94157   	-1.76649e+00		         0.55000	-9.00000e+00	
1.94744   	-1.31697e+00		         0.55167	-8.00000e+00	
1.95331   	-9.51714e-01		         0.55333	-8.00000e+00	
1.95918   	-4.87742e-01		         0.55500	-8.00000e+00	
1.96505   	1.02742e-01		         0.55667	-8.00000e+00	
1.97092   	9.66517e-01		         0.55833	-8.00000e+00	
1.97679   	1.98347e+00		         0.56000	-7.00000e+00	
1.98266   	3.02392e+00		         0.56167	-6.00000e+00	
1.98852   	3.69593e+00		         0.56333	-5.00000e+00	
1.99439   	3.74479e+00		         0.56500	-3.00000e+00	
2.00026   	3.12722e+00		         0.56667	-2.00000e+00	
2.00613   	2.37441e+00		         0.56833	0.00000e+00	
2.01200   	1.29333e+00		         0.57000	1.00000e+00	
2.01787   	7.19617e-01		         0.57167	2.00000e+00	
2.02374   	7.22745e-01		         0.57333	3.00000e+00	
2.02960   	1.32972e+00		         0.57500	4.00000e+00	
2.03547   	1.96782e+00		         0.57667	5.00000e+00	
2.04134   	3.02251e+00		         0.57833	6.00000e+00	
2.04721   	3.91709e+00		         0.58000	6.00000e+00	
2.05308   	4.63663e+00		         0.58167	6.00000e+00	
2.05895   	5.08690e+00		         0.58333	6.00000e+00	
2.06481   	5.35878e+00		         0.58500	6.00000e+00	
2.07068   	5.48260e+00		         0.58667	6.00000e+00	
2.07656   	5.50188e+00		         0.58833	6.00000e+00	
2.08242   	5.45700e+00		         0.59000	5.00000e+00	
2.08829   	5.50155e+00		         0.59167	5.00000e+00	
2.09416   	5.51951e+00		         0.59333	4.00000e+00	
2.10002   	5.54506e+00		         0.59500	3.00000e+00	
2.10589   	5.59478e+00		         0.59667	2.00000e+00	
2.11176   	5.65801e+00		         0.59833	2.00000e+00	
2.11763   	5.62926e+00		         0.60000	1.00000e+00	
2.12350   	5.62124e+00		         0.60167	1.00000e+00	
2.12937   	5.61098e+00		         0.60333	1.00000e+00	
2.13524   	5.59528e+00		         0.60500	1.00000e+00	
2.14111   	5.51296e+00		         0.60667	2.00000e+00	
2.14698   	5.48924e+00		         0.60833	2.00000e+00	
2.15284   	5.47705e+00		         0.61000	3.00000e+00	
2.15871   	5.40793e+00		         0.61167	4.00000e+00	
2.16458   	5.32886e+00		         0.61333	6.00000e+00	
2.17045   	5.16289e+00		         0.61500	7.00000e+00	
2.17632   	5.16784e+00		         0.61667	8.00000e+00	
2.18219   	5.16555e+00		         0.61833	8.00000e+00	
2.18806   	5.15105e+00		         0.62000	9.00000e+00	
2.19392   	5.10099e+00		         0.62167	9.00000e+00	
2.19979   	5.09903e+00		         0.62333	9.00000e+00	
2.20566   	5.11062e+00		         0.62500	8.00000e+00	
2.21153   	5.16131e+00		         0.62667	7.00000e+00	
2.21740   	5.14771e+00		         0.62833	6.00000e+00	
2.22327   	5.07965e+00		         0.63000	4.00000e+00	
2.22913   	5.07095e+00		         0.63167	2.00000e+00	
2.23501   	4.88739e+00		         0.63333	1.00000e+00	
2.24087   	4.65203e+00		         0.63500	-1.00000e+00	
2.24674   	4.57476e+00		         0.63667	-2.00000e+00	
2.25261   	4.50821e+00		         0.63833	-3.00000e+00	
2.25848   	4.49843e+00		         0.64000	-5.00000e+00	
2.26435   	4.48724e+00		         0.64167	-6.00000e+00	
2.27021   	4.31837e+00		         0.64333	-8.00000e+00	
2.27609   	4.19102e+00		         0.64500	-9.00000e+00	
2.28195   	4.21633e+00		         0.64667	-1.00000e+01	
2.28817   	4.08791e+00		         0.64833	-1.00000e+01	
2.29369   	3.89045e+00		         0.65000	-9.00000e+00	
2.29956   	3.76978e+00		         0.65167	-8.00000e+00	
2.30543   	3.58311e+00		         0.65333	-7.00000e+00	
2.31130   	3.25056e+00		         0.65500	-6.00000e+00	
2.31717   	3.03509e+00		         0.65667	-5.00000e+00	
2.32304   	2.89835e+00		         0.65833	-4.00000e+00	
2.32890   	2.84621e+00		         0.66000	-3.00000e+00	
2.33477   	2.68535e+00		         0.66167	-2.00000e+00	
2.34064   	2.46954e+00		         0.66333	-1.00000e+00	
2.34651   	2.23017e+00		         0.66500	0.00000e+00	
2.35237   	1.83371e+00		         0.66667	0.00000e+00	
2.35824   	1.22884e+00		         0.66833	-1.00000e+00	
2.36411   	4.31993e-01		         0.67000	-1.00000e+00	
2.36998   	-3.35423e-01		         0.67167	-2.00000e+00	
2.37585   	-9.37202e-01		         0.67333	-3.00000e+00	
2.38172   	-1.27835e+00		         0.67500	-4.00000e+00	
2.38759   	-1.27288e+00		         0.67667	-5.00000e+00	
2.39346   	-1.22185e+00		         0.67833	-6.00000e+00	
2.39933   	-8.21187e-01		         0.68000	-7.00000e+00	
2.40519   	-4.03255e-01		         0.68167	-8.00000e+00	
2.41106   	-2.67134e-01		         0.68333	-8.00000e+00	
2.41693   	-4.53045e-01		         0.68500	-7.00000e+00	
2.42280   	-3.17773e-01		         0.68667	-7.00000e+00	
2.42867   	-6.84547e-01		         0.68833	-6.00000e+00	
2.43454   	-9.93086e-01		         0.69000	-5.00000e+00	
2.44040   	-1.31592e+00		         0.69167	-3.00000e+00	
2.44627   	-1.96173e+00		         0.69333	-2.00000e+00	
2.45214   	-2.64599e+00		         0.69500	-1.00000e+00	
2.45802   	-3.13311e+00		         0.69667	1.00000e+00	
2.46388   	-4.07371e+00		         0.69833	2.00000e+00	
2.46975   	-4.89710e+00		         0.70000	3.00000e+00	
2.47562   	-5.38023e+00		         0.70167	4.00000e+00	
2.48148   	-6.13713e+00		         0.70333	6.00000e+00	
2.48765   	-6.61575e+00		         0.70500	7.00000e+00	
2.49322   	-6.86480e+00		         0.70667	8.00000e+00	
2.49909   	-6.92295e+00		         0.70833	8.00000e+00	
2.50496   	-6.98475e+00		         0.71000	9.00000e+00	
2.51083   	-6.77086e+00		         0.71167	9.00000e+00	
2.51670   	-6.73140e+00		         0.71333	8.00000e+00	
2.52256   	-6.49444e+00		         0.71500	6.00000e+00	
2.52843   	-6.60551e+00		         0.71667	5.00000e+00	
2.53430   	-6.16447e+00		         0.71833	3.00000e+00	
2.54017   	-6.11550e+00		         0.72000	1.00000e+00	
2.54604   	-5.71708e+00		         0.72167	-1.00000e+00	
2.55191   	-5.62432e+00		         0.72333	-2.00000e+00	
2.55778   	-5.13940e+00		         0.72500	-4.00000e+00	
2.56365   	-4.94411e+00		         0.72667	-5.00000e+00	
2.56951   	-4.27415e+00		         0.72833	-6.00000e+00	
2.57538   	-4.36042e+00		         0.73000	-7.00000e+00	
2.58125   	-4.08768e+00		         0.73167	-8.00000e+00	
2.58726   	-3.89691e+00		         0.73333	-9.00000e+00	
2.59299   	-3.75978e+00		         0.73500	-9.00000e+00	
2.59886   	-3.66086e+00		         0.73667	-9.00000e+00	
2.60472   	-3.13715e+00		         0.73833	-9.00000e+00	
2.61059   	-2.80143e+00		         0.74000	-1.00000e+01	
2.61646   	-2.47048e+00		         0.74167	-1.00000e+01	
2.62233   	-2.19651e+00		         0.74333	-1.10000e+01	
2.62820   	-2.04480e+00		         0.74500	-1.10000e+01	
2.63407   	-1.95502e+00		         0.74667	-1.10000e+01	
2.63994   	-1.91214e+00		         0.74833	-1.10000e+01	
2.64580   	-1.91859e+00		         0.75000	-1.00000e+01	
2.65167   	-1.90583e+00		         0.75167	-9.00000e+00	
2.65754   	-1.85130e+00		         0.75333	-7.00000e+00	
2.66341   	-1.80689e+00		         0.75500	-5.00000e+00	
2.66928   	-1.83461e+00		         0.75667	-3.00000e+00	
2.67515   	-1.88472e+00		         0.75833	-2.00000e+00	
2.68102   	-1.91831e+00		         0.76000	0.00000e+00	
2.68704   	-1.93037e+00		         0.76167	1.00000e+00	
2.69275   	-1.93203e+00		         0.76333	3.00000e+00	
2.69862   	-1.80869e+00		         0.76500	3.00000e+00	
2.70449   	-1.67126e+00		         0.76667	4.00000e+00	
2.71036   	-1.47821e+00		         0.76833	3.00000e+00	
2.71623   	-1.34412e+00		         0.77000	3.00000e+00	
2.72209   	-1.21009e+00		         0.77167	2.00000e+00	
2.72796   	-1.14855e+00		         0.77333	2.00000e+00	
2.73383   	-1.12476e+00		         0.77500	1.00000e+00	
2.73970   	-1.23551e+00		         0.77667	0.00000e+00	
2.74557   	-1.43780e+00		         0.77833	0.00000e+00	
2.75144   	-1.80909e+00		         0.78000	0.00000e+00	
2.75731   	-2.35124e+00		         0.78167	-1.00000e+00	
2.76318   	-3.12984e+00		         0.78333	-1.00000e+00	
2.76904   	-4.03690e+00		         0.78500	-1.00000e+00	
2.77492   	-4.94668e+00		         0.78667	0.00000e+00	
2.78078   	-5.69391e+00		         0.78833	0.00000e+00	
2.78665   	-6.39724e+00		         0.79000	0.00000e+00	
2.79252   	-6.84721e+00		         0.79167	0.00000e+00	
2.79839   	-7.13333e+00		         0.79333	0.00000e+00	
2.80426   	-7.18074e+00		         0.79500	0.00000e+00	
2.81013   	-7.23313e+00		         0.79667	1.00000e+00	
2.81599   	-6.83214e+00		         0.79833	3.00000e+00	
2.82186   	-6.54798e+00		         0.80000	5.00000e+00	
2.82773   	-6.08799e+00		         0.80167	7.00000e+00	
2.83360   	-5.73470e+00		         0.80333	1.00000e+01	
2.83947   	-5.28598e+00		         0.80500	1.20000e+01	
2.84534   	-5.02281e+00		         0.80667	1.50000e+01	
2.85120   	-4.68250e+00		         0.80833	1.70000e+01	
2.85708   	-4.36045e+00		         0.81000	1.90000e+01	
2.86294   	-3.88521e+00		         0.81167	2.20000e+01	
2.86881   	-3.43658e+00		         0.81333	2.30000e+01	
2.87468   	-3.08626e+00		         0.81500	2.50000e+01	
2.88055   	-2.57471e+00		         0.81667	2.50000e+01	
2.88642   	-2.16470e+00		         0.81833	2.50000e+01	
2.89229   	-1.81372e+00		         0.82000	2.40000e+01	
2.89815   	-1.38262e+00		         0.82167	2.20000e+01	
2.90402   	-9.36416e-01		         0.82333	2.00000e+01	
2.90989   	-4.05395e-01		         0.82500	1.70000e+01	
2.91576   	4.03836e-01		         0.82667	1.40000e+01	
2.92163   	1.45716e+00		         0.82833	1.20000e+01	
2.92750   	1.89696e+00		         0.83000	9.00000e+00	
2.93336   	2.55960e+00		         0.83167	6.00000e+00	
			         0.83333	4.00000e+00	
			         0.83500	2.00000e+00	
			         0.83667	0.00000e+00	
			         0.83833	-1.00000e+00	
			         0.84000	-2.00000e+00	
			         0.84167	-3.00000e+00	
			         0.84333	-4.00000e+00	
			         0.84500	-4.00000e+00	
			         0.84667	-4.00000e+00	
			         0.84833	-5.00000e+00	
			         0.85000	-5.00000e+00	
			         0.85167	-5.00000e+00	
			         0.85333	-5.00000e+00	
			         0.85500	-4.00000e+00	
			         0.85667	-4.00000e+00	
			         0.85833	-3.00000e+00	
			         0.86000	-2.00000e+00	
			         0.86167	-1.00000e+00	
			         0.86333	1.00000e+00	
			         0.86500	2.00000e+00	
			         0.86667	4.00000e+00	
			         0.86833	6.00000e+00	
			         0.87000	8.00000e+00	
			         0.87167	1.00000e+01	
			         0.87333	1.20000e+01	
			         0.87500	1.30000e+01	
			         0.87667	1.30000e+01	
			         0.87833	1.30000e+01	
			         0.88000	1.30000e+01	
			         0.88167	1.10000e+01	
			         0.88333	8.00000e+00	
			         0.88500	5.00000e+00	
			         0.88667	1.00000e+00	
			         0.88833	-3.00000e+00	
			         0.89000	-7.00000e+00	
			         0.89167	-1.10000e+01	
			         0.89333	-1.50000e+01	
			         0.89500	-1.90000e+01	
			         0.89667	-2.10000e+01	
			         0.89833	-2.30000e+01	
			         0.90000	-2.40000e+01	
			         0.90167	-2.50000e+01	
			         0.90333	-2.40000e+01	
			         0.90500	-2.20000e+01	
			         0.90667	-2.00000e+01	
			         0.90833	-1.80000e+01	
			         0.91000	-1.60000e+01	
			         0.91167	-1.40000e+01	
			         0.91333	-1.30000e+01	
			         0.91500	-1.20000e+01	
			         0.91667	-1.20000e+01	
			         0.91833	-1.20000e+01	
			         0.92000	-1.30000e+01	
			         0.92167	-1.40000e+01	
			         0.92333	-1.50000e+01	
			         0.92500	-1.60000e+01	
			         0.92667	-1.70000e+01	
			         0.92833	-1.80000e+01	
			         0.93000	-1.90000e+01	
			         0.93167	-1.90000e+01	
			         0.93333	-1.80000e+01	
			         0.93500	-1.80000e+01	
			         0.93667	-1.70000e+01	
			         0.93833	-1.70000e+01	
			         0.94000	-1.70000e+01	
			         0.94167	-1.70000e+01	
			         0.94333	-1.80000e+01	
			         0.94500	-2.00000e+01	
			         0.94667	-2.20000e+01	
			         0.94833	-2.50000e+01	
			         0.95000	-2.80000e+01	
			         0.95167	-3.00000e+01	
			         0.95333	-3.20000e+01	
			         0.95500	-3.30000e+01	
			         0.95667	-3.20000e+01	
			         0.95833	-2.80000e+01	
			         0.96000	-2.20000e+01	
			         0.96167	-1.20000e+01	
			         0.96333	2.00000e+00	
			         0.96500	2.00000e+01	
			         0.96667	4.20000e+01	
			         0.96833	6.90000e+01	
			         0.97000	1.01000e+02	
			         0.97167	1.38000e+02	
			         0.97333	1.78000e+02	
			         0.97500	2.22000e+02	
			         0.97667	2.68000e+02	
			         0.97833	3.14000e+02	
			         0.98000	3.59000e+02	
			         0.98167	4.01000e+02	
			         0.98333	4.40000e+02	
			         0.98500	4.73000e+02	
			         0.98667	4.98000e+02	
			         0.98833	5.14000e+02	
			         0.99000	5.19000e+02	
			         0.99167	5.13000e+02	
			         0.99333	4.95000e+02	
			         0.99500	4.67000e+02	
			         0.99667	4.29000e+02	
			         0.99833	3.82000e+02	
			         1.00000	3.29000e+02	
			         1.00167	2.71000e+02	
			         1.00333	2.11000e+02	
			         1.00500	1.49000e+02	
			         1.00667	8.80000e+01	
			         1.00833	3.00000e+01	
			         1.01000	-2.40000e+01	
			         1.01167	-7.10000e+01	
			         1.01333	-1.12000e+02	
			         1.01500	-1.46000e+02	
			         1.01667	-1.72000e+02	
			         1.01833	-1.91000e+02	
			         1.02000	-2.03000e+02	
			         1.02167	-2.09000e+02	
			         1.02333	-2.10000e+02	
			         1.02500	-2.06000e+02	
			         1.02667	-1.99000e+02	
			         1.02833	-1.89000e+02	
			         1.03000	-1.78000e+02	
			         1.03167	-1.66000e+02	
			         1.03333	-1.54000e+02	
			         1.03500	-1.42000e+02	
			         1.03667	-1.32000e+02	
			         1.03833	-1.23000e+02	
			         1.04000	-1.16000e+02	
			         1.04167	-1.10000e+02	
			         1.04333	-1.05000e+02	
			         1.04500	-1.01000e+02	
			         1.04667	-9.80000e+01	
			         1.04833	-9.60000e+01	
			         1.05000	-9.40000e+01	
			         1.05167	-9.20000e+01	
			         1.05333	-9.10000e+01	
			         1.05500	-8.90000e+01	
			         1.05667	-8.70000e+01	
			         1.05833	-8.60000e+01	
			         1.06000	-8.40000e+01	
			         1.06167	-8.30000e+01	
			         1.06333	-8.20000e+01	
			         1.06500	-8.10000e+01	
			         1.06667	-8.00000e+01	
			         1.06833	-7.90000e+01	
			         1.07000	-7.80000e+01	
			         1.07167	-7.70000e+01	
			         1.07333	-7.60000e+01	
			         1.07500	-7.50000e+01	
			         1.07667	-7.40000e+01	
			         1.07833	-7.20000e+01	
			         1.08000	-7.10000e+01	
			         1.08167	-6.90000e+01	
			         1.08333	-6.70000e+01	
			         1.08500	-6.60000e+01	
			         1.08667	-6.50000e+01	
			         1.08833	-6.40000e+01	
			         1.09000	-6.30000e+01	
			         1.09167	-6.20000e+01	
			         1.09333	-6.10000e+01	
			         1.09500	-6.00000e+01	
			         1.09667	-5.90000e+01	
			         1.09833	-5.90000e+01	
			         1.10000	-5.80000e+01	
			         1.10167	-5.70000e+01	
			         1.10333	-5.60000e+01	
			         1.10500	-5.40000e+01	
			         1.10667	-5.20000e+01	
			         1.10833	-4.90000e+01	
			         1.11000	-4.70000e+01	
			         1.11167	-4.40000e+01	
			         1.11333	-4.10000e+01	
			         1.11500	-3.80000e+01	
			         1.11667	-3.50000e+01	
			         1.11833	-3.20000e+01	
			         1.12000	-3.00000e+01	
			         1.12167	-2.80000e+01	
			         1.12333	-2.60000e+01	
			         1.12500	-2.50000e+01	
			         1.12667	-2.40000e+01	
			         1.12833	-2.40000e+01	
			         1.13000	-2.30000e+01	
			         1.13167	-2.30000e+01	
			         1.13333	-2.30000e+01	
			         1.13500	-2.30000e+01	
			         1.13667	-2.30000e+01	
			         1.13833	-2.20000e+01	
			         1.14000	-2.20000e+01	
			         1.14167	-2.10000e+01	
			         1.14333	-2.00000e+01	
			         1.14500	-1.90000e+01	
			         1.14667	-1.90000e+01	
			         1.14833	-1.80000e+01	
			         1.15000	-1.80000e+01	
			         1.15167	-1.80000e+01	
			         1.15333	-1.80000e+01	
			         1.15500	-1.80000e+01	
			         1.15667	-1.80000e+01	
			         1.15833	-1.70000e+01	
			         1.16000	-1.70000e+01	
			         1.16167	-1.70000e+01	
			         1.16333	-1.60000e+01	
			         1.16500	-1.50000e+01	
			         1.16667	-1.50000e+01	
			         1.16833	-1.40000e+01	
			         1.17000	-1.30000e+01	
			         1.17167	-1.10000e+01	
			         1.17333	-1.00000e+01	
			         1.17500	-9.00000e+00	
			         1.17667	-8.00000e+00	
			         1.17833	-7.00000e+00	
			         1.18000	-6.00000e+00	
			         1.18167	-6.00000e+00	
			         1.18333	-6.00000e+00	
			         1.18500	-5.00000e+00	
			         1.18667	-5.00000e+00	
			         1.18833	-5.00000e+00	
			         1.19000	-5.00000e+00	
			         1.19167	-5.00000e+00	
			         1.19333	-4.00000e+00	
			         1.19500	-4.00000e+00	
			         1.19667	-4.00000e+00	
			         1.19833	-3.00000e+00	
			         1.20000	-3.00000e+00	
			         1.20167	-2.00000e+00	
			         1.20333	0.00000e+00	
			         1.20500	1.00000e+00	
			         1.20667	3.00000e+00	
			         1.20833	5.00000e+00	
			         1.21000	8.00000e+00	
			         1.21167	1.10000e+01	
			         1.21333	1.40000e+01	
			         1.21500	1.70000e+01	
			         1.21667	2.10000e+01	
			         1.21833	2.50000e+01	
			         1.22000	2.90000e+01	
			         1.22167	3.20000e+01	
			         1.22333	3.60000e+01	
			         1.22500	3.90000e+01	
			         1.22667	4.20000e+01	
			         1.22833	4.50000e+01	
			         1.23000	4.80000e+01	
			         1.23167	4.90000e+01	
			         1.23333	5.10000e+01	
			         1.23500	5.20000e+01	
			         1.23667	5.30000e+01	
			         1.23833	5.40000e+01	
			         1.24000	5.40000e+01	
			         1.24167	5.40000e+01	
			         1.24333	5.30000e+01	
			         1.24500	5.30000e+01	
			         1.24667	5.30000e+01	
			         1.24833	5.40000e+01	
			         1.25000	5.50000e+01	
			         1.25167	5.60000e+01	
			         1.25333	5.70000e+01	
			         1.25500	5.90000e+01	
			         1.25667	6.10000e+01	
			         1.25833	6.20000e+01	
			         1.26000	6.40000e+01	
			         1.26167	6.50000e+01	
			         1.26333	6.60000e+01	
			         1.26500	6.70000e+01	
			         1.26667	6.80000e+01	
			         1.26833	6.70000e+01	
			         1.27000	6.70000e+01	
			         1.27167	6.50000e+01	
			         1.27333	6.30000e+01	
			         1.27500	6.10000e+01	
			         1.27667	5.90000e+01	
			         1.27833	5.70000e+01	
			         1.28000	5.50000e+01	
			         1.28167	5.20000e+01	
			         1.28333	5.00000e+01	
			         1.28500	4.70000e+01	
			         1.28667	4.30000e+01	
			         1.28833	4.00000e+01	
			         1.29000	3.60000e+01	
			         1.29167	3.20000e+01	
			         1.29333	2.80000e+01	
			         1.29500	2.30000e+01	
			         1.29667	1.90000e+01	
			         1.29833	1.40000e+01	
			         1.30000	1.00000e+01	
			         1.30167	6.00000e+00	
			         1.30333	1.00000e+00	
			         1.30500	-3.00000e+00	
			         1.30667	-7.00000e+00	
			         1.30833	-1.10000e+01	
			         1.31000	-1.50000e+01	
			         1.31167	-1.80000e+01	
			         1.31333	-2.10000e+01	
			         1.31500	-2.40000e+01	
			         1.31667	-2.70000e+01	
			         1.31833	-3.00000e+01	
			         1.32000	-3.30000e+01	
			         1.32167	-3.50000e+01	
			         1.32333	-3.80000e+01	
			         1.32500	-4.00000e+01	
			         1.32667	-4.20000e+01	
			         1.32833	-4.40000e+01	
			         1.33000	-4.50000e+01	
			         1.33167	-4.70000e+01	
			         1.33333	-4.80000e+01	
			         1.33500	-4.90000e+01	
			         1.33667	-5.00000e+01	
			         1.33833	-5.00000e+01	
			         1.34000	-5.10000e+01	
			         1.34167	-5.10000e+01	
			         1.34333	-5.20000e+01	
			         1.34500	-5.20000e+01	
			         1.34667	-5.30000e+01	
			         1.34833	-5.30000e+01	
			         1.35000	-5.30000e+01	
			         1.35167	-5.40000e+01	
			         1.35333	-5.40000e+01	
			         1.35500	-5.40000e+01	
			         1.35667	-5.50000e+01	
			         1.35833	-5.50000e+01	
			         1.36000	-5.50000e+01	
			         1.36167	-5.50000e+01	
			         1.36333	-5.50000e+01	
			         1.36500	-5.40000e+01	
			         1.36667	-5.30000e+01	
			         1.36833	-5.20000e+01	
			         1.37000	-5.10000e+01	
			         1.37167	-5.00000e+01	
			         1.37333	-5.00000e+01	
			         1.37500	-4.90000e+01	
			         1.37667	-4.80000e+01	
			         1.37833	-4.70000e+01	
			         1.38000	-4.60000e+01	
			         1.38167	-4.50000e+01	
			         1.38333	-4.40000e+01	
			         1.38500	-4.30000e+01	
			         1.38667	-4.20000e+01	
			         1.38833	-4.00000e+01	
			         1.39000	-3.90000e+01	
			         1.39167	-3.80000e+01	
			         1.39333	-3.70000e+01	
			         1.39500	-3.50000e+01	
			         1.39667	-3.30000e+01	
			         1.39833	-3.20000e+01	
			         1.40000	-3.10000e+01	
			         1.40167	-3.00000e+01	
			         1.40333	-2.90000e+01	
			         1.40500	-2.90000e+01	
			         1.40667	-2.90000e+01	
			         1.40833	-2.90000e+01	
			         1.41000	-2.90000e+01	
			         1.41167	-2.90000e+01	
			         1.41333	-2.90000e+01	
			         1.41500	-2.90000e+01	
			         1.41667	-2.90000e+01	
			         1.41833	-2.80000e+01	
			         1.42000	-2.70000e+01	
			         1.42167	-2.60000e+01	
			         1.42333	-2.50000e+01	
			         1.42500	-2.40000e+01	
			         1.42667	-2.20000e+01	
			         1.42833	-2.10000e+01	
			         1.43000	-1.90000e+01	
			         1.43167	-1.80000e+01	
			         1.43333	-1.70000e+01	
			         1.43500	-1.70000e+01	
			         1.43667	-1.60000e+01	
			         1.43833	-1.60000e+01	
			         1.44000	-1.60000e+01	
			         1.44167	-1.50000e+01	
			         1.44333	-1.50000e+01	
			         1.44500	-1.40000e+01	
			         1.44667	-1.40000e+01	
			         1.44833	-1.50000e+01	
			         1.45000	-1.50000e+01	
			         1.45167	-1.60000e+01	
			         1.45333	-1.80000e+01	
			         1.45500	-1.90000e+01	
			         1.45667	-2.00000e+01	
			         1.45833	-2.10000e+01	
			         1.46000	-2.30000e+01	
			         1.46167	-2.40000e+01	
			         1.46333	-2.50000e+01	
			         1.46500	-2.50000e+01	
			         1.46667	-2.50000e+01	
			         1.46833	-2.40000e+01	
			         1.47000	-2.20000e+01	
			         1.47167	-2.00000e+01	
			         1.47333	-1.70000e+01	
			         1.47500	-1.50000e+01	
			         1.47667	-1.30000e+01	
			         1.47833	-1.10000e+01	
			         1.48000	-1.00000e+01	
			         1.48167	-9.00000e+00	
			         1.48333	-1.00000e+01	
			         1.48500	-1.00000e+01	
			         1.48667	-1.10000e+01	
			         1.48833	-1.20000e+01	
			         1.49000	-1.40000e+01	
			         1.49167	-1.50000e+01	
			         1.49333	-1.70000e+01	
			         1.49500	-1.80000e+01	
			         1.49667	-1.90000e+01	
			         1.49833	-2.00000e+01	
			         1.50000	-2.00000e+01	
			         1.50167	-2.00000e+01	
			         1.50333	-1.90000e+01	
			         1.50500	-1.90000e+01	
			         1.50667	-1.80000e+01	
			         1.50833	-1.60000e+01	
			         1.51000	-1.50000e+01	
			         1.51167	-1.20000e+01	
			         1.51333	-1.00000e+01	
			         1.51500	-8.00000e+00	
			         1.51667	-5.00000e+00	
			         1.51833	-2.00000e+00	
			         1.52000	0.00000e+00	
			         1.52167	2.00000e+00	
			         1.52333	4.00000e+00	
			         1.52500	6.00000e+00	
			         1.52667	6.00000e+00	
			         1.52833	7.00000e+00	
			         1.53000	7.00000e+00	
			         1.53167	6.00000e+00	
			         1.53333	6.00000e+00	
			         1.53500	5.00000e+00	
			         1.53667	4.00000e+00	
			         1.53833	2.00000e+00	
			         1.54000	1.00000e+00	
			         1.54167	0.00000e+00	
			         1.54333	-1.00000e+00	
			         1.54500	-1.00000e+00	
			         1.54667	-2.00000e+00	
			         1.54833	-2.00000e+00	
			         1.55000	-3.00000e+00	
			         1.55167	-3.00000e+00	
			         1.55333	-4.00000e+00	
			         1.55500	-4.00000e+00	
			         1.55667	-4.00000e+00	
			         1.55833	-4.00000e+00	
			         1.56000	-4.00000e+00	
			         1.56167	-4.00000e+00	
			         1.56333	-3.00000e+00	
			         1.56500	-2.00000e+00	
			         1.56667	-2.00000e+00	
			         1.56833	-1.00000e+00	
			         1.57000	-1.00000e+00	
			         1.57167	0.00000e+00	
			         1.57333	0.00000e+00	
			         1.57500	0.00000e+00	
			         1.57667	0.00000e+00	
			         1.57833	0.00000e+00	
			         1.58000	-1.00000e+00	
			         1.58167	-1.00000e+00	
			         1.58333	-2.00000e+00	
			         1.58500	-3.00000e+00	
			         1.58667	-4.00000e+00	
			         1.58833	-4.00000e+00	
			         1.59000	-5.00000e+00	
			         1.59167	-5.00000e+00	
			         1.59333	-6.00000e+00	
			         1.59500	-6.00000e+00	
			         1.59667	-6.00000e+00	
			         1.59833	-5.00000e+00	
			         1.60000	-4.00000e+00	
			         1.60167	-3.00000e+00	
			         1.60333	-2.00000e+00	
			         1.60500	-1.00000e+00	
			         1.60667	0.00000e+00	
			         1.60833	2.00000e+00	
			         1.61000	3.00000e+00	
			         1.61167	4.00000e+00	
			         1.61333	5.00000e+00	
			         1.61500	5.00000e+00	
			         1.61667	6.00000e+00	
			         1.61833	6.00000e+00	
			         1.62000	6.00000e+00	
			         1.62167	5.00000e+00	
			         1.62333	4.00000e+00	
			         1.62500	2.00000e+00	
			         1.62667	1.00000e+00	
			         1.62833	-1.00000e+00	
			         1.63000	-3.00000e+00	
			         1.63167	-5.00000e+00	
			         1.63333	-7.00000e+00	
			         1.63500	-9.00000e+00	
			         1.63667	-1.20000e+01	
			         1.63833	-1.40000e+01	
			         1.64000	-1.60000e+01	
			         1.64167	-1.80000e+01	
			         1.64333	-1.90000e+01	
			         1.64500	-1.90000e+01	
			         1.64667	-1.90000e+01	
			         1.64833	-1.70000e+01	
			         1.65000	-1.50000e+01	
			         1.65167	-1.30000e+01	
			         1.65333	-1.00000e+01	
			         1.65500	-7.00000e+00	
			         1.65667	-3.00000e+00	
			         1.65833	0.00000e+00	
			         1.66000	4.00000e+00	
			         1.66167	7.00000e+00	
			         1.66333	1.00000e+01	
			         1.66500	1.10000e+01	
			         1.66667	1.20000e+01	
			         1.66833	1.20000e+01	
			         1.67000	1.10000e+01	
			         1.67167	1.00000e+01	
			         1.67333	9.00000e+00	
			         1.67500	9.00000e+00	
			         1.67667	8.00000e+00	
			         1.67833	7.00000e+00	
			         1.68000	6.00000e+00	
			         1.68167	5.00000e+00	
			         1.68333	4.00000e+00	
			         1.68500	3.00000e+00	
			         1.68667	3.00000e+00	
			         1.68833	3.00000e+00	
			         1.69000	3.00000e+00	
			         1.69167	3.00000e+00	
			         1.69333	3.00000e+00	
			         1.69500	3.00000e+00	
			         1.69667	2.00000e+00	
			         1.69833	0.00000e+00	
			         1.70000	-1.00000e+00	
			         1.70167	-2.00000e+00	
			         1.70333	-4.00000e+00	
			         1.70500	-5.00000e+00	
			         1.70667	-7.00000e+00	
			         1.70833	-8.00000e+00	
			         1.71000	-9.00000e+00	
			         1.71167	-1.00000e+01	
			         1.71333	-1.00000e+01	
			         1.71500	-1.00000e+01	
			         1.71667	-1.00000e+01	
			         1.71833	-9.00000e+00	
			         1.72000	-8.00000e+00	
			         1.72167	-7.00000e+00	
			         1.72333	-5.00000e+00	
			         1.72500	-3.00000e+00	
			         1.72667	-2.00000e+00	
			         1.72833	0.00000e+00	
			         1.73000	0.00000e+00	
			         1.73167	1.00000e+00	
			         1.73333	1.00000e+00	
			         1.73500	1.00000e+00	
			         1.73667	0.00000e+00	
			         1.73833	0.00000e+00	
			         1.74000	-1.00000e+00	
			         1.74167	-2.00000e+00	
			         1.74333	-2.00000e+00	
			         1.74500	-3.00000e+00	
			         1.74667	-4.00000e+00	
			         1.74833	-4.00000e+00	
			         1.75000	-4.00000e+00	
			         1.75167	-4.00000e+00	
			         1.75333	-4.00000e+00	
			         1.75500	-3.00000e+00	
			         1.75667	-2.00000e+00	
			         1.75833	0.00000e+00	
			         1.76000	1.00000e+00	
			         1.76167	3.00000e+00	
			         1.76333	4.00000e+00	
			         1.76500	6.00000e+00	
			         1.76667	7.00000e+00	
			         1.76833	9.00000e+00	
			         1.77000	1.00000e+01	
			         1.77167	1.10000e+01	
			         1.77333	1.20000e+01	
			         1.77500	1.30000e+01	
			         1.77667	1.40000e+01	
			         1.77833	1.50000e+01	
			         1.78000	1.50000e+01	
			         1.78167	1.50000e+01	
			         1.78333	1.50000e+01	
			         1.78500	1.60000e+01	
			         1.78667	1.60000e+01	
			         1.78833	1.60000e+01	
			         1.79000	1.60000e+01	
			         1.79167	1.60000e+01	
			         1.79333	1.60000e+01	
			         1.79500	1.50000e+01	
			         1.79667	1.50000e+01	
			         1.79833	1.40000e+01	
			         1.80000	1.30000e+01	
			         1.80167	1.20000e+01	
			         1.80333	1.10000e+01	
			         1.80500	1.10000e+01	
			         1.80667	1.00000e+01	
			         1.80833	8.00000e+00	
			         1.81000	7.00000e+00	
			         1.81167	6.00000e+00	
			         1.81333	4.00000e+00	
			         1.81500	2.00000e+00	
			         1.81667	1.00000e+00	
			         1.81833	-1.00000e+00	
			         1.82000	-3.00000e+00	
			         1.82167	-5.00000e+00	
			         1.82333	-6.00000e+00	
			         1.82500	-7.00000e+00	
			         1.82667	-8.00000e+00	
			         1.82833	-9.00000e+00	
			         1.83000	-9.00000e+00	
			         1.83167	-9.00000e+00	
			         1.83333	-9.00000e+00	
			         1.83500	-9.00000e+00	
			         1.83667	-9.00000e+00	
			         1.83833	-8.00000e+00	
			         1.84000	-7.00000e+00	
			         1.84167	-6.00000e+00	
			         1.84333	-4.00000e+00	
			         1.84500	-2.00000e+00	
			         1.84667	0.00000e+00	
			         1.84833	2.00000e+00	
			         1.85000	4.00000e+00	
			         1.85167	7.00000e+00	
			         1.85333	1.00000e+01	
			         1.85500	1.20000e+01	
			         1.85667	1.50000e+01	
			         1.85833	1.70000e+01	
			         1.86000	1.90000e+01	
			         1.86167	2.10000e+01	
			         1.86333	2.10000e+01	
			         1.86500	2.10000e+01	
			         1.86667	1.90000e+01	
			         1.86833	1.70000e+01	
			         1.87000	1.40000e+01	
			         1.87167	1.00000e+01	
			         1.87333	6.00000e+00	
			         1.87500	3.00000e+00	
			         1.87667	-1.00000e+00	
			         1.87833	-4.00000e+00	
			         1.88000	-7.00000e+00	
			         1.88167	-1.00000e+01	
			         1.88333	-1.20000e+01	
			         1.88500	-1.40000e+01	
			         1.88667	-1.60000e+01	
			         1.88833	-1.80000e+01	
			         1.89000	-1.90000e+01	
			         1.89167	-2.00000e+01	
			         1.89333	-2.10000e+01	
			         1.89500	-2.20000e+01	
			         1.89667	-2.30000e+01	
			         1.89833	-2.30000e+01	
			         1.90000	-2.30000e+01	
			         1.90167	-2.30000e+01	
			         1.90333	-2.20000e+01	
			         1.90500	-2.10000e+01	
			         1.90667	-2.00000e+01	
			         1.90833	-1.80000e+01	
			         1.91000	-1.50000e+01	
			         1.91167	-1.30000e+01	
			         1.91333	-1.10000e+01	
			         1.91500	-9.00000e+00	
			         1.91667	-9.00000e+00	
			         1.91833	-9.00000e+00	
			         1.92000	-1.00000e+01	
			         1.92167	-1.20000e+01	
			         1.92333	-1.40000e+01	
			         1.92500	-1.80000e+01	
			         1.92667	-2.20000e+01	
			         1.92833	-2.70000e+01	
			         1.93000	-3.10000e+01	
			         1.93167	-3.50000e+01	
			         1.93333	-3.70000e+01	
			         1.93500	-3.80000e+01	
			         1.93667	-3.60000e+01	
			         1.93833	-3.10000e+01	
			         1.94000	-2.20000e+01	
			         1.94167	-9.00000e+00	
			         1.94333	8.00000e+00	
			         1.94500	3.00000e+01	
			         1.94667	5.80000e+01	
			         1.94833	9.10000e+01	
			         1.95000	1.28000e+02	
			         1.95167	1.71000e+02	
			         1.95333	2.16000e+02	
			         1.95500	2.63000e+02	
			         1.95667	3.11000e+02	
			         1.95833	3.59000e+02	
			         1.96000	4.04000e+02	
			         1.96167	4.46000e+02	
			         1.96333	4.82000e+02	
			         1.96500	5.10000e+02	
			         1.96667	5.30000e+02	
			         1.96833	5.40000e+02	
			         1.97000	5.39000e+02	
			         1.97167	5.26000e+02	
			         1.97333	5.01000e+02	
			         1.97500	4.66000e+02	
			         1.97667	4.21000e+02	
			         1.97833	3.69000e+02	
			         1.98000	3.10000e+02	
			         1.98167	2.48000e+02	
			         1.98333	1.85000e+02	
			         1.98500	1.21000e+02	
			         1.98667	6.00000e+01	
			         1.98833	4.00000e+00	
			         1.99000	-4.70000e+01	
			         1.99167	-9.10000e+01	
			         1.99333	-1.28000e+02	
			         1.99500	-1.57000e+02	
			         1.99667	-1.78000e+02	
			         1.99833	-1.92000e+02	
			         2.00000	-2.00000e+02	
			         2.00167	-2.03000e+02	
			         2.00333	-2.02000e+02	
			         2.00500	-1.98000e+02	
			         2.00667	-1.92000e+02	
			         2.00833	-1.85000e+02	
			         2.01000	-1.77000e+02	
			         2.01167	-1.69000e+02	
			         2.01333	-1.61000e+02	
			         2.01500	-1.54000e+02	
			         2.01667	-1.48000e+02	
			         2.01833	-1.42000e+02	
			         2.02000	-1.37000e+02	
			         2.02167	-1.32000e+02	
			         2.02333	-1.28000e+02	
			         2.02500	-1.23000e+02	
			         2.02667	-1.19000e+02	
			         2.02833	-1.14000e+02	
			         2.03000	-1.10000e+02	
			         2.03167	-1.05000e+02	
			         2.03333	-1.00000e+02	
			         2.03500	-9.50000e+01	
			         2.03667	-9.10000e+01	
			         2.03833	-8.70000e+01	
			         2.04000	-8.30000e+01	
			         2.04167	-8.00000e+01	
			         2.04333	-7.70000e+01	
			         2.04500	-7.50000e+01	
			         2.04667	-7.30000e+01	
			         2.04833	-7.20000e+01	
			         2.05000	-7.10000e+01	
			         2.05167	-7.00000e+01	
			         2.05333	-7.00000e+01	
			         2.05500	-6.90000e+01	
			         2.05667	-6.90000e+01	
			         2.05833	-6.80000e+01	
			         2.06000	-6.70000e+01	
			         2.06167	-6.70000e+01	
			         2.06333	-6.60000e+01	
			         2.06500	-6.40000e+01	
			         2.06667	-6.30000e+01	
			         2.06833	-6.20000e+01	
			         2.07000	-6.00000e+01	
			         2.07167	-5.90000e+01	
			         2.07333	-5.70000e+01	
			         2.07500	-5.60000e+01	
			         2.07667	-5.40000e+01	
			         2.07833	-5.30000e+01	
			         2.08000	-5.20000e+01	
			         2.08167	-5.10000e+01	
			         2.08333	-5.10000e+01	
			         2.08500	-5.00000e+01	
			         2.08667	-5.00000e+01	
			         2.08833	-4.90000e+01	
			         2.09000	-4.80000e+01	
			         2.09167	-4.70000e+01	
			         2.09333	-4.60000e+01	
			         2.09500	-4.50000e+01	
			         2.09667	-4.40000e+01	
			         2.09833	-4.30000e+01	
			         2.10000	-4.20000e+01	
			         2.10167	-4.00000e+01	
			         2.10333	-3.90000e+01	
			         2.10500	-3.80000e+01	
			         2.10667	-3.70000e+01	
			         2.10833	-3.60000e+01	
			         2.11000	-3.40000e+01	
			         2.11167	-3.30000e+01	
			         2.11333	-3.20000e+01	
			         2.11500	-3.10000e+01	
			         2.11667	-2.90000e+01	
			         2.11833	-2.70000e+01	
			         2.12000	-2.50000e+01	
			         2.12167	-2.30000e+01	
			         2.12333	-2.10000e+01	
			         2.12500	-1.90000e+01	
			         2.12667	-1.70000e+01	
			         2.12833	-1.50000e+01	
			         2.13000	-1.40000e+01	
			         2.13167	-1.20000e+01	
			         2.13333	-1.20000e+01	
			         2.13500	-1.10000e+01	
			         2.13667	-1.00000e+01	
			         2.13833	-1.00000e+01	
			         2.14000	-1.00000e+01	
			         2.14167	-9.00000e+00	
			         2.14333	-9.00000e+00	
			         2.14500	-8.00000e+00	
			         2.14667	-8.00000e+00	
			         2.14833	-8.00000e+00	
			         2.15000	-9.00000e+00	
			         2.15167	-9.00000e+00	
			         2.15333	-9.00000e+00	
			         2.15500	-9.00000e+00	
			         2.15667	-8.00000e+00	
			         2.15833	-8.00000e+00	
			         2.16000	-7.00000e+00	
			         2.16167	-7.00000e+00	
			         2.16333	-6.00000e+00	
			         2.16500	-5.00000e+00	
			         2.16667	-4.00000e+00	
			         2.16833	-2.00000e+00	
			         2.17000	0.00000e+00	
			         2.17167	2.00000e+00	
			         2.17333	4.00000e+00	
			         2.17500	6.00000e+00	
			         2.17667	8.00000e+00	
			         2.17833	1.00000e+01	
			         2.18000	1.20000e+01	
			         2.18167	1.40000e+01	
			         2.18333	1.60000e+01	
			         2.18500	1.80000e+01	
			         2.18667	2.00000e+01	
			         2.18833	2.20000e+01	
			         2.19000	2.30000e+01	
			         2.19167	2.40000e+01	
			         2.19333	2.40000e+01	
			         2.19500	2.50000e+01	
			         2.19667	2.50000e+01	
			         2.19833	2.40000e+01	
			         2.20000	2.40000e+01	
			         2.20167	2.40000e+01	
			         2.20333	2.30000e+01	
			         2.20500	2.40000e+01	
			         2.20667	2.40000e+01	
			         2.20833	2.50000e+01	
			         2.21000	2.70000e+01	
			         2.21167	2.90000e+01	
			         2.21333	3.20000e+01	
			         2.21500	3.50000e+01	
			         2.21667	3.90000e+01	
			         2.21833	4.20000e+01	
			         2.22000	4.60000e+01	
			         2.22167	5.00000e+01	
			         2.22333	5.40000e+01	
			         2.22500	5.70000e+01	
			         2.22667	6.00000e+01	
			         2.22833	6.20000e+01	
			         2.23000	6.50000e+01	
			         2.23167	6.70000e+01	
			         2.23333	6.90000e+01	
			         2.23500	7.00000e+01	
			         2.23667	7.10000e+01	
			         2.23833	7.20000e+01	
			         2.24000	7.20000e+01	
			         2.24167	7.10000e+01	
			         2.24333	7.00000e+01	
			         2.24500	6.80000e+01	
			         2.24667	6.70000e+01	
			         2.24833	6.50000e+01	
			         2.25000	6.30000e+01	
			         2.25167	6.00000e+01	
			         2.25333	5.80000e+01	
			         2.25500	5.60000e+01	
			         2.25667	5.30000e+01	
			         2.25833	5.10000e+01	
			         2.26000	4.90000e+01	
			         2.26167	4.70000e+01	
			         2.26333	4.60000e+01	
			         2.26500	4.40000e+01	
			         2.26667	4.20000e+01	
			         2.26833	4.00000e+01	
			         2.27000	3.70000e+01	
			         2.27167	3.50000e+01	
			         2.27333	3.10000e+01	
			         2.27500	2.80000e+01	
			         2.27667	2.30000e+01	
			         2.27833	1.80000e+01	
			         2.28000	1.30000e+01	
			         2.28167	7.00000e+00	
			         2.28333	2.00000e+00	
			         2.28500	-4.00000e+00	
			         2.28667	-1.00000e+01	
			         2.28833	-1.50000e+01	
			         2.29000	-2.00000e+01	
			         2.29167	-2.50000e+01	
			         2.29333	-3.00000e+01	
			         2.29500	-3.30000e+01	
			         2.29667	-3.60000e+01	
			         2.29833	-3.80000e+01	
			         2.30000	-3.90000e+01	
			         2.30167	-4.00000e+01	
			         2.30333	-4.00000e+01	
			         2.30500	-4.10000e+01	
			         2.30667	-4.10000e+01	
			         2.30833	-4.20000e+01	
			         2.31000	-4.20000e+01	
			         2.31167	-4.30000e+01	
			         2.31333	-4.40000e+01	
			         2.31500	-4.60000e+01	
			         2.31667	-4.70000e+01	
			         2.31833	-4.80000e+01	
			         2.32000	-4.90000e+01	
			         2.32167	-5.00000e+01	
			         2.32333	-5.10000e+01	
			         2.32500	-5.10000e+01	
			         2.32667	-5.10000e+01	
			         2.32833	-5.10000e+01	
			         2.33000	-5.10000e+01	
			         2.33167	-5.10000e+01	
			         2.33333	-5.10000e+01	
			         2.33500	-5.00000e+01	
			         2.33667	-5.00000e+01	
			         2.33833	-4.90000e+01	
			         2.34000	-4.90000e+01	
			         2.34167	-4.90000e+01	
			         2.34333	-5.00000e+01	
			         2.34500	-5.00000e+01	
			         2.34667	-5.10000e+01	
			         2.34833	-5.10000e+01	
			         2.35000	-5.10000e+01	
			         2.35167	-5.10000e+01	
			         2.35333	-5.00000e+01	
			         2.35500	-5.00000e+01	
			         2.35667	-4.90000e+01	
			         2.35833	-4.80000e+01	
			         2.36000	-4.60000e+01	
			         2.36167	-4.50000e+01	
			         2.36333	-4.40000e+01	
			         2.36500	-4.20000e+01	
			         2.36667	-4.20000e+01	
			         2.36833	-4.10000e+01	
			         2.37000	-4.10000e+01	
			         2.37167	-4.00000e+01	
			         2.37333	-4.00000e+01	
			         2.37500	-4.00000e+01	
			         2.37667	-4.00000e+01	
			         2.37833	-3.90000e+01	
			         2.38000	-3.80000e+01	
			         2.38167	-3.80000e+01	
			         2.38333	-3.60000e+01	
			         2.38500	-3.50000e+01	
			         2.38667	-3.30000e+01	
			         2.38833	-3.10000e+01	
			         2.39000	-2.90000e+01	
			         2.39167	-2.70000e+01	
			         2.39333	-2.50000e+01	
			         2.39500	-2.40000e+01	
			         2.39667	-2.20000e+01	
			         2.39833	-2.10000e+01	
			         2.40000	-2.00000e+01	
			         2.40167	-2.00000e+01	
			         2.40333	-1.90000e+01	
			         2.40500	-1.90000e+01	
			         2.40667	-1.90000e+01	
			         2.40833	-2.00000e+01	
			         2.41000	-2.00000e+01	
			         2.41167	-2.10000e+01	
			         2.41333	-2.10000e+01	
			         2.41500	-2.20000e+01	
			         2.41667	-2.30000e+01	
			         2.41833	-2.40000e+01	
			         2.42000	-2.40000e+01	
			         2.42167	-2.40000e+01	
			         2.42333	-2.40000e+01	
			         2.42500	-2.40000e+01	
			         2.42667	-2.40000e+01	
			         2.42833	-2.30000e+01	
			         2.43000	-2.20000e+01	
			         2.43167	-2.10000e+01	
			         2.43333	-2.00000e+01	
			         2.43500	-1.80000e+01	
			         2.43667	-1.60000e+01	
			         2.43833	-1.40000e+01	
			         2.44000	-1.30000e+01	
			         2.44167	-1.30000e+01	
			         2.44333	-1.30000e+01	
			         2.44500	-1.30000e+01	
			         2.44667	-1.30000e+01	
			         2.44833	-1.40000e+01	
			         2.45000	-1.40000e+01	
			         2.45167	-1.60000e+01	
			         2.45333	-1.70000e+01	
			         2.45500	-1.90000e+01	
			         2.45667	-2.10000e+01	
			         2.45833	-2.20000e+01	
			         2.46000	-2.30000e+01	
			         2.46167	-2.40000e+01	
			         2.46333	-2.30000e+01	
			         2.46500	-2.30000e+01	
			         2.46667	-2.30000e+01	
			         2.46833	-2.20000e+01	
			         2.47000	-2.00000e+01	
			         2.47167	-1.90000e+01	
			         2.47333	-1.70000e+01	
			         2.47500	-1.50000e+01	
			         2.47667	-1.30000e+01	
			         2.47833	-1.00000e+01	
			         2.48000	-7.00000e+00	
			         2.48167	-4.00000e+00	
			         2.48333	-1.00000e+00	
			         2.48500	2.00000e+00	
			         2.48667	4.00000e+00	
			         2.48833	6.00000e+00	
			         2.49000	8.00000e+00	
			         2.49167	9.00000e+00	
			         2.49333	1.10000e+01	
			         2.49500	1.10000e+01	
			         2.49667	1.10000e+01	
			         2.49833	1.10000e+01	
			         2.50000	1.00000e+01	
			         2.50167	8.00000e+00	
			         2.50333	7.00000e+00	
			         2.50500	5.00000e+00	
			         2.50667	3.00000e+00	
			         2.50833	1.00000e+00	
			         2.51000	0.00000e+00	
			         2.51167	-1.00000e+00	
			         2.51333	-2.00000e+00	
			         2.51500	-3.00000e+00	
			         2.51667	-4.00000e+00	
			         2.51833	-4.00000e+00	
			         2.52000	-4.00000e+00	
			         2.52167	-3.00000e+00	
			         2.52333	-3.00000e+00	
			         2.52500	-2.00000e+00	
			         2.52667	-1.00000e+00	
			         2.52833	-1.00000e+00	
			         2.53000	0.00000e+00	
			         2.53167	1.00000e+00	
			         2.53333	1.00000e+00	
			         2.53500	2.00000e+00	
			         2.53667	3.00000e+00	
			         2.53833	4.00000e+00	
			         2.54000	5.00000e+00	
			         2.54167	6.00000e+00	
			         2.54333	7.00000e+00	
			         2.54500	8.00000e+00	
			         2.54667	9.00000e+00	
			         2.54833	9.00000e+00	
			         2.55000	9.00000e+00	
			         2.55167	9.00000e+00	
			         2.55333	8.00000e+00	
			         2.55500	7.00000e+00	
			         2.55667	5.00000e+00	
			         2.55833	2.00000e+00	
			         2.56000	-1.00000e+00	
			         2.56167	-4.00000e+00	
			         2.56333	-7.00000e+00	
			         2.56500	-1.00000e+01	
			         2.56667	-1.20000e+01	
			         2.56833	-1.30000e+01	
			         2.57000	-1.40000e+01	
			         2.57167	-1.40000e+01	
			         2.57333	-1.30000e+01	
			         2.57500	-1.20000e+01	
			         2.57667	-1.00000e+01	
			         2.57833	-8.00000e+00	
			         2.58000	-6.00000e+00	
			         2.58167	-3.00000e+00	
			         2.58333	-1.00000e+00	
			         2.58500	1.00000e+00	
			         2.58667	3.00000e+00	
			         2.58833	4.00000e+00	
			         2.59000	4.00000e+00	
			         2.59167	4.00000e+00	
			         2.59333	3.00000e+00	
			         2.59500	2.00000e+00	
			         2.59667	1.00000e+00	
			         2.59833	0.00000e+00	
			         2.60000	-1.00000e+00	
			         2.60167	-2.00000e+00	
			         2.60333	-3.00000e+00	
			         2.60500	-5.00000e+00	
			         2.60667	-6.00000e+00	
			         2.60833	-7.00000e+00	
			         2.61000	-8.00000e+00	
			         2.61167	-8.00000e+00	
			         2.61333	-8.00000e+00	
			         2.61500	-8.00000e+00	
			         2.61667	-7.00000e+00	
			         2.61833	-7.00000e+00	
			         2.62000	-6.00000e+00	
			         2.62167	-6.00000e+00	
			         2.62333	-5.00000e+00	
			         2.62500	-5.00000e+00	
			         2.62667	-5.00000e+00	
			         2.62833	-4.00000e+00	
			         2.63000	-3.00000e+00	
			         2.63167	-3.00000e+00	
			         2.63333	-2.00000e+00	
			         2.63500	-1.00000e+00	
			         2.63667	0.00000e+00	
			         2.63833	1.00000e+00	
			         2.64000	2.00000e+00	
			         2.64167	3.00000e+00	
			         2.64333	4.00000e+00	
			         2.64500	5.00000e+00	
			         2.64667	5.00000e+00	
			         2.64833	5.00000e+00	
			         2.65000	5.00000e+00	
			         2.65167	4.00000e+00	
			         2.65333	2.00000e+00	
			         2.65500	0.00000e+00	
			         2.65667	-2.00000e+00	
			         2.65833	-4.00000e+00	
			         2.66000	-5.00000e+00	
			         2.66167	-6.00000e+00	
			         2.66333	-7.00000e+00	
			         2.66500	-8.00000e+00	
			         2.66667	-8.00000e+00	
			         2.66833	-7.00000e+00	
			         2.67000	-6.00000e+00	
			         2.67167	-5.00000e+00	
			         2.67333	-4.00000e+00	
			         2.67500	-2.00000e+00	
			         2.67667	0.00000e+00	
			         2.67833	1.00000e+00	
			         2.68000	2.00000e+00	
			         2.68167	2.00000e+00	
			         2.68333	2.00000e+00	
			         2.68500	2.00000e+00	
			         2.68667	2.00000e+00	
			         2.68833	2.00000e+00	
			         2.69000	2.00000e+00	
			         2.69167	2.00000e+00	
			         2.69333	2.00000e+00	
			         2.69500	2.00000e+00	
			         2.69667	3.00000e+00	
			         2.69833	3.00000e+00	
			         2.70000	4.00000e+00	
			         2.70167	5.00000e+00	
			         2.70333	6.00000e+00	
			         2.70500	7.00000e+00	
			         2.70667	9.00000e+00	
			         2.70833	1.10000e+01	
			         2.71000	1.30000e+01	
			         2.71167	1.40000e+01	
			         2.71333	1.50000e+01	
			         2.71500	1.60000e+01	
			         2.71667	1.70000e+01	
			         2.71833	1.70000e+01	
			         2.72000	1.70000e+01	
			         2.72167	1.60000e+01	
			         2.72333	1.50000e+01	
			         2.72500	1.40000e+01	
			         2.72667	1.20000e+01	
			         2.72833	1.10000e+01	
			         2.73000	9.00000e+00	
			         2.73167	8.00000e+00	
			         2.73333	7.00000e+00	
			         2.73500	7.00000e+00	
			         2.73667	8.00000e+00	
			         2.73833	9.00000e+00	
			         2.74000	1.00000e+01	
			         2.74167	1.20000e+01	
			         2.74333	1.40000e+01	
			         2.74500	1.60000e+01	
			         2.74667	1.80000e+01	
			         2.74833	2.00000e+01	
			         2.75000	2.10000e+01	
			         2.75167	2.10000e+01	
			         2.75333	2.20000e+01	
			         2.75500	2.10000e+01	
			         2.75667	2.00000e+01	
			         2.75833	1.80000e+01	
			         2.76000	1.60000e+01	
			         2.76167	1.30000e+01	
			         2.76333	9.00000e+00	
			         2.76500	6.00000e+00	
			         2.76667	3.00000e+00	
			         2.76833	0.00000e+00	
			         2.77000	-3.00000e+00	
			         2.77167	-5.00000e+00	
			         2.77333	-8.00000e+00	
			         2.77500	-9.00000e+00	
			         2.77667	-1.10000e+01	
			         2.77833	-1.20000e+01	
			         2.78000	-1.20000e+01	
			         2.78167	-1.10000e+01	
			         2.78333	-1.00000e+01	
			         2.78500	-9.00000e+00	
			         2.78667	-7.00000e+00	
			         2.78833	-5.00000e+00	
			         2.79000	-3.00000e+00	
			         2.79167	-1.00000e+00	
			         2.79333	1.00000e+00	
			         2.79500	3.00000e+00	
			         2.79667	4.00000e+00	
			         2.79833	6.00000e+00	
			         2.80000	7.00000e+00	
			         2.80167	8.00000e+00	
			         2.80333	8.00000e+00	
			         2.80500	9.00000e+00	
			         2.80667	8.00000e+00	
			         2.80833	8.00000e+00	
			         2.81000	7.00000e+00	
			         2.81167	5.00000e+00	
			         2.81333	3.00000e+00	
			         2.81500	1.00000e+00	
			         2.81667	-1.00000e+00	
			         2.81833	-4.00000e+00	
			         2.82000	-6.00000e+00	
			         2.82167	-8.00000e+00	
			         2.82333	-1.10000e+01	
			         2.82500	-1.30000e+01	
			         2.82667	-1.50000e+01	
			         2.82833	-1.60000e+01	
			         2.83000	-1.80000e+01	
			         2.83167	-1.80000e+01	
			         2.83333	-1.90000e+01	
			         2.83500	-1.90000e+01	
			         2.83667	-1.90000e+01	
			         2.83833	-1.90000e+01	
			         2.84000	-1.90000e+01	
			         2.84167	-1.90000e+01	
			         2.84333	-1.90000e+01	
			         2.84500	-1.90000e+01	
			         2.84667	-1.90000e+01	
			         2.84833	-1.90000e+01	
			         2.85000	-2.00000e+01	
			         2.85167	-2.00000e+01	
			         2.85333	-2.10000e+01	
			         2.85500	-2.10000e+01	
			         2.85667	-2.10000e+01	
			         2.85833	-2.10000e+01	
			         2.86000	-2.00000e+01	
			         2.86167	-1.80000e+01	
			         2.86333	-1.70000e+01	
			         2.86500	-1.50000e+01	
			         2.86667	-1.40000e+01	
			         2.86833	-1.20000e+01	
			         2.87000	-1.20000e+01	
			         2.87167	-1.10000e+01	
			         2.87333	-1.20000e+01	
			         2.87500	-1.30000e+01	
			         2.87667	-1.50000e+01	
			         2.87833	-1.70000e+01	
			         2.88000	-1.90000e+01	
			         2.88167	-2.10000e+01	
			         2.88333	-2.20000e+01	
			         2.88500	-2.10000e+01	
			         2.88667	-1.70000e+01	
			         2.88833	-1.00000e+01	
			         2.89000	1.00000e+00	
			         2.89167	1.70000e+01	
			         2.89333	3.80000e+01	
			         2.89500	6.40000e+01	
			         2.89667	9.60000e+01	
			         2.89833	1.32000e+02	
			         2.90000	1.74000e+02	
			         2.90167	2.19000e+02	
			         2.90333	2.67000e+02	
			         2.90500	3.16000e+02	
			         2.90667	3.65000e+02	
			         2.90833	4.10000e+02	
			         2.91000	4.51000e+02	
			         2.91167	4.86000e+02	
			         2.91333	5.13000e+02	
			         2.91500	5.31000e+02	
			         2.91667	5.38000e+02	
			         2.91833	5.33000e+02	
			         2.92000	5.17000e+02	
			         2.92167	4.90000e+02	
			         2.92333	4.52000e+02	
			         2.92500	4.05000e+02	
			         2.92667	3.50000e+02	
			         2.92833	2.90000e+02	
			         2.93000	2.26000e+02	
			         2.93167	1.61000e+02	
			         2.93333	9.70000e+01	
			         2.93500	3.50000e+01	
			         2.93667	-2.30000e+01	
			         2.93833	-7.40000e+01	
			         2.94000	-1.18000e+02	
			         2.94167	-1.55000e+02	
			         2.94333	-1.82000e+02	
			         2.94500	-2.02000e+02	
			         2.94667	-2.14000e+02	
			         2.94833	-2.19000e+02	
			         2.95000	-2.19000e+02	
			         2.95167	-2.14000e+02	
			         2.95333	-2.05000e+02	
			         2.95500	-1.93000e+02	
			         2.95667	-1.79000e+02	
			         2.95833	-1.66000e+02	
