Velocity (TVI), in cm/s

Time (s) :	Trace 1 : 		Ecg : 		
0.01909   	1.51180e+00		         0.00000	1.10000e+01	
0.02577   	1.69320e+00		         0.00167	1.00000e+01	
0.03308   	1.87054e+00		         0.00333	9.00000e+00	
0.03939   	2.25689e+00		         0.00500	8.00000e+00	
0.04607   	2.59357e+00		         0.00667	7.00000e+00	
0.05274   	2.40759e+00		         0.00833	7.00000e+00	
0.05969   	2.04010e+00		         0.01000	7.00000e+00	
0.06636   	1.67737e+00		         0.01167	9.00000e+00	
0.07305   	1.19130e+00		         0.01333	1.30000e+01	
0.07972   	7.06077e-01		         0.01500	1.90000e+01	
0.08667   	8.67280e-01		         0.01667	2.80000e+01	
0.09334   	1.24349e+00		         0.01833	4.10000e+01	
0.10002   	1.73505e+00		         0.02000	5.70000e+01	
0.10670   	2.45689e+00		         0.02167	7.60000e+01	
0.11365   	3.30298e+00		         0.02333	9.90000e+01	
0.12033   	4.00154e+00		         0.02500	1.23000e+02	
0.12700   	4.66729e+00		         0.02667	1.49000e+02	
0.13368   	5.15099e+00		         0.02833	1.75000e+02	
0.14063   	5.46726e+00		         0.03000	2.00000e+02	
0.14730   	5.62098e+00		         0.03167	2.25000e+02	
0.15398   	5.71452e+00		         0.03333	2.47000e+02	
0.16066   	5.74510e+00		         0.03500	2.67000e+02	
0.16760   	5.74344e+00		         0.03667	2.82000e+02	
0.17428   	5.69688e+00		         0.03833	2.93000e+02	
0.18096   	5.65643e+00		         0.04000	2.99000e+02	
0.18764   	5.58907e+00		         0.04167	3.01000e+02	
0.19458   	5.50650e+00		         0.04333	2.97000e+02	
0.20126   	5.40988e+00		         0.04500	2.90000e+02	
0.20794   	5.28181e+00		         0.04667	2.78000e+02	
0.21461   	5.16789e+00		         0.04833	2.63000e+02	
0.22156   	5.07097e+00		         0.05000	2.46000e+02	
0.22824   	4.98467e+00		         0.05167	2.26000e+02	
0.23491   	4.91853e+00		         0.05333	2.04000e+02	
0.24159   	4.87711e+00		         0.05500	1.82000e+02	
0.24854   	4.84862e+00		         0.05667	1.58000e+02	
0.25521   	4.78952e+00		         0.05833	1.34000e+02	
0.26189   	4.70119e+00		         0.06000	1.10000e+02	
0.26857   	4.59980e+00		         0.06167	8.70000e+01	
0.27552   	4.48251e+00		         0.06333	6.40000e+01	
0.28249   	4.31317e+00		         0.06500	4.20000e+01	
0.28887   	4.19421e+00		         0.06667	2.10000e+01	
0.29555   	4.01125e+00		         0.06833	2.00000e+00	
0.30249   	3.83579e+00		         0.07000	-1.60000e+01	
0.30917   	3.65014e+00		         0.07167	-3.20000e+01	
0.31585   	3.50109e+00		         0.07333	-4.60000e+01	
0.32253   	3.30110e+00		         0.07500	-5.90000e+01	
0.32947   	3.14020e+00		         0.07667	-7.00000e+01	
0.33615   	2.99653e+00		         0.07833	-8.00000e+01	
0.34283   	2.83767e+00		         0.08000	-8.80000e+01	
0.34950   	2.69598e+00		         0.08167	-9.40000e+01	
0.35645   	2.51466e+00		         0.08333	-9.90000e+01	
0.36313   	2.33207e+00		         0.08500	-1.03000e+02	
0.36980   	2.08345e+00		         0.08667	-1.06000e+02	
0.37648   	1.83553e+00		         0.08833	-1.07000e+02	
0.38343   	1.54319e+00		         0.09000	-1.08000e+02	
0.39011   	1.08447e+00		         0.09167	-1.07000e+02	
0.39678   	6.06447e-01		         0.09333	-1.06000e+02	
0.40346   	-3.75000e-02		         0.09500	-1.05000e+02	
0.41041   	-4.80084e-01		         0.09667	-1.03000e+02	
0.41708   	-6.53239e-01		         0.09833	-1.01000e+02	
0.42376   	-4.59261e-01		         0.10000	-1.00000e+02	
0.43044   	-2.86389e-01		         0.10167	-9.80000e+01	
0.43738   	1.92196e-02		         0.10333	-9.60000e+01	
0.44406   	1.46974e-01		         0.10500	-9.40000e+01	
0.45073   	1.01959e-01		         0.10667	-9.20000e+01	
0.45742   	1.94103e-02		         0.10833	-9.10000e+01	
0.46436   	4.39213e-02		         0.11000	-8.90000e+01	
0.47104   	1.68780e-01		         0.11167	-8.80000e+01	
0.47772   	2.92775e-01		         0.11333	-8.60000e+01	
0.48439   	1.46518e-01		         0.11500	-8.50000e+01	
0.49134   	-1.33519e-01		         0.11667	-8.40000e+01	
0.49834   	-6.12613e-01		         0.11833	-8.30000e+01	
0.50469   	-1.21938e+00		         0.12000	-8.20000e+01	
0.51137   	-1.84737e+00		         0.12167	-8.00000e+01	
0.51832   	-2.48953e+00		         0.12333	-7.90000e+01	
0.52499   	-3.21989e+00		         0.12500	-7.80000e+01	
0.53167   	-3.79427e+00		         0.12667	-7.70000e+01	
0.53835   	-4.24776e+00		         0.12833	-7.60000e+01	
0.54530   	-4.66088e+00		         0.13000	-7.50000e+01	
0.55198   	-4.83940e+00		         0.13167	-7.30000e+01	
0.55865   	-4.98805e+00		         0.13333	-7.20000e+01	
0.56533   	-5.12877e+00		         0.13500	-7.10000e+01	
0.57228   	-5.29523e+00		         0.13667	-7.00000e+01	
0.57895   	-5.44399e+00		         0.13833	-6.90000e+01	
0.58563   	-5.56568e+00		         0.14000	-6.70000e+01	
0.59231   	-5.63863e+00		         0.14167	-6.60000e+01	
0.59925   	-5.54622e+00		         0.14333	-6.50000e+01	
0.60593   	-5.35806e+00		         0.14500	-6.40000e+01	
0.61261   	-5.08089e+00		         0.14667	-6.30000e+01	
0.61928   	-4.74417e+00		         0.14833	-6.20000e+01	
0.62623   	-4.25252e+00		         0.15000	-6.10000e+01	
0.63291   	-3.80313e+00		         0.15167	-6.10000e+01	
0.63959   	-3.29088e+00		         0.15333	-6.00000e+01	
0.64626   	-2.78103e+00		         0.15500	-6.00000e+01	
0.65321   	-2.27935e+00		         0.15667	-6.00000e+01	
0.65989   	-1.79602e+00		         0.15833	-6.00000e+01	
0.66656   	-1.34306e+00		         0.16000	-5.90000e+01	
0.67324   	-9.10659e-01		         0.16167	-5.90000e+01	
0.68019   	-4.97768e-01		         0.16333	-5.80000e+01	
0.68686   	-1.39294e-01		         0.16500	-5.70000e+01	
0.69354   	1.32269e-01		         0.16667	-5.70000e+01	
0.70022   	3.26203e-01		         0.16833	-5.60000e+01	
0.70717   	4.26619e-01		         0.17000	-5.50000e+01	
0.71409   	4.41973e-01		         0.17167	-5.40000e+01	
0.72052   	4.15260e-01		         0.17333	-5.30000e+01	
0.72720   	3.46963e-01		         0.17500	-5.20000e+01	
0.73414   	2.78142e-01		         0.17667	-5.10000e+01	
0.74082   	1.83799e-01		         0.17833	-5.00000e+01	
0.74750   	8.37081e-02		         0.18000	-4.90000e+01	
0.75418   	-1.27984e-03		         0.18167	-4.80000e+01	
0.76112   	-5.44703e-02		         0.18333	-4.70000e+01	
0.76780   	-1.04933e-01		         0.18500	-4.60000e+01	
0.77448   	-1.43344e-01		         0.18667	-4.50000e+01	
0.78115   	-1.92907e-01		         0.18833	-4.30000e+01	
0.78810   	-2.49722e-01		         0.19000	-4.20000e+01	
0.79478   	-3.23120e-01		         0.19167	-4.00000e+01	
0.80146   	-4.23572e-01		         0.19333	-3.90000e+01	
0.80813   	-5.64410e-01		         0.19500	-3.70000e+01	
0.81508   	-7.84678e-01		         0.19667	-3.60000e+01	
0.82176   	-1.12540e+00		         0.19833	-3.40000e+01	
0.82843   	-1.58934e+00		         0.20000	-3.30000e+01	
0.83511   	-2.13577e+00		         0.20167	-3.10000e+01	
0.84206   	-2.76498e+00		         0.20333	-3.00000e+01	
0.84873   	-3.46163e+00		         0.20500	-2.80000e+01	
0.85541   	-4.11816e+00		         0.20667	-2.70000e+01	
0.86209   	-4.75999e+00		         0.20833	-2.60000e+01	
0.86904   	-5.37464e+00		         0.21000	-2.50000e+01	
0.87571   	-5.91307e+00		         0.21167	-2.40000e+01	
0.88239   	-6.30444e+00		         0.21333	-2.30000e+01	
0.88907   	-6.53518e+00		         0.21500	-2.20000e+01	
0.89601   	-6.56137e+00		         0.21667	-2.10000e+01	
0.90269   	-6.42747e+00		         0.21833	-2.00000e+01	
0.90937   	-6.18488e+00		         0.22000	-1.90000e+01	
0.91604   	-5.78318e+00		         0.22167	-1.80000e+01	
0.92299   	-5.35480e+00		         0.22333	-1.80000e+01	
0.92978   	-4.91164e+00		         0.22500	-1.80000e+01	
0.93635   	-4.32179e+00		         0.22667	-1.80000e+01	
0.94302   	-3.73202e+00		         0.22833	-1.80000e+01	
0.94997   	-3.11380e+00		         0.23000	-1.80000e+01	
0.95664   	-2.49799e+00		         0.23167	-1.90000e+01	
0.96332   	-1.89366e+00		         0.23333	-1.90000e+01	
0.97000   	-1.43629e+00		         0.23500	-1.80000e+01	
0.97695   	-9.20713e-01		         0.23667	-1.80000e+01	
0.98362   	-4.87827e-01		         0.23833	-1.70000e+01	
0.99030   	-1.10143e-01		         0.24000	-1.60000e+01	
0.99697   	2.77347e-01		         0.24167	-1.40000e+01	
1.00393   	6.50430e-01		         0.24333	-1.20000e+01	
1.01060   	1.07096e+00		         0.24500	-9.00000e+00	
1.01728   	1.49334e+00		         0.24667	-7.00000e+00	
1.02396   	1.92022e+00		         0.24833	-4.00000e+00	
1.03090   	2.59467e+00		         0.25000	-1.00000e+00	
1.03758   	3.01204e+00		         0.25167	2.00000e+00	
1.04426   	2.98718e+00		         0.25333	4.00000e+00	
1.05093   	2.58811e+00		         0.25500	7.00000e+00	
1.05788   	2.21562e+00		         0.25667	9.00000e+00	
1.06456   	1.39816e+00		         0.25833	1.10000e+01	
1.07124   	8.84033e-01		         0.26000	1.20000e+01	
1.07791   	8.91592e-01		         0.26167	1.30000e+01	
1.08486   	1.23116e+00		         0.26333	1.40000e+01	
1.09154   	1.68294e+00		         0.26500	1.40000e+01	
1.09821   	2.44175e+00		         0.26667	1.50000e+01	
1.10489   	3.23738e+00		         0.26833	1.50000e+01	
1.11184   	3.91659e+00		         0.27000	1.50000e+01	
1.11851   	4.62661e+00		         0.27167	1.50000e+01	
1.12519   	5.17121e+00		         0.27333	1.60000e+01	
1.13187   	5.49271e+00		         0.27500	1.60000e+01	
1.13882   	5.65950e+00		         0.27667	1.70000e+01	
1.14567   	5.67641e+00		         0.27833	1.80000e+01	
1.15217   	5.63532e+00		         0.28000	1.90000e+01	
1.15885   	5.58134e+00		         0.28167	2.00000e+01	
1.16580   	5.51105e+00		         0.28333	2.10000e+01	
1.17247   	5.46295e+00		         0.28500	2.20000e+01	
1.17915   	5.41582e+00		         0.28667	2.40000e+01	
1.18583   	5.33917e+00		         0.28833	2.60000e+01	
1.19277   	5.26587e+00		         0.29000	2.70000e+01	
1.19945   	5.19874e+00		         0.29167	2.90000e+01	
1.20613   	5.12943e+00		         0.29333	3.10000e+01	
1.21280   	5.05278e+00		         0.29500	3.30000e+01	
1.21975   	4.97481e+00		         0.29667	3.40000e+01	
1.22643   	4.91718e+00		         0.29833	3.60000e+01	
1.23311   	4.87326e+00		         0.30000	3.80000e+01	
1.23978   	4.78927e+00		         0.30167	4.00000e+01	
1.24673   	4.73776e+00		         0.30333	4.20000e+01	
1.25341   	4.66500e+00		         0.30500	4.30000e+01	
1.26008   	4.53616e+00		         0.30667	4.40000e+01	
1.26676   	4.39214e+00		         0.30833	4.50000e+01	
1.27371   	4.27760e+00		         0.31000	4.60000e+01	
1.28038   	4.07359e+00		         0.31167	4.60000e+01	
1.28706   	3.88692e+00		         0.31333	4.60000e+01	
1.29373   	3.69633e+00		         0.31500	4.60000e+01	
1.30069   	3.49118e+00		         0.31667	4.50000e+01	
1.30736   	3.26583e+00		         0.31833	4.40000e+01	
1.31404   	3.09510e+00		         0.32000	4.30000e+01	
1.32072   	2.92092e+00		         0.32167	4.10000e+01	
1.32802   	2.75952e+00		         0.32333	3.90000e+01	
1.33434   	2.57400e+00		         0.32500	3.70000e+01	
1.34102   	2.40300e+00		         0.32667	3.50000e+01	
1.34769   	2.22838e+00		         0.32833	3.30000e+01	
1.35464   	2.04262e+00		         0.33000	3.20000e+01	
1.36149   	1.81884e+00		         0.33167	3.00000e+01	
1.36799   	1.60809e+00		         0.33333	2.80000e+01	
1.37467   	1.31913e+00		         0.33500	2.60000e+01	
1.38162   	1.00066e+00		         0.33667	2.40000e+01	
1.38829   	5.35452e-01		         0.33833	2.20000e+01	
1.39497   	-8.37258e-02		         0.34000	2.00000e+01	
1.40165   	-5.75897e-01		         0.34167	1.80000e+01	
1.40860   	-6.81037e-01		         0.34333	1.70000e+01	
1.41528   	-5.55165e-01		         0.34500	1.50000e+01	
1.42195   	-3.21220e-01		         0.34667	1.30000e+01	
1.42863   	3.11883e-02		         0.34833	1.10000e+01	
1.43558   	3.12356e-01		         0.35000	8.00000e+00	
1.44225   	3.13958e-01		         0.35167	6.00000e+00	
1.44893   	2.47059e-01		         0.35333	4.00000e+00	
1.45561   	3.39293e-01		         0.35500	2.00000e+00	
1.46255   	4.34074e-01		         0.35667	0.00000e+00	
1.46923   	4.79127e-01		         0.35833	-2.00000e+00	
1.47591   	5.54052e-01		         0.36000	-4.00000e+00	
1.48259   	3.42569e-01		         0.36167	-6.00000e+00	
1.48953   	-1.96065e-01		         0.36333	-8.00000e+00	
1.49621   	-7.97713e-01		         0.36500	-1.00000e+01	
1.50289   	-1.49998e+00		         0.36667	-1.20000e+01	
1.50956   	-2.41879e+00		         0.36833	-1.40000e+01	
1.51651   	-3.26324e+00		         0.37000	-1.50000e+01	
1.52319   	-3.99598e+00		         0.37167	-1.60000e+01	
1.52986   	-4.54400e+00		         0.37333	-1.70000e+01	
1.53654   	-4.83436e+00		         0.37500	-1.80000e+01	
1.54349   	-5.12389e+00		         0.37667	-1.80000e+01	
1.55016   	-5.32683e+00		         0.37833	-1.90000e+01	
1.55684   	-5.41582e+00		         0.38000	-1.80000e+01	
1.56352   	-5.56134e+00		         0.38167	-1.80000e+01	
1.57047   	-5.81338e+00		         0.38333	-1.70000e+01	
1.57729   	-5.84757e+00		         0.38500	-1.70000e+01	
1.58382   	-5.76684e+00		         0.38667	-1.60000e+01	
1.59050   	-5.63853e+00		         0.38833	-1.50000e+01	
1.59745   	-5.39797e+00		         0.39000	-1.50000e+01	
1.60412   	-5.09270e+00		         0.39167	-1.50000e+01	
1.61080   	-4.76956e+00		         0.39333	-1.50000e+01	
1.61748   	-4.43998e+00		         0.39500	-1.60000e+01	
1.62442   	-4.02519e+00		         0.39667	-1.70000e+01	
1.63110   	-3.55017e+00		         0.39833	-1.80000e+01	
1.63778   	-3.01405e+00		         0.40000	-1.90000e+01	
1.64445   	-2.44354e+00		         0.40167	-2.00000e+01	
1.65140   	-1.89745e+00		         0.40333	-2.20000e+01	
1.65808   	-1.34312e+00		         0.40500	-2.30000e+01	
1.66475   	-8.67882e-01		         0.40667	-2.40000e+01	
1.67143   	-4.82830e-01		         0.40833	-2.50000e+01	
1.67838   	-1.65088e-01		         0.41000	-2.60000e+01	
1.68506   	1.05411e-01		         0.41167	-2.60000e+01	
1.69173   	2.08779e-01		         0.41333	-2.60000e+01	
1.69841   	2.87307e-01		         0.41500	-2.60000e+01	
1.70536   	3.09251e-01		         0.41667	-2.60000e+01	
1.71203   	2.79390e-01		         0.41833	-2.50000e+01	
1.71871   	1.77326e-01		         0.42000	-2.40000e+01	
1.72539   	3.98844e-02		         0.42167	-2.20000e+01	
1.73234   	-2.46755e-01		         0.42333	-2.10000e+01	
1.73901   	-6.40416e-01		         0.42500	-2.00000e+01	
1.74569   	-1.16820e+00		         0.42667	-1.90000e+01	
1.75237   	-1.85416e+00		         0.42833	-1.90000e+01	
1.75931   	-2.59659e+00		         0.43000	-1.80000e+01	
1.76599   	-3.43760e+00		         0.43167	-1.70000e+01	
1.77267   	-4.29916e+00		         0.43333	-1.70000e+01	
1.77934   	-5.18614e+00		         0.43500	-1.70000e+01	
1.78629   	-5.94967e+00		         0.43667	-1.60000e+01	
1.79306   	-6.67772e+00		         0.43833	-1.70000e+01	
1.79964   	-7.10324e+00		         0.44000	-1.70000e+01	
1.80632   	-7.34198e+00		         0.44167	-1.70000e+01	
1.81327   	-7.25262e+00		         0.44333	-1.70000e+01	
1.81994   	-7.01135e+00		         0.44500	-1.70000e+01	
1.82662   	-6.50276e+00		         0.44667	-1.60000e+01	
1.83330   	-6.05116e+00		         0.44833	-1.60000e+01	
1.84025   	-5.44164e+00		         0.45000	-1.50000e+01	
1.84692   	-4.86776e+00		         0.45167	-1.50000e+01	
1.85360   	-4.22580e+00		         0.45333	-1.40000e+01	
1.86028   	-3.67531e+00		         0.45500	-1.40000e+01	
1.86723   	-2.99732e+00		         0.45667	-1.30000e+01	
1.87390   	-2.46371e+00		         0.45833	-1.20000e+01	
1.88058   	-1.89158e+00		         0.46000	-1.20000e+01	
1.88726   	-1.32741e+00		         0.46167	-1.10000e+01	
1.89420   	-8.10228e-01		         0.46333	-1.00000e+01	
1.90088   	-3.96164e-01		         0.46500	-9.00000e+00	
1.90756   	1.49033e-01		         0.46667	-8.00000e+00	
1.91424   	6.28291e-01		         0.46833	-7.00000e+00	
1.92118   	1.09685e+00		         0.47000	-6.00000e+00	
1.92786   	1.64035e+00		         0.47167	-5.00000e+00	
1.93454   	2.39574e+00		         0.47333	-4.00000e+00	
1.94121   	3.16212e+00		         0.47500	-4.00000e+00	
1.94816   	3.56284e+00		         0.47667	-3.00000e+00	
1.95485   	3.48245e+00		         0.47833	-3.00000e+00	
1.96151   	3.03229e+00		         0.48000	-2.00000e+00	
1.96819   	2.33335e+00		         0.48167	-2.00000e+00	
1.97514   	1.29829e+00		         0.48333	-2.00000e+00	
1.98181   	5.32972e-01		         0.48500	-3.00000e+00	
1.98849   	4.24920e-01		         0.48667	-3.00000e+00	
1.99517   	7.63003e-01		         0.48833	-3.00000e+00	
2.00212   	1.17578e+00		         0.49000	-4.00000e+00	
2.00899   	1.92609e+00		         0.49167	-4.00000e+00	
2.01547   	2.84865e+00		         0.49333	-4.00000e+00	
2.02215   	3.59104e+00		         0.49500	-5.00000e+00	
2.02909   	4.20753e+00		         0.49667	-5.00000e+00	
2.03577   	4.75623e+00		         0.49833	-5.00000e+00	
2.04245   	5.17065e+00		         0.50000	-5.00000e+00	
2.04913   	5.39984e+00		         0.50167	-5.00000e+00	
2.05607   	5.49530e+00		         0.50333	-4.00000e+00	
2.06275   	5.49538e+00		         0.50500	-4.00000e+00	
2.06943   	5.46194e+00		         0.50667	-4.00000e+00	
2.07610   	5.34574e+00		         0.50833	-4.00000e+00	
2.08305   	5.25973e+00		         0.51000	-3.00000e+00	
2.08973   	5.22049e+00		         0.51167	-3.00000e+00	
2.09641   	5.21865e+00		         0.51333	-2.00000e+00	
2.10308   	5.20022e+00		         0.51500	-2.00000e+00	
2.11003   	5.17933e+00		         0.51667	-3.00000e+00	
2.11671   	5.12121e+00		         0.51833	-3.00000e+00	
2.12338   	5.04255e+00		         0.52000	-4.00000e+00	
2.13006   	4.97044e+00		         0.52167	-4.00000e+00	
2.13701   	4.89363e+00		         0.52333	-5.00000e+00	
2.14368   	4.82696e+00		         0.52500	-6.00000e+00	
2.15036   	4.81893e+00		         0.52667	-6.00000e+00	
2.15704   	4.78088e+00		         0.52833	-7.00000e+00	
2.16399   	4.68630e+00		         0.53000	-7.00000e+00	
2.17066   	4.58285e+00		         0.53167	-7.00000e+00	
2.17734   	4.45526e+00		         0.53333	-7.00000e+00	
2.18402   	4.26172e+00		         0.53500	-7.00000e+00	
2.19096   	4.03947e+00		         0.53667	-7.00000e+00	
2.19764   	3.83593e+00		         0.53833	-6.00000e+00	
2.20432   	3.60409e+00		         0.54000	-5.00000e+00	
2.21099   	3.35005e+00		         0.54167	-4.00000e+00	
2.21794   	3.13342e+00		         0.54333	-3.00000e+00	
2.22485   	2.94839e+00		         0.54500	-3.00000e+00	
2.23129   	2.76151e+00		         0.54667	-2.00000e+00	
2.23797   	2.62951e+00		         0.54833	-2.00000e+00	
2.24492   	2.50702e+00		         0.55000	-2.00000e+00	
2.25159   	2.39918e+00		         0.55167	-2.00000e+00	
2.25827   	2.28073e+00		         0.55333	-2.00000e+00	
2.26495   	2.15314e+00		         0.55500	-2.00000e+00	
2.27189   	1.95605e+00		         0.55667	-3.00000e+00	
2.27858   	1.79065e+00		         0.55833	-3.00000e+00	
2.28525   	1.46586e+00		         0.56000	-4.00000e+00	
2.29193   	8.67804e-01		         0.56167	-4.00000e+00	
2.29888   	2.04936e-01		         0.56333	-5.00000e+00	
2.30555   	-4.85283e-01		         0.56500	-5.00000e+00	
2.31223   	-8.73237e-01		         0.56667	-6.00000e+00	
2.31891   	-1.00711e+00		         0.56833	-6.00000e+00	
2.32585   	-6.44645e-01		         0.57000	-6.00000e+00	
2.33253   	-2.67954e-01		         0.57167	-7.00000e+00	
2.33921   	1.00919e-01		         0.57333	-7.00000e+00	
2.34589   	2.83688e-01		         0.57500	-8.00000e+00	
2.35284   	3.47170e-01		         0.57667	-8.00000e+00	
2.35951   	2.90836e-01		         0.57833	-8.00000e+00	
2.36619   	4.68403e-01		         0.58000	-8.00000e+00	
2.37286   	7.07495e-01		         0.58167	-8.00000e+00	
2.37981   	8.32608e-01		         0.58333	-8.00000e+00	
2.38649   	8.11177e-01		         0.58500	-8.00000e+00	
2.39316   	5.74928e-01		         0.58667	-7.00000e+00	
2.39984   	-5.09034e-02		         0.58833	-7.00000e+00	
2.40679   	-7.25077e-01		         0.59000	-7.00000e+00	
2.41346   	-1.54736e+00		         0.59167	-7.00000e+00	
2.42014   	-2.36628e+00		         0.59333	-8.00000e+00	
2.42682   	-3.14847e+00		         0.59500	-8.00000e+00	
2.43377   	-3.71086e+00		         0.59667	-8.00000e+00	
2.44076   	-4.24667e+00		         0.59833	-9.00000e+00	
2.44712   	-4.61242e+00		         0.60000	-9.00000e+00	
