Velocity (TVI), in cm/s

Time (s) :	Trace 1 : 		Ecg : 		
0.00522   	2.23054e-01		         0.00000	2.36000e+02	
0.01132   	1.79105e-01		         0.00167	2.38000e+02	
0.01743   	-5.11570e-02		         0.00333	2.35000e+02	
0.02353   	-3.97168e-01		         0.00500	2.28000e+02	
0.02991   	-5.22512e-01		         0.00667	2.15000e+02	
0.03601   	-5.29084e-01		         0.00833	1.96000e+02	
0.04227   	-3.88967e-01		         0.01000	1.72000e+02	
0.04822   	3.79084e-02		         0.01167	1.43000e+02	
0.05460   	6.60575e-01		         0.01333	1.09000e+02	
0.06070   	1.31149e+00		         0.01500	7.20000e+01	
0.06681   	2.01167e+00		         0.01667	3.40000e+01	
0.07291   	2.79950e+00		         0.01833	-6.00000e+00	
0.07929   	3.55178e+00		         0.02000	-4.40000e+01	
0.08539   	4.25369e+00		         0.02167	-8.00000e+01	
0.09150   	4.75871e+00		         0.02333	-1.11000e+02	
0.09760   	5.09899e+00		         0.02500	-1.38000e+02	
0.10398   	5.34238e+00		         0.02667	-1.60000e+02	
0.11008   	5.52395e+00		         0.02833	-1.75000e+02	
0.11618   	5.80243e+00		         0.03000	-1.85000e+02	
0.12229   	5.94868e+00		         0.03167	-1.89000e+02	
0.12867   	6.14323e+00		         0.03333	-1.88000e+02	
0.13477   	6.24281e+00		         0.03500	-1.83000e+02	
0.14088   	6.32421e+00		         0.03667	-1.75000e+02	
0.14698   	6.22938e+00		         0.03833	-1.65000e+02	
0.15336   	6.17450e+00		         0.04000	-1.53000e+02	
0.15946   	6.06200e+00		         0.04167	-1.40000e+02	
0.16557   	5.91760e+00		         0.04333	-1.27000e+02	
0.17167   	5.77935e+00		         0.04500	-1.15000e+02	
0.17805   	5.72450e+00		         0.04667	-1.04000e+02	
0.18415   	5.67700e+00		         0.04833	-9.40000e+01	
0.19026   	5.63967e+00		         0.05000	-8.50000e+01	
0.19636   	5.56445e+00		         0.05167	-7.80000e+01	
0.20274   	5.52459e+00		         0.05333	-7.10000e+01	
0.20884   	5.49007e+00		         0.05500	-6.60000e+01	
0.21495   	5.41722e+00		         0.05667	-6.20000e+01	
0.22105   	5.33766e+00		         0.05833	-5.90000e+01	
0.22743   	5.29498e+00		         0.06000	-5.60000e+01	
0.23353   	5.19246e+00		         0.06167	-5.40000e+01	
0.23964   	5.05200e+00		         0.06333	-5.20000e+01	
0.24575   	4.92640e+00		         0.06500	-5.10000e+01	
0.25212   	4.79006e+00		         0.06667	-4.90000e+01	
0.25822   	4.63409e+00		         0.06833	-4.80000e+01	
0.26433   	4.50646e+00		         0.07000	-4.70000e+01	
0.27043   	4.37970e+00		         0.07167	-4.60000e+01	
0.27681   	4.20436e+00		         0.07333	-4.50000e+01	
0.28291   	3.98964e+00		         0.07500	-4.40000e+01	
0.28902   	3.78850e+00		         0.07667	-4.30000e+01	
0.29512   	3.60838e+00		         0.07833	-4.20000e+01	
0.30150   	3.39632e+00		         0.08000	-4.10000e+01	
0.30760   	3.20903e+00		         0.08167	-4.00000e+01	
0.31371   	3.04996e+00		         0.08333	-3.90000e+01	
0.31981   	2.92620e+00		         0.08500	-3.90000e+01	
0.32619   	2.78226e+00		         0.08667	-3.80000e+01	
0.33229   	2.62878e+00		         0.08833	-3.80000e+01	
0.33840   	2.47996e+00		         0.09000	-3.70000e+01	
0.34450   	2.34073e+00		         0.09167	-3.60000e+01	
0.35088   	2.14705e+00		         0.09333	-3.60000e+01	
0.35698   	1.89545e+00		         0.09500	-3.50000e+01	
0.36309   	1.62680e+00		         0.09667	-3.40000e+01	
0.36919   	1.33276e+00		         0.09833	-3.40000e+01	
0.37557   	9.00467e-01		         0.10000	-3.30000e+01	
0.38168   	3.87372e-01		         0.10167	-3.20000e+01	
0.38778   	-2.51442e-01		         0.10333	-3.10000e+01	
0.39388   	-8.92116e-01		         0.10500	-3.00000e+01	
0.40026   	-1.60485e+00		         0.10667	-2.90000e+01	
0.40636   	-2.12456e+00		         0.10833	-2.70000e+01	
0.41247   	-2.36520e+00		         0.11000	-2.60000e+01	
0.41857   	-2.30283e+00		         0.11167	-2.50000e+01	
0.42495   	-2.00303e+00		         0.11333	-2.40000e+01	
0.43106   	-1.57068e+00		         0.11500	-2.30000e+01	
0.43716   	-1.19162e+00		         0.11667	-2.30000e+01	
0.44326   	-8.82291e-01		         0.11833	-2.20000e+01	
0.44964   	-6.71575e-01		         0.12000	-2.10000e+01	
0.45574   	-4.42744e-01		         0.12167	-2.10000e+01	
0.46185   	-4.20454e-01		         0.12333	-2.00000e+01	
0.46795   	-3.06791e-01		         0.12500	-2.00000e+01	
0.47433   	-4.68646e-01		         0.12667	-2.00000e+01	
0.48043   	-7.43293e-01		         0.12833	-1.90000e+01	
0.48654   	-1.26150e+00		         0.13000	-1.90000e+01	
0.49264   	-1.59455e+00		         0.13167	-1.80000e+01	
0.49902   	-2.10016e+00		         0.13333	-1.80000e+01	
0.50512   	-2.77057e+00		         0.13500	-1.70000e+01	
0.51123   	-3.16505e+00		         0.13667	-1.70000e+01	
0.51733   	-3.55186e+00		         0.13833	-1.60000e+01	
0.52371   	-3.88699e+00		         0.14000	-1.60000e+01	
0.52982   	-4.26650e+00		         0.14167	-1.50000e+01	
0.53592   	-4.17182e+00		         0.14333	-1.50000e+01	
0.54202   	-4.26538e+00		         0.14500	-1.50000e+01	
0.54840   	-4.30361e+00		         0.14667	-1.40000e+01	
0.55450   	-4.37102e+00		         0.14833	-1.40000e+01	
0.56061   	-4.22883e+00		         0.15000	-1.40000e+01	
0.56671   	-4.31655e+00		         0.15167	-1.40000e+01	
0.57321   	-4.24028e+00		         0.15333	-1.40000e+01	
0.57919   	-4.18993e+00		         0.15500	-1.30000e+01	
0.58530   	-4.06806e+00		         0.15667	-1.30000e+01	
0.59140   	-3.94340e+00		         0.15833	-1.30000e+01	
0.59778   	-3.66847e+00		         0.16000	-1.30000e+01	
0.60388   	-3.45679e+00		         0.16167	-1.30000e+01	
0.60999   	-3.17615e+00		         0.16333	-1.20000e+01	
0.61609   	-2.96219e+00		         0.16500	-1.20000e+01	
0.62247   	-2.73835e+00		         0.16667	-1.10000e+01	
0.62857   	-2.55127e+00		         0.16833	-1.10000e+01	
0.63468   	-2.34575e+00		         0.17000	-1.00000e+01	
0.64078   	-2.21193e+00		         0.17167	-1.00000e+01	
0.64716   	-2.07301e+00		         0.17333	-9.00000e+00	
0.65326   	-1.96747e+00		         0.17500	-8.00000e+00	
0.65937   	-1.83121e+00		         0.17667	-8.00000e+00	
0.66547   	-1.72153e+00		         0.17833	-7.00000e+00	
0.67185   	-1.54036e+00		         0.18000	-7.00000e+00	
0.67796   	-1.34439e+00		         0.18167	-6.00000e+00	
0.68406   	-1.13602e+00		         0.18333	-6.00000e+00	
0.69016   	-9.22569e-01		         0.18500	-5.00000e+00	
0.69654   	-7.60035e-01		         0.18667	-5.00000e+00	
0.70264   	-6.21102e-01		         0.18833	-4.00000e+00	
0.70875   	-4.75340e-01		         0.19000	-4.00000e+00	
0.71485   	-3.64586e-01		         0.19167	-3.00000e+00	
0.72123   	-2.82205e-01		         0.19333	-2.00000e+00	
0.72734   	-1.89904e-01		         0.19500	-2.00000e+00	
0.73344   	-9.33068e-02		         0.19667	-1.00000e+00	
0.73954   	-4.14225e-02		         0.19833	0.00000e+00	
0.74592   	1.89342e-02		         0.20000	2.00000e+00	
0.75202   	8.75369e-02		         0.20167	3.00000e+00	
0.75813   	1.27015e-01		         0.20333	4.00000e+00	
0.76423   	1.48151e-01		         0.20500	6.00000e+00	
0.77061   	1.67758e-01		         0.20667	7.00000e+00	
0.77671   	1.62612e-01		         0.20833	9.00000e+00	
0.78282   	1.11074e-01		         0.21000	1.00000e+01	
0.78920   	-1.52920e-02		         0.21167	1.20000e+01	
0.79530   	-2.06725e-01		         0.21333	1.40000e+01	
0.80140   	-5.83556e-01		         0.21500	1.60000e+01	
0.80751   	-1.19651e+00		         0.21667	1.70000e+01	
0.81361   	-2.03390e+00		         0.21833	1.90000e+01	
0.81999   	-3.05032e+00		         0.22000	2.00000e+01	
0.82609   	-4.25545e+00		         0.22167	2.20000e+01	
0.83220   	-5.56738e+00		         0.22333	2.30000e+01	
0.83830   	-6.91373e+00		         0.22500	2.50000e+01	
0.84468   	-8.19909e+00		         0.22667	2.60000e+01	
0.85079   	-9.25898e+00		         0.22833	2.70000e+01	
0.85689   	-1.00165e+01		         0.23000	2.90000e+01	
0.86299   	-1.01578e+01		         0.23167	3.00000e+01	
0.86937   	-9.76760e+00		         0.23333	3.10000e+01	
0.87547   	-8.84704e+00		         0.23500	3.20000e+01	
0.88158   	-7.51394e+00		         0.23667	3.30000e+01	
0.88768   	-5.96277e+00		         0.23833	3.40000e+01	
0.89406   	-4.92887e+00		         0.24000	3.50000e+01	
0.90016   	-3.95523e+00		         0.24167	3.60000e+01	
0.90627   	-3.10568e+00		         0.24333	3.70000e+01	
0.91238   	-2.50979e+00		         0.24500	3.80000e+01	
0.91875   	-2.04657e+00		         0.24667	3.90000e+01	
0.92485   	-1.43341e+00		         0.24833	4.00000e+01	
0.93096   	-1.00559e+00		         0.25000	4.10000e+01	
0.93706   	-6.73067e-01		         0.25167	4.20000e+01	
0.94344   	-3.35495e-01		         0.25333	4.30000e+01	
0.94954   	-9.63522e-02		         0.25500	4.40000e+01	
0.95565   	1.76386e-01		         0.25667	4.50000e+01	
0.96176   	4.84203e-01		         0.25833	4.60000e+01	
0.96813   	4.64294e-01		         0.26000	4.70000e+01	
0.97423   	-1.91055e-02		         0.26167	4.70000e+01	
0.98034   	-4.05442e-01		         0.26333	4.80000e+01	
0.98644   	-5.63792e-01		         0.26500	4.80000e+01	
0.99282   	-6.80698e-01		         0.26667	4.90000e+01	
0.99892   	-4.13375e-01		         0.26833	4.90000e+01	
1.00512   	4.35895e-01		         0.27000	4.90000e+01	
1.01114   	1.32511e+00		         0.27167	5.00000e+01	
1.01751   	2.20864e+00		         0.27333	5.00000e+01	
1.02361   	3.14476e+00		         0.27500	4.90000e+01	
1.02972   	3.91615e+00		         0.27667	4.90000e+01	
1.03582   	4.54642e+00		         0.27833	4.90000e+01	
1.04220   	5.05449e+00		         0.28000	4.80000e+01	
1.04830   	5.44934e+00		         0.28167	4.80000e+01	
1.05441   	5.70728e+00		         0.28333	4.70000e+01	
1.06052   	5.93419e+00		         0.28500	4.60000e+01	
1.06689   	6.05894e+00		         0.28667	4.50000e+01	
1.07299   	6.15766e+00		         0.28833	4.30000e+01	
1.07910   	6.20138e+00		         0.29000	4.20000e+01	
1.08520   	6.21372e+00		         0.29167	4.00000e+01	
1.09158   	6.26613e+00		         0.29333	3.90000e+01	
1.09769   	6.27484e+00		         0.29500	3.70000e+01	
1.10379   	6.25773e+00		         0.29667	3.50000e+01	
1.10990   	6.10295e+00		         0.29833	3.30000e+01	
1.11627   	6.02700e+00		         0.30000	3.10000e+01	
1.12246   	5.90786e+00		         0.30167	2.80000e+01	
1.12848   	5.83192e+00		         0.30333	2.60000e+01	
1.13458   	5.79639e+00		         0.30500	2.40000e+01	
1.14096   	5.81391e+00		         0.30667	2.10000e+01	
1.14707   	5.73234e+00		         0.30833	1.90000e+01	
1.15317   	5.68467e+00		         0.31000	1.70000e+01	
1.15928   	5.64501e+00		         0.31167	1.40000e+01	
1.16565   	5.53559e+00		         0.31333	1.20000e+01	
1.17175   	5.44927e+00		         0.31500	1.00000e+01	
1.17786   	5.36534e+00		         0.31667	7.00000e+00	
1.18397   	5.23169e+00		         0.31833	5.00000e+00	
1.19034   	5.06492e+00		         0.32000	3.00000e+00	
1.19645   	4.90063e+00		         0.32167	1.00000e+00	
1.20255   	4.71589e+00		         0.32333	-1.00000e+00	
1.20866   	4.56088e+00		         0.32500	-3.00000e+00	
1.21503   	4.41741e+00		         0.32667	-5.00000e+00	
1.22121   	4.26635e+00		         0.32833	-6.00000e+00	
1.22724   	4.10559e+00		         0.33000	-7.00000e+00	
1.23335   	3.93076e+00		         0.33167	-9.00000e+00	
1.23972   	3.72120e+00		         0.33333	-1.00000e+01	
1.24583   	3.55849e+00		         0.33500	-1.00000e+01	
1.25193   	3.39643e+00		         0.33667	-1.10000e+01	
1.25804   	3.20750e+00		         0.33833	-1.20000e+01	
1.26441   	3.04583e+00		         0.34000	-1.20000e+01	
1.27051   	2.93171e+00		         0.34167	-1.20000e+01	
1.27662   	2.76711e+00		         0.34333	-1.20000e+01	
1.28273   	2.58887e+00		         0.34500	-1.20000e+01	
1.28910   	2.44178e+00		         0.34667	-1.20000e+01	
1.29521   	2.32617e+00		         0.34833	-1.20000e+01	
1.30131   	2.14225e+00		         0.35000	-1.20000e+01	
1.30742   	1.95344e+00		         0.35167	-1.20000e+01	
1.31379   	1.73020e+00		         0.35333	-1.20000e+01	
1.31989   	1.48175e+00		         0.35500	-1.20000e+01	
1.32600   	1.03535e+00		         0.35667	-1.20000e+01	
1.33211   	4.76255e-01		         0.35833	-1.20000e+01	
1.33848   	-2.07495e-01		         0.36000	-1.20000e+01	
1.34459   	-8.76950e-01		         0.36167	-1.20000e+01	
1.35069   	-1.60381e+00		         0.36333	-1.20000e+01	
1.35680   	-2.09659e+00		         0.36500	-1.20000e+01	
1.36317   	-2.27842e+00		         0.36667	-1.20000e+01	
1.36927   	-2.24705e+00		         0.36833	-1.30000e+01	
1.37538   	-2.07164e+00		         0.37000	-1.30000e+01	
1.38149   	-1.72508e+00		         0.37167	-1.30000e+01	
1.38786   	-1.33055e+00		         0.37333	-1.40000e+01	
1.39397   	-1.01257e+00		         0.37500	-1.40000e+01	
1.40007   	-8.28592e-01		         0.37667	-1.50000e+01	
1.40618   	-4.97337e-01		         0.37833	-1.50000e+01	
1.41255   	-3.16969e-01		         0.38000	-1.60000e+01	
1.41866   	-2.35040e-01		         0.38167	-1.60000e+01	
1.42476   	-3.50927e-01		         0.38333	-1.60000e+01	
1.43087   	-5.58148e-01		         0.38500	-1.60000e+01	
1.43724   	-1.01239e+00		         0.38667	-1.60000e+01	
1.44335   	-1.65483e+00		         0.38833	-1.60000e+01	
1.44945   	-2.04362e+00		         0.39000	-1.60000e+01	
1.45555   	-2.50127e+00		         0.39167	-1.60000e+01	
1.46193   	-2.81931e+00		         0.39333	-1.60000e+01	
1.46803   	-3.18937e+00		         0.39500	-1.60000e+01	
1.47415   	-3.29029e+00		         0.39667	-1.60000e+01	
1.48025   	-3.74714e+00		         0.39833	-1.60000e+01	
1.48662   	-3.97880e+00		         0.40000	-1.60000e+01	
1.49273   	-4.16148e+00		         0.40167	-1.60000e+01	
1.49883   	-4.32358e+00		         0.40333	-1.60000e+01	
1.50494   	-4.40409e+00		         0.40500	-1.60000e+01	
1.51131   	-4.39248e+00		         0.40667	-1.60000e+01	
1.51742   	-4.42821e+00		         0.40833	-1.70000e+01	
1.52352   	-4.37845e+00		         0.41000	-1.70000e+01	
1.52963   	-4.30795e+00		         0.41167	-1.70000e+01	
1.53601   	-4.21269e+00		         0.41333	-1.70000e+01	
1.54211   	-4.04738e+00		         0.41500	-1.70000e+01	
1.54821   	-3.80478e+00		         0.41667	-1.70000e+01	
1.55432   	-3.54566e+00		         0.41833	-1.70000e+01	
1.56069   	-3.25059e+00		         0.42000	-1.70000e+01	
1.56680   	-3.00058e+00		         0.42167	-1.70000e+01	
1.57290   	-2.78177e+00		         0.42333	-1.70000e+01	
1.57901   	-2.51426e+00		         0.42500	-1.60000e+01	
1.58538   	-2.33250e+00		         0.42667	-1.60000e+01	
1.59149   	-2.16293e+00		         0.42833	-1.60000e+01	
1.59759   	-2.01344e+00		         0.43000	-1.50000e+01	
1.60370   	-1.87997e+00		         0.43167	-1.50000e+01	
1.61007   	-1.78826e+00		         0.43333	-1.50000e+01	
1.61617   	-1.66548e+00		         0.43500	-1.50000e+01	
1.62228   	-1.48914e+00		         0.43667	-1.40000e+01	
1.62839   	-1.32650e+00		         0.43833	-1.40000e+01	
1.63476   	-1.15570e+00		         0.44000	-1.40000e+01	
1.64087   	-9.95788e-01		         0.44167	-1.40000e+01	
1.64697   	-8.53491e-01		         0.44333	-1.40000e+01	
1.65308   	-7.47849e-01		         0.44500	-1.40000e+01	
1.65945   	-6.38730e-01		         0.44667	-1.40000e+01	
1.66556   	-4.98951e-01		         0.44833	-1.30000e+01	
1.67166   	-3.76898e-01		         0.45000	-1.30000e+01	
1.67777   	-2.79395e-01		         0.45167	-1.30000e+01	
1.68414   	-1.86533e-01		         0.45333	-1.30000e+01	
1.69025   	-1.06079e-01		         0.45500	-1.20000e+01	
1.69635   	-4.64348e-02		         0.45667	-1.20000e+01	
1.70253   	1.12296e-02		         0.45833	-1.20000e+01	
1.70883   	7.65412e-02		         0.46000	-1.10000e+01	
1.71494   	1.16392e-01		         0.46167	-1.10000e+01	
1.72104   	1.29911e-01		         0.46333	-1.10000e+01	
1.72715   	3.94191e-02		         0.46500	-1.00000e+01	
1.73352   	-1.44777e-01		         0.46667	-1.00000e+01	
1.73963   	-5.24834e-01		         0.46833	-9.00000e+00	
1.74573   	-1.13993e+00		         0.47000	-9.00000e+00	
1.75184   	-1.88993e+00		         0.47167	-9.00000e+00	
1.75821   	-2.81952e+00		         0.47333	-8.00000e+00	
1.76432   	-3.94503e+00		         0.47500	-8.00000e+00	
1.77042   	-5.24140e+00		         0.47667	-7.00000e+00	
1.77653   	-6.57923e+00		         0.47833	-7.00000e+00	
1.78290   	-7.94958e+00		         0.48000	-6.00000e+00	
1.78901   	-9.16507e+00		         0.48167	-6.00000e+00	
1.79511   	-9.94826e+00		         0.48333	-6.00000e+00	
1.80122   	-1.01254e+01		         0.48500	-5.00000e+00	
1.80759   	-9.69074e+00		         0.48667	-5.00000e+00	
1.81370   	-8.64491e+00		         0.48833	-5.00000e+00	
1.81980   	-7.12983e+00		         0.49000	-5.00000e+00	
1.82591   	-5.68270e+00		         0.49167	-5.00000e+00	
1.83228   	-4.51672e+00		         0.49333	-4.00000e+00	
1.83839   	-3.60758e+00		         0.49500	-4.00000e+00	
1.84449   	-2.99665e+00		         0.49667	-4.00000e+00	
1.85060   	-2.53133e+00		         0.49833	-4.00000e+00	
1.85697   	-2.09278e+00		         0.50000	-3.00000e+00	
1.86308   	-1.57931e+00		         0.50167	-3.00000e+00	
1.86918   	-1.00312e+00		         0.50333	-3.00000e+00	
1.87529   	-4.92203e-01		         0.50500	-2.00000e+00	
1.88166   	-7.03122e-02		         0.50667	-2.00000e+00	
1.88777   	3.55454e-01		         0.50833	-1.00000e+00	
1.89387   	6.72198e-01		         0.51000	-1.00000e+00	
1.89998   	8.35415e-01		         0.51167	0.00000e+00	
1.90636   	6.69510e-01		         0.51333	0.00000e+00	
1.91246   	9.40401e-02		         0.51500	1.00000e+00	
1.91856   	-2.34442e-01		         0.51667	1.00000e+00	
1.92467   	-3.83589e-01		         0.51833	2.00000e+00	
1.93105   	-6.79763e-01		         0.52000	2.00000e+00	
1.93715   	-7.22967e-01		         0.52167	2.00000e+00	
			         0.52333	3.00000e+00	
			         0.52500	3.00000e+00	
			         0.52667	3.00000e+00	
			         0.52833	3.00000e+00	
			         0.53000	4.00000e+00	
			         0.53167	4.00000e+00	
			         0.53333	4.00000e+00	
			         0.53500	3.00000e+00	
			         0.53667	3.00000e+00	
			         0.53833	3.00000e+00	
			         0.54000	3.00000e+00	
			         0.54167	3.00000e+00	
			         0.54333	2.00000e+00	
			         0.54500	2.00000e+00	
			         0.54667	2.00000e+00	
			         0.54833	2.00000e+00	
			         0.55000	2.00000e+00	
			         0.55167	1.00000e+00	
			         0.55333	1.00000e+00	
			         0.55500	1.00000e+00	
			         0.55667	1.00000e+00	
			         0.55833	1.00000e+00	
			         0.56000	1.00000e+00	
			         0.56167	1.00000e+00	
			         0.56333	1.00000e+00	
			         0.56500	1.00000e+00	
			         0.56667	1.00000e+00	
			         0.56833	1.00000e+00	
			         0.57000	1.00000e+00	
			         0.57167	1.00000e+00	
			         0.57333	0.00000e+00	
			         0.57500	0.00000e+00	
			         0.57667	0.00000e+00	
			         0.57833	0.00000e+00	
			         0.58000	-1.00000e+00	
			         0.58167	-1.00000e+00	
			         0.58333	-1.00000e+00	
			         0.58500	-2.00000e+00	
			         0.58667	-2.00000e+00	
			         0.58833	-2.00000e+00	
			         0.59000	-3.00000e+00	
			         0.59167	-3.00000e+00	
			         0.59333	-4.00000e+00	
			         0.59500	-4.00000e+00	
			         0.59667	-4.00000e+00	
			         0.59833	-4.00000e+00	
			         0.60000	-5.00000e+00	
			         0.60167	-5.00000e+00	
			         0.60333	-5.00000e+00	
			         0.60500	-6.00000e+00	
			         0.60667	-6.00000e+00	
			         0.60833	-6.00000e+00	
			         0.61000	-6.00000e+00	
			         0.61167	-6.00000e+00	
			         0.61333	-7.00000e+00	
			         0.61500	-7.00000e+00	
			         0.61667	-7.00000e+00	
			         0.61833	-7.00000e+00	
			         0.62000	-7.00000e+00	
			         0.62167	-7.00000e+00	
			         0.62333	-6.00000e+00	
			         0.62500	-6.00000e+00	
			         0.62667	-6.00000e+00	
			         0.62833	-6.00000e+00	
			         0.63000	-5.00000e+00	
			         0.63167	-5.00000e+00	
			         0.63333	-5.00000e+00	
			         0.63500	-5.00000e+00	
			         0.63667	-5.00000e+00	
			         0.63833	-5.00000e+00	
			         0.64000	-5.00000e+00	
			         0.64167	-6.00000e+00	
			         0.64333	-6.00000e+00	
			         0.64500	-7.00000e+00	
			         0.64667	-7.00000e+00	
			         0.64833	-7.00000e+00	
			         0.65000	-8.00000e+00	
			         0.65167	-8.00000e+00	
			         0.65333	-8.00000e+00	
			         0.65500	-8.00000e+00	
			         0.65667	-8.00000e+00	
			         0.65833	-8.00000e+00	
			         0.66000	-8.00000e+00	
			         0.66167	-8.00000e+00	
			         0.66333	-8.00000e+00	
			         0.66500	-8.00000e+00	
			         0.66667	-8.00000e+00	
			         0.66833	-7.00000e+00	
			         0.67000	-7.00000e+00	
			         0.67167	-7.00000e+00	
			         0.67333	-7.00000e+00	
			         0.67500	-6.00000e+00	
			         0.67667	-6.00000e+00	
			         0.67833	-6.00000e+00	
			         0.68000	-6.00000e+00	
			         0.68167	-5.00000e+00	
			         0.68333	-5.00000e+00	
			         0.68500	-5.00000e+00	
			         0.68667	-5.00000e+00	
			         0.68833	-4.00000e+00	
			         0.69000	-4.00000e+00	
			         0.69167	-4.00000e+00	
			         0.69333	-4.00000e+00	
			         0.69500	-4.00000e+00	
			         0.69667	-4.00000e+00	
			         0.69833	-4.00000e+00	
			         0.70000	-4.00000e+00	
			         0.70167	-4.00000e+00	
			         0.70333	-4.00000e+00	
			         0.70500	-4.00000e+00	
			         0.70667	-3.00000e+00	
			         0.70833	-3.00000e+00	
			         0.71000	-3.00000e+00	
			         0.71167	-3.00000e+00	
			         0.71333	-3.00000e+00	
			         0.71500	-3.00000e+00	
			         0.71667	-3.00000e+00	
			         0.71833	-2.00000e+00	
			         0.72000	-2.00000e+00	
			         0.72167	-1.00000e+00	
			         0.72333	-1.00000e+00	
			         0.72500	0.00000e+00	
			         0.72667	2.00000e+00	
			         0.72833	3.00000e+00	
			         0.73000	5.00000e+00	
			         0.73167	8.00000e+00	
			         0.73333	1.00000e+01	
			         0.73500	1.30000e+01	
			         0.73667	1.70000e+01	
			         0.73833	2.00000e+01	
			         0.74000	2.30000e+01	
			         0.74167	2.70000e+01	
			         0.74333	3.00000e+01	
			         0.74500	3.30000e+01	
			         0.74667	3.50000e+01	
			         0.74833	3.80000e+01	
			         0.75000	4.00000e+01	
			         0.75167	4.20000e+01	
			         0.75333	4.40000e+01	
			         0.75500	4.60000e+01	
			         0.75667	4.70000e+01	
			         0.75833	4.80000e+01	
			         0.76000	5.00000e+01	
			         0.76167	5.10000e+01	
			         0.76333	5.10000e+01	
			         0.76500	5.20000e+01	
			         0.76667	5.30000e+01	
			         0.76833	5.30000e+01	
			         0.77000	5.30000e+01	
			         0.77167	5.30000e+01	
			         0.77333	5.30000e+01	
			         0.77500	5.30000e+01	
			         0.77667	5.30000e+01	
			         0.77833	5.30000e+01	
			         0.78000	5.30000e+01	
			         0.78167	5.30000e+01	
			         0.78333	5.40000e+01	
			         0.78500	5.40000e+01	
			         0.78667	5.50000e+01	
			         0.78833	5.50000e+01	
			         0.79000	5.50000e+01	
			         0.79167	5.50000e+01	
			         0.79333	5.50000e+01	
			         0.79500	5.40000e+01	
			         0.79667	5.30000e+01	
			         0.79833	5.10000e+01	
			         0.80000	4.90000e+01	
			         0.80167	4.60000e+01	
			         0.80333	4.20000e+01	
			         0.80500	3.80000e+01	
			         0.80667	3.40000e+01	
			         0.80833	2.90000e+01	
			         0.81000	2.40000e+01	
			         0.81167	1.90000e+01	
			         0.81333	1.30000e+01	
			         0.81500	8.00000e+00	
			         0.81667	3.00000e+00	
			         0.81833	-1.00000e+00	
			         0.82000	-6.00000e+00	
			         0.82167	-1.00000e+01	
			         0.82333	-1.40000e+01	
			         0.82500	-1.80000e+01	
			         0.82667	-2.10000e+01	
			         0.82833	-2.40000e+01	
			         0.83000	-2.70000e+01	
			         0.83167	-3.00000e+01	
			         0.83333	-3.30000e+01	
			         0.83500	-3.50000e+01	
			         0.83667	-3.70000e+01	
			         0.83833	-3.90000e+01	
			         0.84000	-4.10000e+01	
			         0.84167	-4.30000e+01	
			         0.84333	-4.50000e+01	
			         0.84500	-4.70000e+01	
			         0.84667	-4.90000e+01	
			         0.84833	-5.10000e+01	
			         0.85000	-5.30000e+01	
			         0.85167	-5.40000e+01	
			         0.85333	-5.60000e+01	
			         0.85500	-5.70000e+01	
			         0.85667	-5.80000e+01	
			         0.85833	-5.90000e+01	
			         0.86000	-5.90000e+01	
			         0.86167	-5.90000e+01	
			         0.86333	-5.90000e+01	
			         0.86500	-5.90000e+01	
			         0.86667	-5.90000e+01	
			         0.86833	-5.80000e+01	
			         0.87000	-5.80000e+01	
			         0.87167	-5.70000e+01	
			         0.87333	-5.60000e+01	
			         0.87500	-5.50000e+01	
			         0.87667	-5.40000e+01	
			         0.87833	-5.30000e+01	
			         0.88000	-5.20000e+01	
			         0.88167	-5.10000e+01	
			         0.88333	-5.00000e+01	
			         0.88500	-4.90000e+01	
			         0.88667	-4.80000e+01	
			         0.88833	-4.60000e+01	
			         0.89000	-4.50000e+01	
			         0.89167	-4.30000e+01	
			         0.89333	-4.20000e+01	
			         0.89500	-4.00000e+01	
			         0.89667	-3.80000e+01	
			         0.89833	-3.70000e+01	
			         0.90000	-3.50000e+01	
			         0.90167	-3.30000e+01	
			         0.90333	-3.20000e+01	
			         0.90500	-3.00000e+01	
			         0.90667	-2.80000e+01	
			         0.90833	-2.60000e+01	
			         0.91000	-2.40000e+01	
			         0.91167	-2.10000e+01	
			         0.91333	-1.80000e+01	
			         0.91500	-1.30000e+01	
			         0.91667	-9.00000e+00	
			         0.91833	-3.00000e+00	
			         0.92000	4.00000e+00	
			         0.92167	1.20000e+01	
			         0.92333	2.20000e+01	
			         0.92500	3.30000e+01	
			         0.92667	4.50000e+01	
			         0.92833	5.80000e+01	
			         0.93000	7.30000e+01	
			         0.93167	8.80000e+01	
			         0.93333	1.03000e+02	
			         0.93500	1.19000e+02	
			         0.93667	1.35000e+02	
			         0.93833	1.50000e+02	
			         0.94000	1.66000e+02	
			         0.94167	1.81000e+02	
			         0.94333	1.96000e+02	
			         0.94500	2.10000e+02	
			         0.94667	2.22000e+02	
			         0.94833	2.32000e+02	
			         0.95000	2.40000e+02	
			         0.95167	2.44000e+02	
			         0.95333	2.43000e+02	
			         0.95500	2.38000e+02	
			         0.95667	2.28000e+02	
			         0.95833	2.12000e+02	
			         0.96000	1.90000e+02	
			         0.96167	1.64000e+02	
			         0.96333	1.32000e+02	
			         0.96500	9.70000e+01	
			         0.96667	5.90000e+01	
			         0.96833	2.00000e+01	
			         0.97000	-1.90000e+01	
			         0.97167	-5.60000e+01	
			         0.97333	-9.00000e+01	
			         0.97500	-1.19000e+02	
			         0.97667	-1.43000e+02	
			         0.97833	-1.62000e+02	
			         0.98000	-1.74000e+02	
			         0.98167	-1.81000e+02	
			         0.98333	-1.83000e+02	
			         0.98500	-1.81000e+02	
			         0.98667	-1.74000e+02	
			         0.98833	-1.65000e+02	
			         0.99000	-1.54000e+02	
			         0.99167	-1.43000e+02	
			         0.99333	-1.30000e+02	
			         0.99500	-1.19000e+02	
			         0.99667	-1.07000e+02	
			         0.99833	-9.70000e+01	
			         1.00000	-8.80000e+01	
			         1.00167	-8.10000e+01	
			         1.00333	-7.40000e+01	
			         1.00500	-6.90000e+01	
			         1.00667	-6.50000e+01	
			         1.00833	-6.10000e+01	
			         1.01000	-5.90000e+01	
			         1.01167	-5.60000e+01	
			         1.01333	-5.50000e+01	
			         1.01500	-5.40000e+01	
			         1.01667	-5.20000e+01	
			         1.01833	-5.20000e+01	
			         1.02000	-5.10000e+01	
			         1.02167	-5.00000e+01	
			         1.02333	-4.90000e+01	
			         1.02500	-4.80000e+01	
			         1.02667	-4.80000e+01	
			         1.02833	-4.70000e+01	
			         1.03000	-4.60000e+01	
			         1.03167	-4.50000e+01	
			         1.03333	-4.40000e+01	
			         1.03500	-4.30000e+01	
			         1.03667	-4.20000e+01	
			         1.03833	-4.10000e+01	
			         1.04000	-4.00000e+01	
			         1.04167	-3.90000e+01	
			         1.04333	-3.80000e+01	
			         1.04500	-3.70000e+01	
			         1.04667	-3.60000e+01	
			         1.04833	-3.50000e+01	
			         1.05000	-3.40000e+01	
			         1.05167	-3.30000e+01	
			         1.05333	-3.30000e+01	
			         1.05500	-3.20000e+01	
			         1.05667	-3.10000e+01	
			         1.05833	-3.00000e+01	
			         1.06000	-2.90000e+01	
			         1.06167	-2.90000e+01	
			         1.06333	-2.80000e+01	
			         1.06500	-2.70000e+01	
			         1.06667	-2.60000e+01	
			         1.06833	-2.60000e+01	
			         1.07000	-2.50000e+01	
			         1.07167	-2.50000e+01	
			         1.07333	-2.40000e+01	
			         1.07500	-2.40000e+01	
			         1.07667	-2.30000e+01	
			         1.07833	-2.30000e+01	
			         1.08000	-2.20000e+01	
			         1.08167	-2.20000e+01	
			         1.08333	-2.10000e+01	
			         1.08500	-2.10000e+01	
			         1.08667	-2.00000e+01	
			         1.08833	-2.00000e+01	
			         1.09000	-2.00000e+01	
			         1.09167	-1.90000e+01	
			         1.09333	-1.90000e+01	
			         1.09500	-1.80000e+01	
			         1.09667	-1.80000e+01	
			         1.09833	-1.70000e+01	
			         1.10000	-1.70000e+01	
			         1.10167	-1.60000e+01	
			         1.10333	-1.60000e+01	
			         1.10500	-1.50000e+01	
			         1.10667	-1.50000e+01	
			         1.10833	-1.40000e+01	
			         1.11000	-1.30000e+01	
			         1.11167	-1.30000e+01	
			         1.11333	-1.20000e+01	
			         1.11500	-1.10000e+01	
			         1.11667	-1.00000e+01	
			         1.11833	-9.00000e+00	
			         1.12000	-9.00000e+00	
			         1.12167	-8.00000e+00	
			         1.12333	-7.00000e+00	
			         1.12500	-7.00000e+00	
			         1.12667	-6.00000e+00	
			         1.12833	-5.00000e+00	
			         1.13000	-4.00000e+00	
			         1.13167	-4.00000e+00	
			         1.13333	-3.00000e+00	
			         1.13500	-2.00000e+00	
			         1.13667	-1.00000e+00	
			         1.13833	0.00000e+00	
			         1.14000	1.00000e+00	
			         1.14167	2.00000e+00	
			         1.14333	3.00000e+00	
			         1.14500	4.00000e+00	
			         1.14667	5.00000e+00	
			         1.14833	7.00000e+00	
			         1.15000	8.00000e+00	
			         1.15167	9.00000e+00	
			         1.15333	1.10000e+01	
			         1.15500	1.20000e+01	
			         1.15667	1.30000e+01	
			         1.15833	1.40000e+01	
			         1.16000	1.60000e+01	
			         1.16167	1.70000e+01	
			         1.16333	1.90000e+01	
			         1.16500	2.00000e+01	
			         1.16667	2.20000e+01	
			         1.16833	2.30000e+01	
			         1.17000	2.50000e+01	
			         1.17167	2.60000e+01	
			         1.17333	2.80000e+01	
			         1.17500	2.90000e+01	
			         1.17667	3.10000e+01	
			         1.17833	3.30000e+01	
			         1.18000	3.40000e+01	
			         1.18167	3.60000e+01	
			         1.18333	3.70000e+01	
			         1.18500	3.90000e+01	
			         1.18667	4.10000e+01	
			         1.18833	4.20000e+01	
			         1.19000	4.40000e+01	
			         1.19167	4.60000e+01	
			         1.19333	4.70000e+01	
			         1.19500	4.90000e+01	
			         1.19667	5.00000e+01	
			         1.19833	5.10000e+01	
			         1.20000	5.20000e+01	
			         1.20167	5.30000e+01	
			         1.20333	5.40000e+01	
			         1.20500	5.50000e+01	
			         1.20667	5.50000e+01	
			         1.20833	5.60000e+01	
			         1.21000	5.60000e+01	
			         1.21167	5.70000e+01	
			         1.21333	5.70000e+01	
			         1.21500	5.70000e+01	
			         1.21667	5.70000e+01	
			         1.21833	5.70000e+01	
			         1.22000	5.70000e+01	
			         1.22167	5.70000e+01	
			         1.22333	5.70000e+01	
			         1.22500	5.60000e+01	
			         1.22667	5.60000e+01	
			         1.22833	5.50000e+01	
			         1.23000	5.40000e+01	
			         1.23167	5.30000e+01	
			         1.23333	5.20000e+01	
			         1.23500	5.00000e+01	
			         1.23667	4.90000e+01	
			         1.23833	4.70000e+01	
			         1.24000	4.50000e+01	
			         1.24167	4.30000e+01	
			         1.24333	4.10000e+01	
			         1.24500	3.90000e+01	
			         1.24667	3.60000e+01	
			         1.24833	3.40000e+01	
			         1.25000	3.20000e+01	
			         1.25167	2.90000e+01	
			         1.25333	2.70000e+01	
			         1.25500	2.50000e+01	
			         1.25667	2.20000e+01	
			         1.25833	2.00000e+01	
			         1.26000	1.80000e+01	
			         1.26167	1.60000e+01	
			         1.26333	1.40000e+01	
			         1.26500	1.20000e+01	
			         1.26667	1.00000e+01	
			         1.26833	9.00000e+00	
			         1.27000	7.00000e+00	
			         1.27167	6.00000e+00	
			         1.27333	4.00000e+00	
			         1.27500	3.00000e+00	
			         1.27667	1.00000e+00	
			         1.27833	0.00000e+00	
			         1.28000	-2.00000e+00	
			         1.28167	-3.00000e+00	
			         1.28333	-5.00000e+00	
			         1.28500	-6.00000e+00	
			         1.28667	-8.00000e+00	
			         1.28833	-9.00000e+00	
			         1.29000	-1.00000e+01	
			         1.29167	-1.20000e+01	
			         1.29333	-1.30000e+01	
			         1.29500	-1.40000e+01	
			         1.29667	-1.50000e+01	
			         1.29833	-1.60000e+01	
			         1.30000	-1.60000e+01	
			         1.30167	-1.70000e+01	
			         1.30333	-1.70000e+01	
			         1.30500	-1.70000e+01	
			         1.30667	-1.70000e+01	
			         1.30833	-1.80000e+01	
			         1.31000	-1.70000e+01	
			         1.31167	-1.70000e+01	
			         1.31333	-1.70000e+01	
			         1.31500	-1.70000e+01	
			         1.31667	-1.60000e+01	
			         1.31833	-1.60000e+01	
			         1.32000	-1.50000e+01	
			         1.32167	-1.50000e+01	
			         1.32333	-1.40000e+01	
			         1.32500	-1.30000e+01	
			         1.32667	-1.30000e+01	
			         1.32833	-1.20000e+01	
			         1.33000	-1.10000e+01	
			         1.33167	-1.10000e+01	
			         1.33333	-1.00000e+01	
			         1.33500	-1.00000e+01	
			         1.33667	-9.00000e+00	
			         1.33833	-9.00000e+00	
			         1.34000	-8.00000e+00	
			         1.34167	-8.00000e+00	
			         1.34333	-8.00000e+00	
			         1.34500	-8.00000e+00	
			         1.34667	-8.00000e+00	
			         1.34833	-9.00000e+00	
			         1.35000	-9.00000e+00	
			         1.35167	-1.00000e+01	
			         1.35333	-1.00000e+01	
			         1.35500	-1.10000e+01	
			         1.35667	-1.20000e+01	
			         1.35833	-1.20000e+01	
			         1.36000	-1.20000e+01	
			         1.36167	-1.30000e+01	
			         1.36333	-1.30000e+01	
			         1.36500	-1.30000e+01	
			         1.36667	-1.30000e+01	
			         1.36833	-1.30000e+01	
			         1.37000	-1.30000e+01	
			         1.37167	-1.30000e+01	
			         1.37333	-1.30000e+01	
			         1.37500	-1.20000e+01	
			         1.37667	-1.20000e+01	
			         1.37833	-1.20000e+01	
			         1.38000	-1.20000e+01	
			         1.38167	-1.20000e+01	
			         1.38333	-1.20000e+01	
			         1.38500	-1.20000e+01	
			         1.38667	-1.20000e+01	
			         1.38833	-1.20000e+01	
			         1.39000	-1.20000e+01	
			         1.39167	-1.20000e+01	
			         1.39333	-1.20000e+01	
			         1.39500	-1.20000e+01	
			         1.39667	-1.20000e+01	
			         1.39833	-1.20000e+01	
			         1.40000	-1.20000e+01	
			         1.40167	-1.20000e+01	
			         1.40333	-1.20000e+01	
			         1.40500	-1.20000e+01	
			         1.40667	-1.20000e+01	
			         1.40833	-1.20000e+01	
			         1.41000	-1.10000e+01	
			         1.41167	-1.10000e+01	
			         1.41333	-1.10000e+01	
			         1.41500	-1.10000e+01	
			         1.41667	-1.00000e+01	
			         1.41833	-1.00000e+01	
			         1.42000	-9.00000e+00	
			         1.42167	-9.00000e+00	
			         1.42333	-9.00000e+00	
			         1.42500	-8.00000e+00	
			         1.42667	-8.00000e+00	
			         1.42833	-8.00000e+00	
			         1.43000	-7.00000e+00	
			         1.43167	-7.00000e+00	
			         1.43333	-7.00000e+00	
			         1.43500	-7.00000e+00	
			         1.43667	-6.00000e+00	
			         1.43833	-6.00000e+00	
			         1.44000	-6.00000e+00	
			         1.44167	-6.00000e+00	
			         1.44333	-6.00000e+00	
			         1.44500	-5.00000e+00	
			         1.44667	-5.00000e+00	
			         1.44833	-5.00000e+00	
			         1.45000	-5.00000e+00	
			         1.45167	-5.00000e+00	
			         1.45333	-4.00000e+00	
			         1.45500	-4.00000e+00	
			         1.45667	-4.00000e+00	
			         1.45833	-4.00000e+00	
			         1.46000	-3.00000e+00	
			         1.46167	-3.00000e+00	
			         1.46333	-3.00000e+00	
			         1.46500	-3.00000e+00	
			         1.46667	-3.00000e+00	
			         1.46833	-3.00000e+00	
			         1.47000	-3.00000e+00	
			         1.47167	-4.00000e+00	
			         1.47333	-4.00000e+00	
			         1.47500	-4.00000e+00	
			         1.47667	-4.00000e+00	
			         1.47833	-5.00000e+00	
			         1.48000	-5.00000e+00	
			         1.48167	-5.00000e+00	
			         1.48333	-6.00000e+00	
			         1.48500	-6.00000e+00	
			         1.48667	-6.00000e+00	
			         1.48833	-6.00000e+00	
			         1.49000	-6.00000e+00	
			         1.49167	-6.00000e+00	
			         1.49333	-6.00000e+00	
			         1.49500	-6.00000e+00	
			         1.49667	-6.00000e+00	
			         1.49833	-6.00000e+00	
			         1.50000	-6.00000e+00	
			         1.50167	-5.00000e+00	
			         1.50333	-5.00000e+00	
			         1.50500	-5.00000e+00	
			         1.50667	-5.00000e+00	
			         1.50833	-5.00000e+00	
			         1.51000	-5.00000e+00	
			         1.51167	-5.00000e+00	
			         1.51333	-5.00000e+00	
			         1.51500	-5.00000e+00	
			         1.51667	-5.00000e+00	
			         1.51833	-5.00000e+00	
			         1.52000	-5.00000e+00	
			         1.52167	-6.00000e+00	
			         1.52333	-6.00000e+00	
			         1.52500	-6.00000e+00	
			         1.52667	-6.00000e+00	
			         1.52833	-7.00000e+00	
			         1.53000	-7.00000e+00	
			         1.53167	-7.00000e+00	
			         1.53333	-7.00000e+00	
			         1.53500	-7.00000e+00	
			         1.53667	-7.00000e+00	
			         1.53833	-6.00000e+00	
			         1.54000	-6.00000e+00	
			         1.54167	-6.00000e+00	
			         1.54333	-6.00000e+00	
			         1.54500	-5.00000e+00	
			         1.54667	-5.00000e+00	
			         1.54833	-5.00000e+00	
			         1.55000	-4.00000e+00	
			         1.55167	-4.00000e+00	
			         1.55333	-4.00000e+00	
			         1.55500	-4.00000e+00	
			         1.55667	-4.00000e+00	
			         1.55833	-4.00000e+00	
			         1.56000	-4.00000e+00	
			         1.56167	-5.00000e+00	
			         1.56333	-5.00000e+00	
			         1.56500	-6.00000e+00	
			         1.56667	-6.00000e+00	
			         1.56833	-7.00000e+00	
			         1.57000	-7.00000e+00	
			         1.57167	-8.00000e+00	
			         1.57333	-8.00000e+00	
			         1.57500	-9.00000e+00	
			         1.57667	-9.00000e+00	
			         1.57833	-9.00000e+00	
			         1.58000	-9.00000e+00	
			         1.58167	-9.00000e+00	
			         1.58333	-9.00000e+00	
			         1.58500	-9.00000e+00	
			         1.58667	-9.00000e+00	
			         1.58833	-9.00000e+00	
			         1.59000	-9.00000e+00	
			         1.59167	-9.00000e+00	
			         1.59333	-9.00000e+00	
			         1.59500	-9.00000e+00	
			         1.59667	-9.00000e+00	
			         1.59833	-8.00000e+00	
			         1.60000	-9.00000e+00	
			         1.60167	-9.00000e+00	
			         1.60333	-9.00000e+00	
			         1.60500	-9.00000e+00	
			         1.60667	-9.00000e+00	
			         1.60833	-9.00000e+00	
			         1.61000	-9.00000e+00	
			         1.61167	-9.00000e+00	
			         1.61333	-9.00000e+00	
			         1.61500	-9.00000e+00	
			         1.61667	-9.00000e+00	
			         1.61833	-9.00000e+00	
			         1.62000	-9.00000e+00	
			         1.62167	-9.00000e+00	
			         1.62333	-9.00000e+00	
			         1.62500	-9.00000e+00	
			         1.62667	-9.00000e+00	
			         1.62833	-9.00000e+00	
			         1.63000	-9.00000e+00	
			         1.63167	-9.00000e+00	
			         1.63333	-9.00000e+00	
			         1.63500	-9.00000e+00	
			         1.63667	-9.00000e+00	
			         1.63833	-9.00000e+00	
			         1.64000	-8.00000e+00	
			         1.64167	-8.00000e+00	
			         1.64333	-8.00000e+00	
			         1.64500	-8.00000e+00	
			         1.64667	-8.00000e+00	
			         1.64833	-9.00000e+00	
			         1.65000	-9.00000e+00	
			         1.65167	-9.00000e+00	
			         1.65333	-9.00000e+00	
			         1.65500	-9.00000e+00	
			         1.65667	-9.00000e+00	
			         1.65833	-8.00000e+00	
			         1.66000	-8.00000e+00	
			         1.66167	-7.00000e+00	
			         1.66333	-5.00000e+00	
			         1.66500	-4.00000e+00	
			         1.66667	-2.00000e+00	
			         1.66833	1.00000e+00	
			         1.67000	3.00000e+00	
			         1.67167	6.00000e+00	
			         1.67333	1.00000e+01	
			         1.67500	1.30000e+01	
			         1.67667	1.70000e+01	
			         1.67833	2.00000e+01	
			         1.68000	2.40000e+01	
			         1.68167	2.70000e+01	
			         1.68333	3.00000e+01	
			         1.68500	3.20000e+01	
			         1.68667	3.50000e+01	
			         1.68833	3.70000e+01	
			         1.69000	3.90000e+01	
			         1.69167	4.10000e+01	
			         1.69333	4.30000e+01	
			         1.69500	4.50000e+01	
			         1.69667	4.60000e+01	
			         1.69833	4.80000e+01	
			         1.70000	4.90000e+01	
			         1.70167	5.00000e+01	
			         1.70333	5.20000e+01	
			         1.70500	5.20000e+01	
			         1.70667	5.30000e+01	
			         1.70833	5.40000e+01	
			         1.71000	5.40000e+01	
			         1.71167	5.50000e+01	
			         1.71333	5.50000e+01	
			         1.71500	5.50000e+01	
			         1.71667	5.50000e+01	
			         1.71833	5.50000e+01	
			         1.72000	5.50000e+01	
			         1.72167	5.60000e+01	
			         1.72333	5.60000e+01	
			         1.72500	5.60000e+01	
			         1.72667	5.60000e+01	
			         1.72833	5.60000e+01	
			         1.73000	5.60000e+01	
			         1.73167	5.50000e+01	
			         1.73333	5.40000e+01	
			         1.73500	5.30000e+01	
			         1.73667	5.10000e+01	
			         1.73833	4.80000e+01	
			         1.74000	4.50000e+01	
			         1.74167	4.10000e+01	
			         1.74333	3.70000e+01	
			         1.74500	3.20000e+01	
			         1.74667	2.70000e+01	
			         1.74833	2.10000e+01	
			         1.75000	1.50000e+01	
			         1.75167	9.00000e+00	
			         1.75333	4.00000e+00	
			         1.75500	-2.00000e+00	
			         1.75667	-7.00000e+00	
			         1.75833	-1.20000e+01	
			         1.76000	-1.70000e+01	
			         1.76167	-2.10000e+01	
			         1.76333	-2.50000e+01	
			         1.76500	-2.80000e+01	
			         1.76667	-3.10000e+01	
			         1.76833	-3.40000e+01	
			         1.77000	-3.60000e+01	
			         1.77167	-3.90000e+01	
			         1.77333	-4.10000e+01	
			         1.77500	-4.30000e+01	
			         1.77667	-4.50000e+01	
			         1.77833	-4.70000e+01	
			         1.78000	-4.90000e+01	
			         1.78167	-5.10000e+01	
			         1.78333	-5.20000e+01	
			         1.78500	-5.40000e+01	
			         1.78667	-5.60000e+01	
			         1.78833	-5.80000e+01	
			         1.79000	-5.90000e+01	
			         1.79167	-6.10000e+01	
			         1.79333	-6.20000e+01	
			         1.79500	-6.30000e+01	
			         1.79667	-6.40000e+01	
			         1.79833	-6.50000e+01	
			         1.80000	-6.50000e+01	
			         1.80167	-6.50000e+01	
			         1.80333	-6.60000e+01	
			         1.80500	-6.50000e+01	
			         1.80667	-6.50000e+01	
			         1.80833	-6.50000e+01	
			         1.81000	-6.40000e+01	
			         1.81167	-6.40000e+01	
			         1.81333	-6.30000e+01	
			         1.81500	-6.20000e+01	
			         1.81667	-6.10000e+01	
			         1.81833	-6.00000e+01	
			         1.82000	-5.90000e+01	
			         1.82167	-5.70000e+01	
			         1.82333	-5.60000e+01	
			         1.82500	-5.50000e+01	
			         1.82667	-5.30000e+01	
			         1.82833	-5.20000e+01	
			         1.83000	-5.00000e+01	
			         1.83167	-4.80000e+01	
			         1.83333	-4.70000e+01	
			         1.83500	-4.50000e+01	
			         1.83667	-4.40000e+01	
			         1.83833	-4.20000e+01	
			         1.84000	-4.10000e+01	
			         1.84167	-4.00000e+01	
			         1.84333	-3.80000e+01	
			         1.84500	-3.70000e+01	
			         1.84667	-3.50000e+01	
			         1.84833	-3.30000e+01	
			         1.85000	-3.10000e+01	
			         1.85167	-2.80000e+01	
			         1.85333	-2.40000e+01	
			         1.85500	-1.90000e+01	
			         1.85667	-1.30000e+01	
			         1.85833	-7.00000e+00	
			         1.86000	1.00000e+00	
			         1.86167	1.00000e+01	
			         1.86333	2.10000e+01	
			         1.86500	3.30000e+01	
			         1.86667	4.60000e+01	
			         1.86833	6.00000e+01	
			         1.87000	7.50000e+01	
			         1.87167	9.00000e+01	
			         1.87333	1.05000e+02	
			         1.87500	1.21000e+02	
			         1.87667	1.36000e+02	
			         1.87833	1.52000e+02	
			         1.88000	1.68000e+02	
			         1.88167	1.83000e+02	
			         1.88333	1.98000e+02	
			         1.88500	2.11000e+02	
			         1.88667	2.23000e+02	
			         1.88833	2.32000e+02	
			         1.89000	2.37000e+02	
			         1.89167	2.39000e+02	
			         1.89333	2.36000e+02	
			         1.89500	2.28000e+02	
			         1.89667	2.14000e+02	
			         1.89833	1.95000e+02	
			         1.90000	1.71000e+02	
			         1.90167	1.41000e+02	
			         1.90333	1.07000e+02	
			         1.90500	7.10000e+01	
			         1.90667	3.20000e+01	
			         1.90833	-6.00000e+00	
			         1.91000	-4.40000e+01	
			         1.91167	-7.90000e+01	
			         1.91333	-1.09000e+02	
			         1.91500	-1.35000e+02	
			         1.91667	-1.56000e+02	
			         1.91833	-1.71000e+02	
			         1.92000	-1.80000e+02	
			         1.92167	-1.84000e+02	
			         1.92333	-1.83000e+02	
			         1.92500	-1.79000e+02	
			         1.92667	-1.72000e+02	
			         1.92833	-1.62000e+02	
			         1.93000	-1.51000e+02	
			         1.93167	-1.39000e+02	
			         1.93333	-1.27000e+02	
			         1.93500	-1.16000e+02	
			         1.93667	-1.05000e+02	
			         1.93833	-9.60000e+01	
			         1.94000	-8.70000e+01	
			         1.94167	-8.00000e+01	
			         1.94333	-7.40000e+01	
			         1.94500	-6.90000e+01	
			         1.94667	-6.40000e+01	
			         1.94833	-6.00000e+01	
			         1.95000	-5.70000e+01	
			         1.95167	-5.50000e+01	
			         1.95333	-5.30000e+01	
			         1.95500	-5.10000e+01	
			         1.95667	-4.90000e+01	
			         1.95833	-4.80000e+01	
			         1.96000	-4.70000e+01	
			         1.96167	-4.60000e+01	
			         1.96333	-4.50000e+01	
			         1.96500	-4.40000e+01	
			         1.96667	-4.30000e+01	
			         1.96833	-4.30000e+01	
			         1.97000	-4.20000e+01	
			         1.97167	-4.10000e+01	
			         1.97333	-4.00000e+01	
			         1.97500	-3.90000e+01	
			         1.97667	-3.80000e+01	
