Velocity (TVI), in cm/s

Time (s) :	Trace 1 : 		Ecg : 		
0.01219   	-3.76472e+00		         0.00000	-3.10000e+01	
0.01829   	-3.37527e+00		         0.00167	-2.40000e+01	
0.02440   	-3.26469e+00		         0.00333	-1.40000e+01	
0.03077   	-2.10258e+00		         0.00500	-1.00000e+00	
0.03688   	-1.05632e+00		         0.00667	1.70000e+01	
0.04298   	1.74953e-01		         0.00833	3.90000e+01	
0.04909   	1.39028e+00		         0.01000	6.80000e+01	
0.05547   	1.94774e+00		         0.01167	1.04000e+02	
0.06157   	1.45759e+00		         0.01333	1.46000e+02	
0.06767   	6.70626e-01		         0.01500	1.95000e+02	
0.07378   	1.09634e-01		         0.01667	2.50000e+02	
0.08015   	-6.02190e-01		         0.01833	3.11000e+02	
0.08626   	-2.27718e-01		         0.02000	3.76000e+02	
0.09236   	3.75103e-01		         0.02167	4.45000e+02	
0.09847   	1.69850e+00		         0.02333	5.16000e+02	
0.10484   	2.71526e+00		         0.02500	5.86000e+02	
0.11095   	3.66140e+00		         0.02667	6.54000e+02	
0.11705   	4.33317e+00		         0.02833	7.17000e+02	
0.12316   	4.92994e+00		         0.03000	7.73000e+02	
0.12953   	5.16294e+00		         0.03167	8.19000e+02	
0.13564   	5.13388e+00		         0.03333	8.53000e+02	
0.14175   	5.11307e+00		         0.03500	8.72000e+02	
0.14785   	5.06295e+00		         0.03667	8.76000e+02	
0.15422   	5.03293e+00		         0.03833	8.62000e+02	
0.16033   	4.94524e+00		         0.04000	8.32000e+02	
0.16643   	4.96821e+00		         0.04167	7.84000e+02	
0.17254   	4.94568e+00		         0.04333	7.21000e+02	
0.17891   	4.94445e+00		         0.04500	6.45000e+02	
0.18502   	4.95143e+00		         0.04667	5.59000e+02	
0.19112   	4.94982e+00		         0.04833	4.64000e+02	
0.19723   	4.88985e+00		         0.05000	3.65000e+02	
0.20374   	4.89060e+00		         0.05167	2.65000e+02	
0.20971   	4.85260e+00		         0.05333	1.66000e+02	
0.21581   	4.78803e+00		         0.05500	7.10000e+01	
0.22192   	4.72623e+00		         0.05667	-1.60000e+01	
0.22829   	4.67179e+00		         0.05833	-9.40000e+01	
0.23440   	4.60680e+00		         0.06000	-1.62000e+02	
0.24050   	4.52597e+00		         0.06167	-2.18000e+02	
0.24661   	4.44007e+00		         0.06333	-2.63000e+02	
0.25298   	4.30484e+00		         0.06500	-2.98000e+02	
0.25909   	4.14509e+00		         0.06667	-3.22000e+02	
0.26519   	3.95304e+00		         0.06833	-3.39000e+02	
0.27130   	3.75836e+00		         0.07000	-3.48000e+02	
0.27767   	3.52391e+00		         0.07167	-3.51000e+02	
0.28378   	3.40170e+00		         0.07333	-3.50000e+02	
0.28988   	3.17428e+00		         0.07500	-3.46000e+02	
0.29599   	2.99996e+00		         0.07667	-3.39000e+02	
0.30236   	2.83695e+00		         0.07833	-3.30000e+02	
0.30847   	2.71191e+00		         0.08000	-3.20000e+02	
0.31457   	2.47964e+00		         0.08167	-3.10000e+02	
0.32068   	2.34367e+00		         0.08333	-3.00000e+02	
0.32706   	2.25596e+00		         0.08500	-2.90000e+02	
0.33316   	2.14232e+00		         0.08667	-2.80000e+02	
0.33926   	2.02168e+00		         0.08833	-2.72000e+02	
0.34537   	1.93522e+00		         0.09000	-2.64000e+02	
0.35174   	1.87657e+00		         0.09167	-2.56000e+02	
0.35785   	1.71056e+00		         0.09333	-2.49000e+02	
0.36395   	1.52927e+00		         0.09500	-2.43000e+02	
0.37006   	1.32253e+00		         0.09667	-2.37000e+02	
0.37643   	1.07612e+00		         0.09833	-2.32000e+02	
0.38254   	7.28650e-01		         0.10000	-2.27000e+02	
0.38864   	3.29064e-01		         0.10167	-2.22000e+02	
0.39475   	-2.12295e-01		         0.10333	-2.17000e+02	
0.40112   	-8.50276e-01		         0.10500	-2.13000e+02	
0.40723   	-1.42713e+00		         0.10667	-2.08000e+02	
0.41333   	-1.56787e+00		         0.10833	-2.04000e+02	
0.41968   	-1.45668e+00		         0.11000	-2.00000e+02	
0.42582   	-1.11853e+00		         0.11167	-1.96000e+02	
0.43192   	-5.14760e-01		         0.11333	-1.92000e+02	
0.43802   	1.55578e-01		         0.11500	-1.88000e+02	
0.44413   	6.39681e-01		         0.11667	-1.83000e+02	
0.45050   	9.42266e-01		         0.11833	-1.79000e+02	
0.45661   	1.31955e+00		         0.12000	-1.75000e+02	
0.46271   	1.59601e+00		         0.12167	-1.71000e+02	
0.46882   	1.78679e+00		         0.12333	-1.67000e+02	
0.47519   	1.85655e+00		         0.12500	-1.62000e+02	
0.48130   	1.69909e+00		         0.12667	-1.58000e+02	
0.48740   	8.66754e-01		         0.12833	-1.54000e+02	
0.49351   	7.86598e-02		         0.13000	-1.50000e+02	
0.49988   	-9.25774e-01		         0.13167	-1.46000e+02	
0.50599   	-1.97663e+00		         0.13333	-1.42000e+02	
0.51209   	-3.14683e+00		         0.13500	-1.38000e+02	
0.51820   	-3.41221e+00		         0.13667	-1.34000e+02	
0.52458   	-3.90895e+00		         0.13833	-1.30000e+02	
0.53068   	-4.06255e+00		         0.14000	-1.27000e+02	
0.53678   	-4.25579e+00		         0.14167	-1.23000e+02	
0.54289   	-4.12212e+00		         0.14333	-1.20000e+02	
0.54926   	-3.98224e+00		         0.14500	-1.17000e+02	
0.55537   	-3.98484e+00		         0.14667	-1.13000e+02	
0.56147   	-3.97828e+00		         0.14833	-1.10000e+02	
0.56757   	-3.86877e+00		         0.15000	-1.07000e+02	
0.57396   	-3.55238e+00		         0.15167	-1.03000e+02	
0.58006   	-3.72117e+00		         0.15333	-1.00000e+02	
0.58648   	-3.42435e+00		         0.15500	-9.70000e+01	
0.59227   	-3.16355e+00		         0.15667	-9.40000e+01	
0.59864   	-2.94375e+00		         0.15833	-9.10000e+01	
0.60475   	-2.81591e+00		         0.16000	-8.80000e+01	
0.61085   	-2.49085e+00		         0.16167	-8.50000e+01	
0.61696   	-2.28435e+00		         0.16333	-8.20000e+01	
0.62334   	-2.10054e+00		         0.16500	-7.90000e+01	
0.62944   	-1.90943e+00		         0.16667	-7.60000e+01	
0.63554   	-1.76964e+00		         0.16833	-7.30000e+01	
0.64165   	-1.63704e+00		         0.17000	-7.00000e+01	
0.64802   	-1.50995e+00		         0.17167	-6.70000e+01	
0.65413   	-1.45139e+00		         0.17333	-6.40000e+01	
0.66024   	-1.35142e+00		         0.17500	-6.10000e+01	
0.66634   	-1.25026e+00		         0.17667	-5.80000e+01	
0.67272   	-1.18614e+00		         0.17833	-5.50000e+01	
0.67882   	-1.16818e+00		         0.18000	-5.10000e+01	
0.68492   	-1.18560e+00		         0.18167	-4.80000e+01	
0.69103   	-1.24764e+00		         0.18333	-4.50000e+01	
0.69740   	-1.35289e+00		         0.18500	-4.20000e+01	
0.70351   	-1.55644e+00		         0.18667	-3.90000e+01	
0.70961   	-1.85849e+00		         0.18833	-3.60000e+01	
0.71572   	-2.49184e+00		         0.19000	-3.30000e+01	
0.72209   	-3.37944e+00		         0.19167	-3.00000e+01	
0.72820   	-4.38683e+00		         0.19333	-2.70000e+01	
0.73430   	-5.54870e+00		         0.19500	-2.30000e+01	
0.74040   	-6.64051e+00		         0.19667	-2.00000e+01	
0.74679   	-7.36156e+00		         0.19833	-1.60000e+01	
0.75289   	-7.75200e+00		         0.20000	-1.30000e+01	
0.75900   	-8.05680e+00		         0.20167	-9.00000e+00	
0.76510   	-7.99201e+00		         0.20333	-5.00000e+00	
0.77147   	-7.80406e+00		         0.20500	-1.00000e+00	
0.77758   	-7.47108e+00		         0.20667	2.00000e+00	
0.78368   	-7.00108e+00		         0.20833	6.00000e+00	
0.78979   	-6.35023e+00		         0.21000	1.00000e+01	
0.79617   	-5.73636e+00		         0.21167	1.40000e+01	
0.80227   	-5.02566e+00		         0.21333	1.80000e+01	
0.80838   	-4.27488e+00		         0.21500	2.20000e+01	
0.81448   	-3.67759e+00		         0.21667	2.60000e+01	
0.82086   	-3.01824e+00		         0.21833	3.00000e+01	
0.82696   	-2.03345e+00		         0.22000	3.50000e+01	
0.83306   	-1.01083e+00		         0.22167	3.90000e+01	
0.83917   	6.97906e-02		         0.22333	4.40000e+01	
0.84555   	1.15520e+00		         0.22500	4.80000e+01	
0.85166   	1.57481e+00		         0.22667	5.30000e+01	
0.85776   	1.27143e+00		         0.22833	5.80000e+01	
0.86386   	6.60157e-01		         0.23000	6.30000e+01	
0.87024   	1.11792e-01		         0.23167	6.80000e+01	
0.87634   	-2.66818e-01		         0.23333	7.30000e+01	
0.88244   	-9.73834e-02		         0.23500	7.80000e+01	
0.88855   	5.72259e-01		         0.23667	8.30000e+01	
0.89493   	1.67522e+00		         0.23833	8.90000e+01	
0.90103   	2.66190e+00		         0.24000	9.40000e+01	
0.90713   	3.59764e+00		         0.24167	9.90000e+01	
0.91324   	4.44601e+00		         0.24333	1.04000e+02	
0.91962   	5.11014e+00		         0.24500	1.08000e+02	
0.92572   	5.47583e+00		         0.24667	1.13000e+02	
0.93182   	5.58315e+00		         0.24833	1.17000e+02	
0.93793   	5.51344e+00		         0.25000	1.21000e+02	
0.94431   	5.40081e+00		         0.25167	1.25000e+02	
0.95040   	5.40502e+00		         0.25333	1.28000e+02	
0.95652   	5.29216e+00		         0.25500	1.32000e+02	
0.96262   	5.27515e+00		         0.25667	1.35000e+02	
0.96900   	5.21255e+00		         0.25833	1.38000e+02	
0.97510   	5.18015e+00		         0.26000	1.40000e+02	
0.98120   	5.10106e+00		         0.26167	1.43000e+02	
0.98731   	5.08042e+00		         0.26333	1.45000e+02	
0.99369   	5.02707e+00		         0.26500	1.46000e+02	
0.99979   	5.00627e+00		         0.26667	1.48000e+02	
1.00590   	5.02118e+00		         0.26833	1.49000e+02	
1.01200   	4.89519e+00		         0.27000	1.50000e+02	
1.01838   	4.81385e+00		         0.27167	1.51000e+02	
1.02448   	4.76324e+00		         0.27333	1.51000e+02	
1.03059   	4.72753e+00		         0.27500	1.51000e+02	
1.03669   	4.61560e+00		         0.27667	1.51000e+02	
1.04307   	4.53790e+00		         0.27833	1.51000e+02	
1.04917   	4.45363e+00		         0.28000	1.50000e+02	
1.05528   	4.30361e+00		         0.28167	1.49000e+02	
1.06138   	4.12202e+00		         0.28333	1.47000e+02	
1.06776   	4.02037e+00		         0.28500	1.46000e+02	
1.07386   	3.91308e+00		         0.28667	1.44000e+02	
1.07997   	3.75801e+00		         0.28833	1.42000e+02	
1.08607   	3.58308e+00		         0.29000	1.39000e+02	
1.09245   	3.38801e+00		         0.29167	1.37000e+02	
1.09855   	3.17833e+00		         0.29333	1.34000e+02	
1.10465   	3.02537e+00		         0.29500	1.31000e+02	
1.11076   	2.83744e+00		         0.29667	1.27000e+02	
1.11714   	2.71651e+00		         0.29833	1.23000e+02	
1.12324   	2.64169e+00		         0.30000	1.19000e+02	
1.12935   	2.54556e+00		         0.30167	1.15000e+02	
1.13545   	2.37112e+00		         0.30333	1.09000e+02	
1.14183   	2.27713e+00		         0.30500	1.04000e+02	
1.14793   	2.10191e+00		         0.30667	9.80000e+01	
1.15404   	1.92764e+00		         0.30833	9.10000e+01	
1.16014   	1.67661e+00		         0.31000	8.40000e+01	
1.16654   	1.43549e+00		         0.31167	7.60000e+01	
1.17262   	1.13798e+00		         0.31333	6.80000e+01	
1.17873   	7.79094e-01		         0.31500	6.00000e+01	
1.18483   	2.83933e-01		         0.31667	5.10000e+01	
1.19121   	-4.17892e-01		         0.31833	4.20000e+01	
1.19731   	-1.11670e+00		         0.32000	3.40000e+01	
1.20342   	-1.64813e+00		         0.32167	2.50000e+01	
1.20952   	-1.76990e+00		         0.32333	1.60000e+01	
1.21590   	-1.74204e+00		         0.32500	7.00000e+00	
1.22200   	-1.22720e+00		         0.32667	-2.00000e+00	
1.22811   	-5.75531e-01		         0.32833	-1.00000e+01	
1.23421   	9.40127e-02		         0.33000	-1.90000e+01	
1.24059   	4.48276e-01		         0.33167	-2.70000e+01	
1.24669   	9.74202e-01		         0.33333	-3.50000e+01	
1.25280   	1.29380e+00		         0.33500	-4.30000e+01	
1.25890   	1.72643e+00		         0.33667	-5.00000e+01	
1.26528   	1.70703e+00		         0.33833	-5.70000e+01	
1.27138   	1.43459e+00		         0.34000	-6.40000e+01	
1.27749   	8.82747e-01		         0.34167	-7.00000e+01	
1.28359   	-3.91590e-01		         0.34333	-7.60000e+01	
1.28997   	-1.87310e+00		         0.34500	-8.20000e+01	
1.29607   	-2.87603e+00		         0.34667	-8.70000e+01	
1.30218   	-3.65490e+00		         0.34833	-9.20000e+01	
1.30828   	-4.33547e+00		         0.35000	-9.60000e+01	
1.31466   	-4.30554e+00		         0.35167	-1.01000e+02	
1.32076   	-4.61393e+00		         0.35333	-1.04000e+02	
1.32687   	-5.04627e+00		         0.35500	-1.08000e+02	
1.33297   	-5.38013e+00		         0.35667	-1.11000e+02	
1.33935   	-5.39278e+00		         0.35833	-1.13000e+02	
1.34545   	-5.60884e+00		         0.36000	-1.15000e+02	
1.35155   	-5.10359e+00		         0.36167	-1.17000e+02	
1.35766   	-4.68619e+00		         0.36333	-1.18000e+02	
1.36404   	-4.08588e+00		         0.36500	-1.18000e+02	
1.37014   	-4.04128e+00		         0.36667	-1.19000e+02	
1.37625   	-3.62745e+00		         0.36833	-1.19000e+02	
1.38253   	-3.45735e+00		         0.37000	-1.19000e+02	
1.38873   	-3.28532e+00		         0.37167	-1.18000e+02	
1.39483   	-3.32919e+00		         0.37333	-1.18000e+02	
1.40094   	-3.01875e+00		         0.37500	-1.17000e+02	
1.40704   	-2.81135e+00		         0.37667	-1.16000e+02	
1.41342   	-2.66181e+00		         0.37833	-1.15000e+02	
1.41952   	-2.42491e+00		         0.38000	-1.14000e+02	
1.42563   	-2.19948e+00		         0.38167	-1.13000e+02	
1.43173   	-2.04685e+00		         0.38333	-1.12000e+02	
1.43811   	-1.87132e+00		         0.38500	-1.12000e+02	
1.44421   	-1.76737e+00		         0.38667	-1.10000e+02	
1.45032   	-1.64626e+00		         0.38833	-1.09000e+02	
1.45642   	-1.54744e+00		         0.39000	-1.08000e+02	
1.46280   	-1.44545e+00		         0.39167	-1.06000e+02	
1.46890   	-1.30478e+00		         0.39333	-1.04000e+02	
1.47501   	-1.16251e+00		         0.39500	-1.02000e+02	
1.48111   	-1.10557e+00		         0.39667	-1.00000e+02	
1.48749   	-9.96564e-01		         0.39833	-9.80000e+01	
1.49359   	-9.67695e-01		         0.40000	-9.60000e+01	
1.49970   	-1.06543e+00		         0.40167	-9.40000e+01	
1.50580   	-1.25544e+00		         0.40333	-9.10000e+01	
1.51218   	-1.68482e+00		         0.40500	-8.90000e+01	
1.51828   	-2.45371e+00		         0.40667	-8.70000e+01	
1.52439   	-3.43243e+00		         0.40833	-8.50000e+01	
1.53049   	-4.54555e+00		         0.41000	-8.30000e+01	
1.53687   	-5.76979e+00		         0.41167	-8.10000e+01	
1.54297   	-6.77067e+00		         0.41333	-7.90000e+01	
1.54908   	-7.40386e+00		         0.41500	-7.70000e+01	
1.55518   	-7.72037e+00		         0.41667	-7.60000e+01	
1.56156   	-7.85507e+00		         0.41833	-7.40000e+01	
1.56766   	-7.73259e+00		         0.42000	-7.30000e+01	
1.57377   	-7.49960e+00		         0.42167	-7.10000e+01	
1.57987   	-7.19363e+00		         0.42333	-7.00000e+01	
1.58625   	-6.74573e+00		         0.42500	-6.90000e+01	
1.59235   	-6.26956e+00		         0.42667	-6.70000e+01	
1.59846   	-5.68167e+00		         0.42833	-6.60000e+01	
1.60456   	-5.04509e+00		         0.43000	-6.50000e+01	
1.61094   	-4.39167e+00		         0.43167	-6.40000e+01	
1.61704   	-3.84790e+00		         0.43333	-6.30000e+01	
1.62315   	-3.33285e+00		         0.43500	-6.20000e+01	
1.62925   	-2.22110e+00		         0.43667	-6.10000e+01	
1.63563   	-1.12517e+00		         0.43833	-6.00000e+01	
1.64173   	3.00089e-01		         0.44000	-5.80000e+01	
1.64784   	1.44761e+00		         0.44167	-5.70000e+01	
1.65394   	2.02288e+00		         0.44333	-5.50000e+01	
1.66032   	1.39571e+00		         0.44500	-5.40000e+01	
1.66643   	4.65240e-01		         0.44667	-5.20000e+01	
1.67253   	-4.05735e-01		         0.44833	-5.10000e+01	
1.67863   	-8.86538e-01		         0.45000	-4.90000e+01	
1.68501   	-7.47635e-01		         0.45167	-4.70000e+01	
1.69112   	9.10986e-02		         0.45333	-4.50000e+01	
1.69722   	1.50575e+00		         0.45500	-4.30000e+01	
1.70332   	2.62091e+00		         0.45667	-4.10000e+01	
1.70970   	3.59667e+00		         0.45833	-4.00000e+01	
1.71580   	4.48463e+00		         0.46000	-3.80000e+01	
1.72191   	5.10183e+00		         0.46167	-3.70000e+01	
1.72801   	5.43002e+00		         0.46333	-3.50000e+01	
1.73439   	5.49593e+00		         0.46500	-3.40000e+01	
1.74050   	5.43588e+00		         0.46667	-3.20000e+01	
1.74660   	5.43706e+00		         0.46833	-3.10000e+01	
1.75270   	5.44204e+00		         0.47000	-3.00000e+01	
1.75908   	5.32598e+00		         0.47167	-2.90000e+01	
1.76518   	5.20657e+00		         0.47333	-2.90000e+01	
1.77129   	5.21898e+00		         0.47500	-2.80000e+01	
1.77739   	5.16827e+00		         0.47667	-2.80000e+01	
1.78377   	5.13268e+00		         0.47833	-2.70000e+01	
1.78987   	5.12684e+00		         0.48000	-2.60000e+01	
1.79598   	5.19029e+00		         0.48167	-2.60000e+01	
1.80208   	5.14003e+00		         0.48333	-2.50000e+01	
1.80846   	5.10387e+00		         0.48500	-2.50000e+01	
1.81456   	5.02120e+00		         0.48667	-2.40000e+01	
1.82067   	5.01429e+00		         0.48833	-2.30000e+01	
1.82677   	4.94933e+00		         0.49000	-2.20000e+01	
1.83315   	4.83405e+00		         0.49167	-2.10000e+01	
1.83925   	4.73722e+00		         0.49333	-2.00000e+01	
1.84536   	4.69553e+00		         0.49500	-1.90000e+01	
1.85147   	4.56472e+00		         0.49667	-1.80000e+01	
1.85784   	4.40047e+00		         0.49833	-1.70000e+01	
1.86398   	4.30033e+00		         0.50000	-1.60000e+01	
1.87005   	4.19503e+00		         0.50167	-1.60000e+01	
1.87615   	3.98081e+00		         0.50333	-1.50000e+01	
1.88253   	3.76004e+00		         0.50500	-1.40000e+01	
1.88863   	3.56086e+00		         0.50667	-1.40000e+01	
1.89474   	3.30627e+00		         0.50833	-1.40000e+01	
1.90084   	3.08001e+00		         0.51000	-1.40000e+01	
1.90722   	2.94645e+00		         0.51167	-1.40000e+01	
1.91332   	2.77662e+00		         0.51333	-1.40000e+01	
1.91943   	2.59189e+00		         0.51500	-1.40000e+01	
1.92554   	2.51046e+00		         0.51667	-1.50000e+01	
1.93191   	2.36086e+00		         0.51833	-1.50000e+01	
1.93801   	2.20072e+00		         0.52000	-1.50000e+01	
1.94412   	2.07235e+00		         0.52167	-1.60000e+01	
1.95022   	1.95714e+00		         0.52333	-1.60000e+01	
1.95660   	1.83543e+00		         0.52500	-1.60000e+01	
1.96270   	1.63611e+00		         0.52667	-1.70000e+01	
1.96881   	1.36522e+00		         0.52833	-1.70000e+01	
1.97492   	1.06869e+00		         0.53000	-1.70000e+01	
1.98129   	6.72022e-01		         0.53167	-1.70000e+01	
1.98740   	4.43429e-02		         0.53333	-1.70000e+01	
1.99350   	-5.93904e-01		         0.53500	-1.70000e+01	
1.99960   	-1.20711e+00		         0.53667	-1.70000e+01	
2.00598   	-1.65158e+00		         0.53833	-1.70000e+01	
2.01208   	-1.63391e+00		         0.54000	-1.80000e+01	
2.01819   	-1.28788e+00		         0.54167	-1.80000e+01	
2.02429   	-7.06158e-01		         0.54333	-1.80000e+01	
2.03067   	4.71054e-02		         0.54500	-1.80000e+01	
2.03677   	7.91859e-01		         0.54667	-1.80000e+01	
2.04288   	1.18523e+00		         0.54833	-1.90000e+01	
2.04898   	1.63646e+00		         0.55000	-1.90000e+01	
2.05536   	1.87565e+00		         0.55167	-2.00000e+01	
2.06146   	2.05624e+00		         0.55333	-2.10000e+01	
2.06757   	1.85724e+00		         0.55500	-2.10000e+01	
2.07367   	1.56868e+00		         0.55667	-2.20000e+01	
2.08005   	4.05428e-01		         0.55833	-2.30000e+01	
2.08616   	-8.87617e-01		         0.56000	-2.40000e+01	
2.09226   	-2.26759e+00		         0.56167	-2.50000e+01	
2.09836   	-3.15311e+00		         0.56333	-2.60000e+01	
2.10474   	-4.01404e+00		         0.56500	-2.70000e+01	
2.11084   	-4.48592e+00		         0.56667	-2.80000e+01	
2.11695   	-4.66511e+00		         0.56833	-2.90000e+01	
2.12305   	-4.79042e+00		         0.57000	-3.00000e+01	
2.12956   	-5.28929e+00		         0.57167	-3.10000e+01	
2.13554   	-5.60942e+00		         0.57333	-3.10000e+01	
2.14164   	-5.27947e+00		         0.57500	-3.10000e+01	
2.14774   	-5.55441e+00		         0.57667	-3.10000e+01	
2.15412   	-5.61251e+00		         0.57833	-3.00000e+01	
2.16022   	-5.24237e+00		         0.58000	-3.00000e+01	
2.16633   	-4.94998e+00		         0.58167	-3.00000e+01	
2.17243   	-4.92972e+00		         0.58333	-2.90000e+01	
2.17881   	-4.35898e+00		         0.58500	-2.90000e+01	
2.18492   	-3.91853e+00		         0.58667	-2.80000e+01	
2.19102   	-3.61292e+00		         0.58833	-2.80000e+01	
2.19712   	-3.32565e+00		         0.59000	-2.70000e+01	
2.20351   	-2.97458e+00		         0.59167	-2.70000e+01	
2.20961   	-2.63611e+00		         0.59333	-2.70000e+01	
2.21571   	-2.33640e+00		         0.59500	-2.70000e+01	
2.22182   	-2.16279e+00		         0.59667	-2.70000e+01	
2.22819   	-1.93957e+00		         0.59833	-2.70000e+01	
2.23430   	-1.81285e+00		         0.60000	-2.70000e+01	
2.24040   	-1.64238e+00		         0.60167	-2.70000e+01	
2.24650   	-1.51545e+00		         0.60333	-2.80000e+01	
2.25288   	-1.43640e+00		         0.60500	-2.80000e+01	
2.25899   	-1.34191e+00		         0.60667	-2.70000e+01	
2.26509   	-1.26017e+00		         0.60833	-2.70000e+01	
2.27120   	-1.18803e+00		         0.61000	-2.70000e+01	
2.27757   	-1.11684e+00		         0.61167	-2.70000e+01	
2.28368   	-1.02077e+00		         0.61333	-2.70000e+01	
2.28978   	-1.02215e+00		         0.61500	-2.60000e+01	
2.29588   	-1.04751e+00		         0.61667	-2.60000e+01	
2.30226   	-1.09590e+00		         0.61833	-2.60000e+01	
2.30837   	-1.25397e+00		         0.62000	-2.50000e+01	
2.31447   	-1.67419e+00		         0.62167	-2.40000e+01	
2.32058   	-2.29129e+00		         0.62333	-2.40000e+01	
2.32695   	-3.23140e+00		         0.62500	-2.30000e+01	
2.33306   	-4.45079e+00		         0.62667	-2.20000e+01	
2.33916   	-5.72862e+00		         0.62833	-2.20000e+01	
2.34559   	-6.77170e+00		         0.63000	-2.10000e+01	
2.35164   	-7.58292e+00		         0.63167	-2.10000e+01	
2.35775   	-7.95444e+00		         0.63333	-2.00000e+01	
2.36385   	-8.00723e+00		         0.63500	-1.90000e+01	
2.36996   	-7.89508e+00		         0.63667	-1.90000e+01	
2.37633   	-7.59782e+00		         0.63833	-1.80000e+01	
2.38244   	-7.13276e+00		         0.64000	-1.70000e+01	
2.38854   	-6.71136e+00		         0.64167	-1.50000e+01	
2.39464   	-6.14255e+00		         0.64333	-1.30000e+01	
2.40102   	-5.49726e+00		         0.64500	-1.10000e+01	
2.40713   	-5.01195e+00		         0.64667	-9.00000e+00	
2.41323   	-4.58537e+00		         0.64833	-6.00000e+00	
2.41934   	-4.17517e+00		         0.65000	-3.00000e+00	
2.42571   	-3.68965e+00		         0.65167	0.00000e+00	
2.43181   	-2.48786e+00		         0.65333	4.00000e+00	
2.43793   	-1.25761e+00		         0.65500	8.00000e+00	
2.44402   	3.29660e-02		         0.65667	1.20000e+01	
2.45040   	9.39870e-01		         0.65833	1.60000e+01	
2.45651   	2.03485e+00		         0.66000	1.90000e+01	
			         0.66167	2.30000e+01	
			         0.66333	2.50000e+01	
			         0.66500	2.80000e+01	
			         0.66667	3.00000e+01	
			         0.66833	3.30000e+01	
			         0.67000	3.40000e+01	
			         0.67167	3.60000e+01	
			         0.67333	3.70000e+01	
			         0.67500	3.70000e+01	
			         0.67667	3.70000e+01	
			         0.67833	3.70000e+01	
			         0.68000	3.60000e+01	
			         0.68167	3.60000e+01	
			         0.68333	3.50000e+01	
			         0.68500	3.40000e+01	
			         0.68667	3.30000e+01	
			         0.68833	3.10000e+01	
			         0.69000	3.00000e+01	
			         0.69167	2.80000e+01	
			         0.69333	2.60000e+01	
			         0.69500	2.30000e+01	
			         0.69667	2.10000e+01	
			         0.69833	1.90000e+01	
			         0.70000	1.60000e+01	
			         0.70167	1.30000e+01	
			         0.70333	1.00000e+01	
			         0.70500	7.00000e+00	
			         0.70667	3.00000e+00	
			         0.70833	-1.00000e+00	
			         0.71000	-4.00000e+00	
			         0.71167	-8.00000e+00	
			         0.71333	-1.20000e+01	
			         0.71500	-1.50000e+01	
			         0.71667	-1.80000e+01	
			         0.71833	-2.10000e+01	
			         0.72000	-2.30000e+01	
			         0.72167	-2.50000e+01	
			         0.72333	-2.70000e+01	
			         0.72500	-2.80000e+01	
			         0.72667	-3.00000e+01	
			         0.72833	-3.20000e+01	
			         0.73000	-3.30000e+01	
			         0.73167	-3.40000e+01	
			         0.73333	-3.60000e+01	
			         0.73500	-3.70000e+01	
			         0.73667	-3.80000e+01	
			         0.73833	-4.00000e+01	
			         0.74000	-4.10000e+01	
			         0.74167	-4.20000e+01	
			         0.74333	-4.30000e+01	
			         0.74500	-4.40000e+01	
			         0.74667	-4.40000e+01	
			         0.74833	-4.50000e+01	
			         0.75000	-4.50000e+01	
			         0.75167	-4.60000e+01	
			         0.75333	-4.60000e+01	
			         0.75500	-4.60000e+01	
			         0.75667	-4.70000e+01	
			         0.75833	-4.70000e+01	
			         0.76000	-4.70000e+01	
			         0.76167	-4.60000e+01	
			         0.76333	-4.60000e+01	
			         0.76500	-4.60000e+01	
			         0.76667	-4.50000e+01	
			         0.76833	-4.40000e+01	
			         0.77000	-4.30000e+01	
			         0.77167	-4.20000e+01	
			         0.77333	-4.10000e+01	
			         0.77500	-4.00000e+01	
			         0.77667	-3.90000e+01	
			         0.77833	-3.70000e+01	
			         0.78000	-3.60000e+01	
			         0.78167	-3.50000e+01	
			         0.78333	-3.40000e+01	
			         0.78500	-3.30000e+01	
			         0.78667	-3.30000e+01	
			         0.78833	-3.20000e+01	
			         0.79000	-3.20000e+01	
			         0.79167	-3.10000e+01	
			         0.79333	-3.00000e+01	
			         0.79500	-2.70000e+01	
			         0.79667	-2.30000e+01	
			         0.79833	-1.70000e+01	
			         0.80000	-9.00000e+00	
			         0.80167	3.00000e+00	
			         0.80333	1.90000e+01	
			         0.80500	4.00000e+01	
			         0.80667	6.80000e+01	
			         0.80833	1.02000e+02	
			         0.81000	1.42000e+02	
			         0.81167	1.90000e+02	
			         0.81333	2.44000e+02	
			         0.81500	3.04000e+02	
			         0.81667	3.68000e+02	
			         0.81833	4.36000e+02	
			         0.82000	5.06000e+02	
			         0.82167	5.76000e+02	
			         0.82333	6.43000e+02	
			         0.82500	7.06000e+02	
			         0.82667	7.61000e+02	
			         0.82833	8.06000e+02	
			         0.83000	8.40000e+02	
			         0.83167	8.59000e+02	
			         0.83333	8.63000e+02	
			         0.83500	8.50000e+02	
			         0.83667	8.19000e+02	
			         0.83833	7.73000e+02	
			         0.84000	7.11000e+02	
			         0.84167	6.36000e+02	
			         0.84333	5.52000e+02	
			         0.84500	4.59000e+02	
			         0.84667	3.62000e+02	
			         0.84833	2.64000e+02	
			         0.85000	1.67000e+02	
			         0.85167	7.40000e+01	
			         0.85333	-1.20000e+01	
			         0.85500	-8.80000e+01	
			         0.85667	-1.55000e+02	
			         0.85833	-2.10000e+02	
			         0.86000	-2.53000e+02	
			         0.86167	-2.87000e+02	
			         0.86333	-3.11000e+02	
			         0.86500	-3.27000e+02	
			         0.86667	-3.36000e+02	
			         0.86833	-3.40000e+02	
			         0.87000	-3.39000e+02	
			         0.87167	-3.35000e+02	
			         0.87333	-3.29000e+02	
			         0.87500	-3.21000e+02	
			         0.87667	-3.12000e+02	
			         0.87833	-3.02000e+02	
			         0.88000	-2.93000e+02	
			         0.88167	-2.83000e+02	
			         0.88333	-2.75000e+02	
			         0.88500	-2.66000e+02	
			         0.88667	-2.59000e+02	
			         0.88833	-2.51000e+02	
			         0.89000	-2.45000e+02	
			         0.89167	-2.38000e+02	
			         0.89333	-2.32000e+02	
			         0.89500	-2.26000e+02	
			         0.89667	-2.21000e+02	
			         0.89833	-2.16000e+02	
			         0.90000	-2.11000e+02	
			         0.90167	-2.07000e+02	
			         0.90333	-2.02000e+02	
			         0.90500	-1.98000e+02	
			         0.90667	-1.93000e+02	
			         0.90833	-1.89000e+02	
			         0.91000	-1.85000e+02	
			         0.91167	-1.80000e+02	
			         0.91333	-1.76000e+02	
			         0.91500	-1.72000e+02	
			         0.91667	-1.67000e+02	
			         0.91833	-1.63000e+02	
			         0.92000	-1.59000e+02	
			         0.92167	-1.54000e+02	
			         0.92333	-1.50000e+02	
			         0.92500	-1.46000e+02	
			         0.92667	-1.41000e+02	
			         0.92833	-1.37000e+02	
			         0.93000	-1.33000e+02	
			         0.93167	-1.29000e+02	
			         0.93333	-1.25000e+02	
			         0.93500	-1.22000e+02	
			         0.93667	-1.18000e+02	
			         0.93833	-1.15000e+02	
			         0.94000	-1.12000e+02	
			         0.94167	-1.09000e+02	
			         0.94333	-1.06000e+02	
			         0.94500	-1.03000e+02	
			         0.94667	-1.00000e+02	
			         0.94833	-9.80000e+01	
			         0.95000	-9.50000e+01	
			         0.95167	-9.30000e+01	
			         0.95333	-9.00000e+01	
			         0.95500	-8.70000e+01	
			         0.95667	-8.40000e+01	
			         0.95833	-8.10000e+01	
			         0.96000	-7.80000e+01	
			         0.96167	-7.50000e+01	
			         0.96333	-7.20000e+01	
			         0.96500	-6.90000e+01	
			         0.96667	-6.60000e+01	
			         0.96833	-6.40000e+01	
			         0.97000	-6.10000e+01	
			         0.97167	-5.80000e+01	
			         0.97333	-5.50000e+01	
			         0.97500	-5.20000e+01	
			         0.97667	-4.90000e+01	
			         0.97833	-4.60000e+01	
			         0.98000	-4.30000e+01	
			         0.98167	-4.00000e+01	
			         0.98333	-3.70000e+01	
			         0.98500	-3.30000e+01	
			         0.98667	-3.00000e+01	
			         0.98833	-2.70000e+01	
			         0.99000	-2.30000e+01	
			         0.99167	-2.00000e+01	
			         0.99333	-1.70000e+01	
			         0.99500	-1.30000e+01	
			         0.99667	-1.00000e+01	
			         0.99833	-7.00000e+00	
			         1.00000	-4.00000e+00	
			         1.00167	0.00000e+00	
			         1.00333	3.00000e+00	
			         1.00500	7.00000e+00	
			         1.00667	1.10000e+01	
			         1.00833	1.50000e+01	
			         1.01000	1.90000e+01	
			         1.01167	2.30000e+01	
			         1.01333	2.70000e+01	
			         1.01500	3.20000e+01	
			         1.01667	3.70000e+01	
			         1.01833	4.10000e+01	
			         1.02000	4.60000e+01	
			         1.02167	5.10000e+01	
			         1.02333	5.60000e+01	
			         1.02500	6.10000e+01	
			         1.02667	6.60000e+01	
			         1.02833	7.10000e+01	
			         1.03000	7.60000e+01	
			         1.03167	8.10000e+01	
			         1.03333	8.60000e+01	
			         1.03500	9.10000e+01	
			         1.03667	9.60000e+01	
			         1.03833	1.01000e+02	
			         1.04000	1.06000e+02	
			         1.04167	1.11000e+02	
			         1.04333	1.15000e+02	
			         1.04500	1.20000e+02	
			         1.04667	1.24000e+02	
			         1.04833	1.28000e+02	
			         1.05000	1.32000e+02	
			         1.05167	1.36000e+02	
			         1.05333	1.39000e+02	
			         1.05500	1.42000e+02	
			         1.05667	1.45000e+02	
			         1.05833	1.47000e+02	
			         1.06000	1.49000e+02	
			         1.06167	1.51000e+02	
			         1.06333	1.53000e+02	
			         1.06500	1.54000e+02	
			         1.06667	1.55000e+02	
			         1.06833	1.56000e+02	
			         1.07000	1.56000e+02	
			         1.07167	1.56000e+02	
			         1.07333	1.56000e+02	
			         1.07500	1.56000e+02	
			         1.07667	1.56000e+02	
			         1.07833	1.55000e+02	
			         1.08000	1.54000e+02	
			         1.08167	1.53000e+02	
			         1.08333	1.51000e+02	
			         1.08500	1.50000e+02	
			         1.08667	1.48000e+02	
			         1.08833	1.45000e+02	
			         1.09000	1.42000e+02	
			         1.09167	1.39000e+02	
			         1.09333	1.35000e+02	
			         1.09500	1.31000e+02	
			         1.09667	1.26000e+02	
			         1.09833	1.20000e+02	
			         1.10000	1.14000e+02	
			         1.10167	1.08000e+02	
			         1.10333	1.01000e+02	
			         1.10500	9.30000e+01	
			         1.10667	8.50000e+01	
			         1.10833	7.70000e+01	
			         1.11000	6.80000e+01	
			         1.11167	6.00000e+01	
			         1.11333	5.10000e+01	
			         1.11500	4.20000e+01	
			         1.11667	3.30000e+01	
			         1.11833	2.40000e+01	
			         1.12000	1.50000e+01	
			         1.12167	7.00000e+00	
			         1.12333	-2.00000e+00	
			         1.12500	-1.00000e+01	
			         1.12667	-1.80000e+01	
			         1.12833	-2.60000e+01	
			         1.13000	-3.40000e+01	
			         1.13167	-4.20000e+01	
			         1.13333	-4.90000e+01	
			         1.13500	-5.60000e+01	
			         1.13667	-6.20000e+01	
			         1.13833	-6.80000e+01	
			         1.14000	-7.40000e+01	
			         1.14167	-7.90000e+01	
			         1.14333	-8.40000e+01	
			         1.14500	-8.80000e+01	
			         1.14667	-9.20000e+01	
			         1.14833	-9.60000e+01	
			         1.15000	-9.90000e+01	
			         1.15167	-1.03000e+02	
			         1.15333	-1.05000e+02	
			         1.15500	-1.08000e+02	
			         1.15667	-1.10000e+02	
			         1.15833	-1.12000e+02	
			         1.16000	-1.13000e+02	
			         1.16167	-1.14000e+02	
			         1.16333	-1.15000e+02	
			         1.16500	-1.16000e+02	
			         1.16667	-1.16000e+02	
			         1.16833	-1.16000e+02	
			         1.17000	-1.16000e+02	
			         1.17167	-1.16000e+02	
			         1.17333	-1.15000e+02	
			         1.17500	-1.14000e+02	
			         1.17667	-1.14000e+02	
			         1.17833	-1.13000e+02	
			         1.18000	-1.11000e+02	
			         1.18167	-1.10000e+02	
			         1.18333	-1.09000e+02	
			         1.18500	-1.08000e+02	
			         1.18667	-1.06000e+02	
			         1.18833	-1.05000e+02	
			         1.19000	-1.03000e+02	
			         1.19167	-1.02000e+02	
			         1.19333	-1.00000e+02	
			         1.19500	-9.80000e+01	
			         1.19667	-9.60000e+01	
			         1.19833	-9.40000e+01	
			         1.20000	-9.30000e+01	
			         1.20167	-9.10000e+01	
			         1.20333	-8.90000e+01	
			         1.20500	-8.70000e+01	
			         1.20667	-8.50000e+01	
			         1.20833	-8.30000e+01	
			         1.21000	-8.10000e+01	
			         1.21167	-7.90000e+01	
			         1.21333	-7.70000e+01	
			         1.21500	-7.50000e+01	
			         1.21667	-7.30000e+01	
			         1.21833	-7.20000e+01	
			         1.22000	-7.00000e+01	
			         1.22167	-6.80000e+01	
			         1.22333	-6.70000e+01	
			         1.22500	-6.50000e+01	
			         1.22667	-6.30000e+01	
			         1.22833	-6.20000e+01	
			         1.23000	-6.00000e+01	
			         1.23167	-5.90000e+01	
			         1.23333	-5.70000e+01	
			         1.23500	-5.60000e+01	
			         1.23667	-5.40000e+01	
			         1.23833	-5.30000e+01	
			         1.24000	-5.10000e+01	
			         1.24167	-4.90000e+01	
			         1.24333	-4.80000e+01	
			         1.24500	-4.60000e+01	
			         1.24667	-4.40000e+01	
			         1.24833	-4.20000e+01	
			         1.25000	-4.00000e+01	
			         1.25167	-3.80000e+01	
			         1.25333	-3.70000e+01	
			         1.25500	-3.50000e+01	
			         1.25667	-3.30000e+01	
			         1.25833	-3.20000e+01	
			         1.26000	-3.00000e+01	
			         1.26167	-2.90000e+01	
			         1.26333	-2.80000e+01	
			         1.26500	-2.70000e+01	
			         1.26667	-2.60000e+01	
			         1.26833	-2.50000e+01	
			         1.27000	-2.40000e+01	
			         1.27167	-2.30000e+01	
			         1.27333	-2.30000e+01	
			         1.27500	-2.20000e+01	
			         1.27667	-2.10000e+01	
			         1.27833	-2.10000e+01	
			         1.28000	-2.00000e+01	
			         1.28167	-2.00000e+01	
			         1.28333	-1.90000e+01	
			         1.28500	-1.80000e+01	
			         1.28667	-1.80000e+01	
			         1.28833	-1.70000e+01	
			         1.29000	-1.60000e+01	
			         1.29167	-1.60000e+01	
			         1.29333	-1.50000e+01	
			         1.29500	-1.40000e+01	
			         1.29667	-1.40000e+01	
			         1.29833	-1.30000e+01	
			         1.30000	-1.30000e+01	
			         1.30167	-1.30000e+01	
			         1.30333	-1.30000e+01	
			         1.30500	-1.40000e+01	
			         1.30667	-1.40000e+01	
			         1.30833	-1.50000e+01	
			         1.31000	-1.50000e+01	
			         1.31167	-1.60000e+01	
			         1.31333	-1.70000e+01	
			         1.31500	-1.70000e+01	
			         1.31667	-1.80000e+01	
			         1.31833	-1.80000e+01	
			         1.32000	-1.80000e+01	
			         1.32167	-1.80000e+01	
			         1.32333	-1.80000e+01	
			         1.32500	-1.80000e+01	
			         1.32667	-1.80000e+01	
			         1.32833	-1.80000e+01	
			         1.33000	-1.80000e+01	
			         1.33167	-1.80000e+01	
			         1.33333	-1.80000e+01	
			         1.33500	-1.90000e+01	
			         1.33667	-1.90000e+01	
			         1.33833	-1.90000e+01	
			         1.34000	-2.00000e+01	
			         1.34167	-2.00000e+01	
			         1.34333	-2.10000e+01	
			         1.34500	-2.10000e+01	
			         1.34667	-2.20000e+01	
			         1.34833	-2.20000e+01	
			         1.35000	-2.30000e+01	
			         1.35167	-2.30000e+01	
			         1.35333	-2.40000e+01	
			         1.35500	-2.40000e+01	
			         1.35667	-2.40000e+01	
			         1.35833	-2.40000e+01	
			         1.36000	-2.40000e+01	
			         1.36167	-2.40000e+01	
			         1.36333	-2.40000e+01	
			         1.36500	-2.30000e+01	
			         1.36667	-2.30000e+01	
			         1.36833	-2.30000e+01	
			         1.37000	-2.30000e+01	
			         1.37167	-2.20000e+01	
			         1.37333	-2.20000e+01	
			         1.37500	-2.20000e+01	
			         1.37667	-2.20000e+01	
			         1.37833	-2.20000e+01	
			         1.38000	-2.20000e+01	
			         1.38167	-2.20000e+01	
			         1.38333	-2.20000e+01	
			         1.38500	-2.20000e+01	
			         1.38667	-2.20000e+01	
			         1.38833	-2.20000e+01	
			         1.39000	-2.20000e+01	
			         1.39167	-2.30000e+01	
			         1.39333	-2.30000e+01	
			         1.39500	-2.30000e+01	
			         1.39667	-2.40000e+01	
			         1.39833	-2.40000e+01	
			         1.40000	-2.50000e+01	
			         1.40167	-2.50000e+01	
			         1.40333	-2.60000e+01	
			         1.40500	-2.60000e+01	
			         1.40667	-2.70000e+01	
			         1.40833	-2.70000e+01	
			         1.41000	-2.70000e+01	
			         1.41167	-2.70000e+01	
			         1.41333	-2.70000e+01	
			         1.41500	-2.70000e+01	
			         1.41667	-2.70000e+01	
			         1.41833	-2.70000e+01	
			         1.42000	-2.70000e+01	
			         1.42167	-2.60000e+01	
			         1.42333	-2.60000e+01	
			         1.42500	-2.60000e+01	
			         1.42667	-2.50000e+01	
			         1.42833	-2.50000e+01	
			         1.43000	-2.50000e+01	
			         1.43167	-2.40000e+01	
			         1.43333	-2.40000e+01	
			         1.43500	-2.40000e+01	
			         1.43667	-2.30000e+01	
			         1.43833	-2.30000e+01	
			         1.44000	-2.20000e+01	
			         1.44167	-2.10000e+01	
			         1.44333	-2.00000e+01	
			         1.44500	-1.80000e+01	
			         1.44667	-1.60000e+01	
			         1.44833	-1.40000e+01	
			         1.45000	-1.20000e+01	
			         1.45167	-9.00000e+00	
			         1.45333	-6.00000e+00	
			         1.45500	-2.00000e+00	
			         1.45667	1.00000e+00	
			         1.45833	5.00000e+00	
			         1.46000	9.00000e+00	
			         1.46167	1.30000e+01	
			         1.46333	1.60000e+01	
			         1.46500	2.00000e+01	
			         1.46667	2.30000e+01	
			         1.46833	2.70000e+01	
			         1.47000	3.00000e+01	
			         1.47167	3.20000e+01	
			         1.47333	3.40000e+01	
			         1.47500	3.60000e+01	
			         1.47667	3.80000e+01	
			         1.47833	3.90000e+01	
			         1.48000	3.90000e+01	
			         1.48167	3.90000e+01	
			         1.48333	3.90000e+01	
			         1.48500	3.90000e+01	
			         1.48667	3.80000e+01	
			         1.48833	3.70000e+01	
			         1.49000	3.60000e+01	
			         1.49167	3.40000e+01	
			         1.49333	3.20000e+01	
			         1.49500	3.00000e+01	
			         1.49667	2.70000e+01	
			         1.49833	2.40000e+01	
			         1.50000	2.10000e+01	
			         1.50167	1.70000e+01	
			         1.50333	1.30000e+01	
			         1.50500	9.00000e+00	
			         1.50667	5.00000e+00	
			         1.50833	1.00000e+00	
			         1.51000	-4.00000e+00	
			         1.51167	-8.00000e+00	
			         1.51333	-1.20000e+01	
			         1.51500	-1.50000e+01	
			         1.51667	-1.80000e+01	
			         1.51833	-2.10000e+01	
			         1.52000	-2.30000e+01	
			         1.52167	-2.50000e+01	
			         1.52333	-2.60000e+01	
			         1.52500	-2.70000e+01	
			         1.52667	-2.80000e+01	
			         1.52833	-2.90000e+01	
			         1.53000	-3.00000e+01	
			         1.53167	-3.00000e+01	
			         1.53333	-3.10000e+01	
			         1.53500	-3.20000e+01	
			         1.53667	-3.30000e+01	
			         1.53833	-3.50000e+01	
			         1.54000	-3.60000e+01	
			         1.54167	-3.70000e+01	
			         1.54333	-3.90000e+01	
			         1.54500	-4.00000e+01	
			         1.54667	-4.20000e+01	
			         1.54833	-4.30000e+01	
			         1.55000	-4.50000e+01	
			         1.55167	-4.60000e+01	
			         1.55333	-4.70000e+01	
			         1.55500	-4.70000e+01	
			         1.55667	-4.80000e+01	
			         1.55833	-4.80000e+01	
			         1.56000	-4.70000e+01	
			         1.56167	-4.70000e+01	
			         1.56333	-4.70000e+01	
			         1.56500	-4.60000e+01	
			         1.56667	-4.50000e+01	
			         1.56833	-4.40000e+01	
			         1.57000	-4.30000e+01	
			         1.57167	-4.10000e+01	
			         1.57333	-4.00000e+01	
			         1.57500	-3.90000e+01	
			         1.57667	-3.80000e+01	
			         1.57833	-3.70000e+01	
			         1.58000	-3.50000e+01	
			         1.58167	-3.40000e+01	
			         1.58333	-3.30000e+01	
			         1.58500	-3.20000e+01	
			         1.58667	-3.10000e+01	
			         1.58833	-3.10000e+01	
			         1.59000	-3.00000e+01	
			         1.59167	-3.00000e+01	
			         1.59333	-2.90000e+01	
			         1.59500	-2.70000e+01	
			         1.59667	-2.40000e+01	
			         1.59833	-2.00000e+01	
			         1.60000	-1.30000e+01	
			         1.60167	-4.00000e+00	
			         1.60333	8.00000e+00	
			         1.60500	2.50000e+01	
			         1.60667	4.70000e+01	
			         1.60833	7.60000e+01	
			         1.61000	1.11000e+02	
			         1.61167	1.53000e+02	
			         1.61333	2.02000e+02	
			         1.61500	2.57000e+02	
			         1.61667	3.17000e+02	
			         1.61833	3.82000e+02	
			         1.62000	4.50000e+02	
			         1.62167	5.20000e+02	
			         1.62333	5.89000e+02	
			         1.62500	6.55000e+02	
			         1.62667	7.16000e+02	
			         1.62833	7.69000e+02	
			         1.63000	8.11000e+02	
			         1.63167	8.42000e+02	
			         1.63333	8.58000e+02	
			         1.63500	8.57000e+02	
			         1.63667	8.41000e+02	
			         1.63833	8.07000e+02	
			         1.64000	7.57000e+02	
			         1.64167	6.92000e+02	
			         1.64333	6.15000e+02	
			         1.64500	5.29000e+02	
			         1.64667	4.36000e+02	
			         1.64833	3.39000e+02	
			         1.65000	2.41000e+02	
			         1.65167	1.45000e+02	
			         1.65333	5.50000e+01	
			         1.65500	-2.80000e+01	
			         1.65667	-1.01000e+02	
			         1.65833	-1.64000e+02	
			         1.66000	-2.16000e+02	
			         1.66167	-2.57000e+02	
			         1.66333	-2.88000e+02	
			         1.66500	-3.10000e+02	
			         1.66667	-3.24000e+02	
			         1.66833	-3.32000e+02	
			         1.67000	-3.34000e+02	
			         1.67167	-3.32000e+02	
			         1.67333	-3.27000e+02	
			         1.67500	-3.20000e+02	
			         1.67667	-3.12000e+02	
			         1.67833	-3.02000e+02	
			         1.68000	-2.92000e+02	
			         1.68167	-2.82000e+02	
			         1.68333	-2.73000e+02	
			         1.68500	-2.64000e+02	
			         1.68667	-2.56000e+02	
			         1.68833	-2.49000e+02	
			         1.69000	-2.42000e+02	
			         1.69167	-2.36000e+02	
			         1.69333	-2.30000e+02	
			         1.69500	-2.25000e+02	
			         1.69667	-2.20000e+02	
			         1.69833	-2.16000e+02	
			         1.70000	-2.12000e+02	
			         1.70167	-2.08000e+02	
			         1.70333	-2.04000e+02	
			         1.70500	-2.00000e+02	
			         1.70667	-1.96000e+02	
			         1.70833	-1.92000e+02	
			         1.71000	-1.88000e+02	
			         1.71167	-1.84000e+02	
			         1.71333	-1.79000e+02	
			         1.71500	-1.74000e+02	
			         1.71667	-1.69000e+02	
			         1.71833	-1.65000e+02	
			         1.72000	-1.60000e+02	
			         1.72167	-1.55000e+02	
			         1.72333	-1.51000e+02	
			         1.72500	-1.46000e+02	
			         1.72667	-1.42000e+02	
			         1.72833	-1.38000e+02	
			         1.73000	-1.34000e+02	
			         1.73167	-1.30000e+02	
			         1.73333	-1.26000e+02	
			         1.73500	-1.23000e+02	
			         1.73667	-1.19000e+02	
			         1.73833	-1.15000e+02	
			         1.74000	-1.12000e+02	
			         1.74167	-1.08000e+02	
			         1.74333	-1.05000e+02	
			         1.74500	-1.02000e+02	
			         1.74667	-9.90000e+01	
			         1.74833	-9.60000e+01	
			         1.75000	-9.30000e+01	
			         1.75167	-9.00000e+01	
			         1.75333	-8.80000e+01	
			         1.75500	-8.50000e+01	
			         1.75667	-8.30000e+01	
			         1.75833	-8.00000e+01	
			         1.76000	-7.70000e+01	
			         1.76167	-7.50000e+01	
			         1.76333	-7.20000e+01	
			         1.76500	-6.90000e+01	
			         1.76667	-6.60000e+01	
			         1.76833	-6.30000e+01	
			         1.77000	-6.10000e+01	
			         1.77167	-5.80000e+01	
			         1.77333	-5.60000e+01	
			         1.77500	-5.30000e+01	
			         1.77667	-5.10000e+01	
			         1.77833	-4.90000e+01	
			         1.78000	-4.60000e+01	
			         1.78167	-4.40000e+01	
			         1.78333	-4.10000e+01	
			         1.78500	-3.90000e+01	
			         1.78667	-3.60000e+01	
			         1.78833	-3.40000e+01	
			         1.79000	-3.10000e+01	
			         1.79167	-2.80000e+01	
			         1.79333	-2.50000e+01	
			         1.79500	-2.10000e+01	
			         1.79667	-1.80000e+01	
			         1.79833	-1.50000e+01	
			         1.80000	-1.10000e+01	
			         1.80167	-8.00000e+00	
			         1.80333	-4.00000e+00	
			         1.80500	0.00000e+00	
			         1.80667	3.00000e+00	
			         1.80833	7.00000e+00	
			         1.81000	1.10000e+01	
			         1.81167	1.40000e+01	
			         1.81333	1.80000e+01	
			         1.81500	2.20000e+01	
			         1.81667	2.60000e+01	
			         1.81833	3.00000e+01	
			         1.82000	3.40000e+01	
			         1.82167	3.80000e+01	
			         1.82333	4.20000e+01	
			         1.82500	4.70000e+01	
			         1.82667	5.10000e+01	
			         1.82833	5.50000e+01	
			         1.83000	6.00000e+01	
			         1.83167	6.50000e+01	
			         1.83333	7.00000e+01	
			         1.83500	7.50000e+01	
			         1.83667	8.00000e+01	
			         1.83833	8.50000e+01	
			         1.84000	9.10000e+01	
			         1.84167	9.60000e+01	
			         1.84333	1.01000e+02	
			         1.84500	1.06000e+02	
			         1.84667	1.11000e+02	
			         1.84833	1.16000e+02	
			         1.85000	1.20000e+02	
			         1.85167	1.24000e+02	
			         1.85333	1.28000e+02	
			         1.85500	1.31000e+02	
			         1.85667	1.33000e+02	
			         1.85833	1.36000e+02	
			         1.86000	1.38000e+02	
			         1.86167	1.40000e+02	
			         1.86333	1.41000e+02	
			         1.86500	1.42000e+02	
			         1.86667	1.43000e+02	
			         1.86833	1.44000e+02	
			         1.87000	1.45000e+02	
			         1.87167	1.45000e+02	
			         1.87333	1.46000e+02	
			         1.87500	1.46000e+02	
			         1.87667	1.47000e+02	
			         1.87833	1.47000e+02	
			         1.88000	1.46000e+02	
			         1.88167	1.46000e+02	
			         1.88333	1.45000e+02	
			         1.88500	1.44000e+02	
			         1.88667	1.42000e+02	
			         1.88833	1.40000e+02	
			         1.89000	1.37000e+02	
			         1.89167	1.33000e+02	
			         1.89333	1.30000e+02	
			         1.89500	1.25000e+02	
			         1.89667	1.21000e+02	
			         1.89833	1.16000e+02	
			         1.90000	1.10000e+02	
			         1.90167	1.05000e+02	
			         1.90333	9.90000e+01	
			         1.90500	9.20000e+01	
			         1.90667	8.60000e+01	
			         1.90833	7.90000e+01	
			         1.91000	7.20000e+01	
			         1.91167	6.50000e+01	
			         1.91333	5.70000e+01	
			         1.91500	4.90000e+01	
			         1.91667	4.10000e+01	
			         1.91833	3.30000e+01	
			         1.92000	2.40000e+01	
			         1.92167	1.60000e+01	
			         1.92333	7.00000e+00	
			         1.92500	-2.00000e+00	
			         1.92667	-1.00000e+01	
			         1.92833	-1.90000e+01	
			         1.93000	-2.70000e+01	
			         1.93167	-3.50000e+01	
			         1.93333	-4.30000e+01	
			         1.93500	-5.10000e+01	
			         1.93667	-5.80000e+01	
			         1.93833	-6.50000e+01	
			         1.94000	-7.10000e+01	
			         1.94167	-7.70000e+01	
			         1.94333	-8.30000e+01	
			         1.94500	-8.80000e+01	
			         1.94667	-9.40000e+01	
			         1.94833	-9.80000e+01	
			         1.95000	-1.03000e+02	
			         1.95167	-1.07000e+02	
			         1.95333	-1.10000e+02	
			         1.95500	-1.13000e+02	
			         1.95667	-1.15000e+02	
			         1.95833	-1.17000e+02	
			         1.96000	-1.19000e+02	
			         1.96167	-1.21000e+02	
			         1.96333	-1.22000e+02	
			         1.96500	-1.23000e+02	
			         1.96667	-1.23000e+02	
			         1.96833	-1.24000e+02	
			         1.97000	-1.24000e+02	
			         1.97167	-1.24000e+02	
			         1.97333	-1.24000e+02	
			         1.97500	-1.23000e+02	
			         1.97667	-1.23000e+02	
			         1.97833	-1.22000e+02	
			         1.98000	-1.22000e+02	
			         1.98167	-1.20000e+02	
			         1.98333	-1.19000e+02	
			         1.98500	-1.18000e+02	
			         1.98667	-1.16000e+02	
			         1.98833	-1.14000e+02	
			         1.99000	-1.11000e+02	
			         1.99167	-1.09000e+02	
			         1.99333	-1.07000e+02	
			         1.99500	-1.04000e+02	
			         1.99667	-1.01000e+02	
			         1.99833	-9.90000e+01	
			         2.00000	-9.60000e+01	
			         2.00167	-9.40000e+01	
			         2.00333	-9.10000e+01	
			         2.00500	-8.90000e+01	
			         2.00667	-8.70000e+01	
			         2.00833	-8.50000e+01	
			         2.01000	-8.30000e+01	
			         2.01167	-8.20000e+01	
			         2.01333	-8.00000e+01	
			         2.01500	-7.80000e+01	
			         2.01667	-7.70000e+01	
			         2.01833	-7.50000e+01	
			         2.02000	-7.40000e+01	
			         2.02167	-7.20000e+01	
			         2.02333	-7.10000e+01	
			         2.02500	-6.90000e+01	
			         2.02667	-6.80000e+01	
			         2.02833	-6.60000e+01	
			         2.03000	-6.50000e+01	
			         2.03167	-6.30000e+01	
			         2.03333	-6.20000e+01	
			         2.03500	-6.00000e+01	
			         2.03667	-5.90000e+01	
			         2.03833	-5.70000e+01	
			         2.04000	-5.50000e+01	
			         2.04167	-5.30000e+01	
			         2.04333	-5.20000e+01	
			         2.04500	-5.00000e+01	
			         2.04667	-4.80000e+01	
			         2.04833	-4.70000e+01	
			         2.05000	-4.50000e+01	
			         2.05167	-4.40000e+01	
			         2.05333	-4.20000e+01	
			         2.05500	-4.10000e+01	
			         2.05667	-4.00000e+01	
			         2.05833	-3.80000e+01	
			         2.06000	-3.70000e+01	
			         2.06167	-3.60000e+01	
			         2.06333	-3.40000e+01	
			         2.06500	-3.30000e+01	
			         2.06667	-3.20000e+01	
			         2.06833	-3.10000e+01	
			         2.07000	-2.90000e+01	
			         2.07167	-2.80000e+01	
			         2.07333	-2.70000e+01	
			         2.07500	-2.50000e+01	
			         2.07667	-2.40000e+01	
			         2.07833	-2.30000e+01	
			         2.08000	-2.10000e+01	
			         2.08167	-2.00000e+01	
			         2.08333	-1.80000e+01	
			         2.08500	-1.70000e+01	
			         2.08667	-1.50000e+01	
			         2.08833	-1.40000e+01	
			         2.09000	-1.30000e+01	
			         2.09167	-1.20000e+01	
			         2.09333	-1.10000e+01	
			         2.09500	-1.00000e+01	
			         2.09667	-9.00000e+00	
			         2.09833	-9.00000e+00	
			         2.10000	-8.00000e+00	
			         2.10167	-8.00000e+00	
			         2.10333	-8.00000e+00	
			         2.10500	-8.00000e+00	
			         2.10667	-8.00000e+00	
			         2.10833	-8.00000e+00	
			         2.11000	-8.00000e+00	
			         2.11167	-8.00000e+00	
			         2.11333	-7.00000e+00	
			         2.11500	-7.00000e+00	
			         2.11667	-7.00000e+00	
			         2.11833	-7.00000e+00	
			         2.12000	-7.00000e+00	
			         2.12167	-6.00000e+00	
			         2.12333	-6.00000e+00	
			         2.12500	-6.00000e+00	
			         2.12667	-6.00000e+00	
			         2.12833	-6.00000e+00	
			         2.13000	-6.00000e+00	
			         2.13167	-6.00000e+00	
			         2.13333	-6.00000e+00	
			         2.13500	-6.00000e+00	
			         2.13667	-6.00000e+00	
			         2.13833	-6.00000e+00	
			         2.14000	-6.00000e+00	
			         2.14167	-6.00000e+00	
			         2.14333	-6.00000e+00	
			         2.14500	-7.00000e+00	
			         2.14667	-7.00000e+00	
			         2.14833	-8.00000e+00	
			         2.15000	-8.00000e+00	
			         2.15167	-9.00000e+00	
			         2.15333	-1.00000e+01	
			         2.15500	-1.00000e+01	
			         2.15667	-1.10000e+01	
			         2.15833	-1.20000e+01	
			         2.16000	-1.30000e+01	
			         2.16167	-1.40000e+01	
			         2.16333	-1.50000e+01	
			         2.16500	-1.50000e+01	
			         2.16667	-1.60000e+01	
			         2.16833	-1.70000e+01	
			         2.17000	-1.80000e+01	
			         2.17167	-1.90000e+01	
			         2.17333	-1.90000e+01	
			         2.17500	-1.90000e+01	
			         2.17667	-2.00000e+01	
			         2.17833	-2.00000e+01	
			         2.18000	-2.00000e+01	
			         2.18167	-2.00000e+01	
			         2.18333	-1.90000e+01	
			         2.18500	-1.90000e+01	
			         2.18667	-1.90000e+01	
			         2.18833	-1.80000e+01	
			         2.19000	-1.80000e+01	
			         2.19167	-1.70000e+01	
			         2.19333	-1.70000e+01	
			         2.19500	-1.70000e+01	
			         2.19667	-1.60000e+01	
			         2.19833	-1.60000e+01	
			         2.20000	-1.60000e+01	
			         2.20167	-1.60000e+01	
			         2.20333	-1.60000e+01	
			         2.20500	-1.60000e+01	
			         2.20667	-1.60000e+01	
			         2.20833	-1.60000e+01	
			         2.21000	-1.60000e+01	
			         2.21167	-1.60000e+01	
			         2.21333	-1.60000e+01	
			         2.21500	-1.60000e+01	
			         2.21667	-1.60000e+01	
			         2.21833	-1.60000e+01	
			         2.22000	-1.60000e+01	
			         2.22167	-1.60000e+01	
			         2.22333	-1.60000e+01	
			         2.22500	-1.60000e+01	
			         2.22667	-1.60000e+01	
			         2.22833	-1.50000e+01	
			         2.23000	-1.50000e+01	
			         2.23167	-1.50000e+01	
			         2.23333	-1.50000e+01	
			         2.23500	-1.50000e+01	
			         2.23667	-1.40000e+01	
			         2.23833	-1.40000e+01	
			         2.24000	-1.40000e+01	
			         2.24167	-1.30000e+01	
			         2.24333	-1.30000e+01	
			         2.24500	-1.20000e+01	
			         2.24667	-1.00000e+01	
			         2.24833	-9.00000e+00	
			         2.25000	-7.00000e+00	
			         2.25167	-5.00000e+00	
			         2.25333	-2.00000e+00	
			         2.25500	0.00000e+00	
			         2.25667	3.00000e+00	
			         2.25833	6.00000e+00	
			         2.26000	1.00000e+01	
			         2.26167	1.30000e+01	
			         2.26333	1.70000e+01	
			         2.26500	2.10000e+01	
			         2.26667	2.40000e+01	
			         2.26833	2.70000e+01	
			         2.27000	3.00000e+01	
			         2.27167	3.30000e+01	
			         2.27333	3.50000e+01	
			         2.27500	3.70000e+01	
			         2.27667	3.90000e+01	
			         2.27833	4.00000e+01	
			         2.28000	4.20000e+01	
			         2.28167	4.20000e+01	
			         2.28333	4.30000e+01	
			         2.28500	4.30000e+01	
			         2.28667	4.20000e+01	
			         2.28833	4.10000e+01	
			         2.29000	4.00000e+01	
			         2.29167	3.90000e+01	
			         2.29333	3.80000e+01	
			         2.29500	3.60000e+01	
			         2.29667	3.40000e+01	
			         2.29833	3.20000e+01	
			         2.30000	2.90000e+01	
			         2.30167	2.60000e+01	
			         2.30333	2.30000e+01	
			         2.30500	1.90000e+01	
			         2.30667	1.60000e+01	
			         2.30833	1.20000e+01	
			         2.31000	8.00000e+00	
			         2.31167	4.00000e+00	
			         2.31333	0.00000e+00	
			         2.31500	-4.00000e+00	
			         2.31667	-8.00000e+00	
			         2.31833	-1.10000e+01	
			         2.32000	-1.50000e+01	
			         2.32167	-1.70000e+01	
			         2.32333	-2.00000e+01	
			         2.32500	-2.20000e+01	
			         2.32667	-2.40000e+01	
			         2.32833	-2.50000e+01	
			         2.33000	-2.70000e+01	
			         2.33167	-2.80000e+01	
			         2.33333	-2.90000e+01	
			         2.33500	-3.00000e+01	
			         2.33667	-3.10000e+01	
			         2.33833	-3.30000e+01	
			         2.34000	-3.40000e+01	
			         2.34167	-3.50000e+01	
			         2.34333	-3.60000e+01	
			         2.34500	-3.80000e+01	
			         2.34667	-3.90000e+01	
			         2.34833	-4.00000e+01	
			         2.35000	-4.20000e+01	
			         2.35167	-4.30000e+01	
			         2.35333	-4.40000e+01	
			         2.35500	-4.50000e+01	
			         2.35667	-4.50000e+01	
			         2.35833	-4.60000e+01	
			         2.36000	-4.60000e+01	
			         2.36167	-4.60000e+01	
			         2.36333	-4.60000e+01	
			         2.36500	-4.50000e+01	
			         2.36667	-4.50000e+01	
			         2.36833	-4.40000e+01	
			         2.37000	-4.40000e+01	
			         2.37167	-4.30000e+01	
			         2.37333	-4.10000e+01	
			         2.37500	-4.00000e+01	
			         2.37667	-3.90000e+01	
			         2.37833	-3.70000e+01	
			         2.38000	-3.60000e+01	
			         2.38167	-3.40000e+01	
			         2.38333	-3.20000e+01	
			         2.38500	-3.00000e+01	
			         2.38667	-2.90000e+01	
			         2.38833	-2.70000e+01	
			         2.39000	-2.60000e+01	
			         2.39167	-2.50000e+01	
			         2.39333	-2.50000e+01	
			         2.39500	-2.40000e+01	
			         2.39667	-2.20000e+01	
			         2.39833	-2.00000e+01	
			         2.40000	-1.70000e+01	
			         2.40167	-1.30000e+01	
			         2.40333	-6.00000e+00	
			         2.40500	3.00000e+00	
			         2.40667	1.50000e+01	
			         2.40833	3.10000e+01	
			         2.41000	5.20000e+01	
			         2.41167	7.90000e+01	
			         2.41333	1.12000e+02	
			         2.41500	1.52000e+02	
			         2.41667	1.99000e+02	
			         2.41833	2.52000e+02	
			         2.42000	3.11000e+02	
			         2.42167	3.74000e+02	
			         2.42333	4.41000e+02	
			         2.42500	5.11000e+02	
			         2.42667	5.80000e+02	
			         2.42833	6.47000e+02	
			         2.43000	7.09000e+02	
			         2.43167	7.65000e+02	
			         2.43333	8.11000e+02	
			         2.43500	8.45000e+02	
			         2.43667	8.65000e+02	
			         2.43833	8.69000e+02	
			         2.44000	8.57000e+02	
			         2.44167	8.28000e+02	
			         2.44333	7.82000e+02	
			         2.44500	7.21000e+02	
			         2.44667	6.47000e+02	
			         2.44833	5.62000e+02	
			         2.45000	4.70000e+02	
			         2.45167	3.73000e+02	
			         2.45333	2.74000e+02	
			         2.45500	1.77000e+02	
			         2.45667	8.40000e+01	
			         2.45833	-2.00000e+00	
			         2.46000	-8.00000e+01	
			         2.46167	-1.47000e+02	
			         2.46333	-2.04000e+02	
			         2.46500	-2.49000e+02	
			         2.46667	-2.84000e+02	
			         2.46833	-3.09000e+02	
			         2.47000	-3.26000e+02	
			         2.47167	-3.36000e+02	
			         2.47333	-3.40000e+02	
			         2.47500	-3.39000e+02	
			         2.47667	-3.34000e+02	
			         2.47833	-3.27000e+02	
			         2.48000	-3.18000e+02	
			         2.48167	-3.08000e+02	
			         2.48333	-2.97000e+02	
			         2.48500	-2.87000e+02	
			         2.48667	-2.77000e+02	
			         2.48833	-2.67000e+02	
			         2.49000	-2.58000e+02	
			         2.49167	-2.50000e+02	
			         2.49333	-2.42000e+02	
			         2.49500	-2.35000e+02	
			         2.49667	-2.29000e+02	
