Velocity (TVI), in cm/s

Time (s) :	Trace 1 : 		Ecg : 		
0.00805   	2.45640e+00		         0.00000	3.90000e+01	
0.01717   	3.00784e+00		         0.00167	4.60000e+01	
0.02630   	3.67169e+00		         0.00333	5.30000e+01	
0.03544   	1.71043e+00		         0.00500	5.90000e+01	
0.04487   	-5.03836e-01		         0.00667	6.40000e+01	
0.05398   	-2.20720e+00		         0.00833	6.80000e+01	
0.06312   	-9.15191e-01		         0.01000	7.10000e+01	
0.07226   	8.51433e-01		         0.01167	7.20000e+01	
0.08170   	2.76598e+00		         0.01333	7.20000e+01	
0.09081   	4.22231e+00		         0.01500	7.00000e+01	
0.09994   	5.13605e+00		         0.01667	6.70000e+01	
0.10908   	5.44971e+00		         0.01833	6.30000e+01	
0.11852   	5.53874e+00		         0.02000	5.80000e+01	
0.12763   	5.31049e+00		         0.02167	5.20000e+01	
0.13677   	5.04847e+00		         0.02333	4.60000e+01	
0.14590   	4.73435e+00		         0.02500	3.90000e+01	
0.15533   	4.71341e+00		         0.02667	3.20000e+01	
0.16445   	4.74293e+00		         0.02833	2.50000e+01	
0.17359   	4.70840e+00		         0.03000	1.80000e+01	
0.18273   	4.66286e+00		         0.03167	1.20000e+01	
0.19216   	4.56305e+00		         0.03333	7.00000e+00	
0.20127   	4.42298e+00		         0.03500	2.00000e+00	
0.21061   	4.29420e+00		         0.03667	-3.00000e+00	
0.21955   	4.24144e+00		         0.03833	-7.00000e+00	
0.22898   	4.17607e+00		         0.04000	-1.00000e+01	
0.23810   	4.05441e+00		         0.04167	-1.30000e+01	
0.24723   	3.82603e+00		         0.04333	-1.50000e+01	
0.25637   	3.61100e+00		         0.04500	-1.70000e+01	
0.26580   	3.42214e+00		         0.04667	-1.80000e+01	
0.27492   	3.26219e+00		         0.04833	-2.00000e+01	
0.28406   	3.10863e+00		         0.05000	-2.10000e+01	
0.29344   	2.80313e+00		         0.05167	-2.20000e+01	
0.30261   	2.59669e+00		         0.05333	-2.20000e+01	
0.31174   	2.40892e+00		         0.05500	-2.20000e+01	
0.32088   	2.36355e+00		         0.05667	-2.20000e+01	
0.33002   	2.05062e+00		         0.05833	-2.20000e+01	
0.33945   	1.80935e+00		         0.06000	-2.20000e+01	
0.34856   	1.33496e+00		         0.06167	-2.10000e+01	
0.35770   	7.08761e-01		         0.06333	-2.00000e+01	
0.36684   	-3.05509e-01		         0.06500	-2.00000e+01	
0.37643   	-1.27057e+00		         0.06667	-1.90000e+01	
0.38538   	-1.74553e+00		         0.06833	-1.80000e+01	
0.39452   	-5.66651e-01		         0.07000	-1.80000e+01	
0.40366   	7.63358e-01		         0.07167	-1.70000e+01	
0.41307   	1.93308e+00		         0.07333	-1.70000e+01	
0.42221   	1.69907e+00		         0.07500	-1.60000e+01	
0.43134   	1.70684e+00		         0.07667	-1.60000e+01	
0.44048   	1.79093e+00		         0.07833	-1.60000e+01	
0.44991   	2.11030e+00		         0.08000	-1.60000e+01	
0.45903   	2.39044e+00		         0.08167	-1.60000e+01	
0.46817   	2.52931e+00		         0.08333	-1.60000e+01	
0.47730   	2.33421e+00		         0.08500	-1.60000e+01	
0.48673   	1.45546e+00		         0.08667	-1.60000e+01	
0.49585   	2.00018e-01		         0.08833	-1.60000e+01	
0.50499   	-1.10294e+00		         0.09000	-1.60000e+01	
0.51413   	-2.12637e+00		         0.09167	-1.60000e+01	
0.52356   	-2.90033e+00		         0.09333	-1.60000e+01	
0.53267   	-3.48628e+00		         0.09500	-1.50000e+01	
0.54181   	-3.87545e+00		         0.09667	-1.50000e+01	
0.55095   	-3.91533e+00		         0.09833	-1.50000e+01	
0.56037   	-3.85427e+00		         0.10000	-1.40000e+01	
0.56949   	-3.59487e+00		         0.10167	-1.40000e+01	
0.57863   	-3.16756e+00		         0.10333	-1.40000e+01	
0.58777   	-2.67042e+00		         0.10500	-1.30000e+01	
0.59720   	-2.24870e+00		         0.10667	-1.30000e+01	
0.60632   	-1.92643e+00		         0.10833	-1.30000e+01	
0.61545   	-1.54768e+00		         0.11000	-1.20000e+01	
0.62459   	-1.15218e+00		         0.11167	-1.20000e+01	
0.63404   	-8.54099e-01		         0.11333	-1.20000e+01	
0.64314   	-5.72010e-01		         0.11500	-1.10000e+01	
0.65228   	-4.13055e-01		         0.11667	-1.10000e+01	
0.66141   	-2.98316e-01		         0.11833	-1.10000e+01	
0.67085   	-2.10235e-01		         0.12000	-1.00000e+01	
0.67996   	-1.20869e-01		         0.12167	-1.00000e+01	
0.68910   	-7.34407e-02		         0.12333	-9.00000e+00	
0.69824   	-9.36509e-02		         0.12500	-9.00000e+00	
0.70767   	-1.71441e-01		         0.12667	-8.00000e+00	
0.71678   	-2.42048e-01		         0.12833	-8.00000e+00	
0.72592   	-3.46587e-01		         0.13000	-7.00000e+00	
0.73506   	-5.02887e-01		         0.13167	-7.00000e+00	
0.74448   	-6.53106e-01		         0.13333	-6.00000e+00	
0.75360   	-8.39019e-01		         0.13500	-6.00000e+00	
0.76274   	-8.96905e-01		         0.13667	-5.00000e+00	
0.77188   	-9.08906e-01		         0.13833	-5.00000e+00	
0.78132   	-8.90712e-01		         0.14000	-5.00000e+00	
0.79043   	-9.38891e-01		         0.14167	-5.00000e+00	
0.79957   	-9.94863e-01		         0.14333	-4.00000e+00	
0.80870   	-8.94483e-01		         0.14500	-4.00000e+00	
0.81814   	-7.01527e-01		         0.14667	-4.00000e+00	
0.82725   	-4.47044e-01		         0.14833	-4.00000e+00	
0.83639   	-2.67577e-01		         0.15000	-3.00000e+00	
0.84553   	-1.39957e-01		         0.15167	-3.00000e+00	
0.85495   	-1.76648e-01		         0.15333	-3.00000e+00	
0.86406   	-2.01479e-01		         0.15500	-2.00000e+00	
0.87321   	-1.31770e-01		         0.15667	-2.00000e+00	
0.88235   	-5.74991e-02		         0.15833	-1.00000e+00	
0.89177   	-1.42468e-01		         0.16000	-1.00000e+00	
0.90089   	-2.45230e-01		         0.16167	-1.00000e+00	
0.91003   	-2.44664e-01		         0.16333	0.00000e+00	
0.91917   	-1.72808e-01		         0.16500	0.00000e+00	
0.92859   	-1.35596e-01		         0.16667	0.00000e+00	
0.93771   	-1.47641e-01		         0.16833	0.00000e+00	
0.94685   	-1.59520e-01		         0.17000	0.00000e+00	
0.95599   	-1.45226e-01		         0.17167	0.00000e+00	
0.96542   	-1.61859e-01		         0.17333	0.00000e+00	
0.97468   	-1.74621e-01		         0.17500	-1.00000e+00	
0.98368   	-1.67006e-01		         0.17667	-1.00000e+00	
0.99281   	-1.59803e-01		         0.17833	-1.00000e+00	
1.00225   	-1.63863e-01		         0.18000	-2.00000e+00	
1.01136   	-3.31577e-01		         0.18167	-2.00000e+00	
1.02050   	-5.48564e-01		         0.18333	-2.00000e+00	
1.02964   	-1.03993e+00		         0.18500	-2.00000e+00	
1.03907   	-1.79213e+00		         0.18667	-2.00000e+00	
1.04818   	-2.86611e+00		         0.18833	-2.00000e+00	
1.05736   	-4.10815e+00		         0.19000	-3.00000e+00	
1.06646   	-5.60842e+00		         0.19167	-3.00000e+00	
1.07588   	-7.10110e+00		         0.19333	-3.00000e+00	
1.08500   	-8.20521e+00		         0.19500	-3.00000e+00	
1.09414   	-8.67022e+00		         0.19667	-3.00000e+00	
1.10328   	-8.67842e+00		         0.19833	-3.00000e+00	
1.11271   	-8.28965e+00		         0.20000	-2.00000e+00	
1.12182   	-7.39841e+00		         0.20167	-2.00000e+00	
1.13096   	-6.22057e+00		         0.20333	-2.00000e+00	
1.14010   	-4.94078e+00		         0.20500	-2.00000e+00	
1.14954   	-3.86295e+00		         0.20667	-2.00000e+00	
1.15865   	-2.95642e+00		         0.20833	-2.00000e+00	
1.16779   	-2.31374e+00		         0.21000	-2.00000e+00	
1.17693   	-1.70126e+00		         0.21167	-2.00000e+00	
1.18635   	-1.04993e+00		         0.21333	-2.00000e+00	
1.19547   	-3.84182e-01		         0.21500	-1.00000e+00	
1.20461   	3.60718e-01		         0.21667	-1.00000e+00	
1.21375   	1.27105e+00		         0.21833	-1.00000e+00	
1.22320   	2.31460e+00		         0.22000	-1.00000e+00	
1.23229   	2.90508e+00		         0.22167	-1.00000e+00	
1.24143   	1.60977e+00		         0.22333	-1.00000e+00	
1.25057   	-4.80941e-01		         0.22500	-1.00000e+00	
1.26001   	-2.20916e+00		         0.22667	-1.00000e+00	
1.26912   	-1.59457e+00		         0.22833	-1.00000e+00	
1.27825   	1.05516e-01		         0.23000	-1.00000e+00	
1.28739   	2.32899e+00		         0.23167	-1.00000e+00	
1.29682   	4.03993e+00		         0.23333	-1.00000e+00	
1.30630   	5.42434e+00		         0.23500	-1.00000e+00	
1.31508   	6.12656e+00		         0.23667	-2.00000e+00	
1.32421   	6.38632e+00		         0.23833	-2.00000e+00	
1.33365   	6.27452e+00		         0.24000	-2.00000e+00	
1.34276   	5.90694e+00		         0.24167	-2.00000e+00	
1.35190   	5.60002e+00		         0.24333	-2.00000e+00	
1.36104   	5.33008e+00		         0.24500	-1.00000e+00	
1.37046   	5.14307e+00		         0.24667	-1.00000e+00	
1.37958   	4.95468e+00		         0.24833	0.00000e+00	
1.38872   	4.80128e+00		         0.25000	0.00000e+00	
1.39786   	4.74863e+00		         0.25167	1.00000e+00	
1.40729   	4.65162e+00		         0.25333	1.00000e+00	
1.41640   	4.52194e+00		         0.25500	2.00000e+00	
1.42554   	4.31888e+00		         0.25667	2.00000e+00	
1.43468   	4.13823e+00		         0.25833	2.00000e+00	
1.44412   	3.99474e+00		         0.26000	2.00000e+00	
1.45322   	3.73111e+00		         0.26167	2.00000e+00	
1.46236   	3.60433e+00		         0.26333	2.00000e+00	
1.47150   	3.47703e+00		         0.26500	2.00000e+00	
1.48093   	3.43366e+00		         0.26667	2.00000e+00	
1.49005   	3.30828e+00		         0.26833	1.00000e+00	
1.49918   	3.12408e+00		         0.27000	1.00000e+00	
1.50832   	2.88717e+00		         0.27167	0.00000e+00	
1.51776   	2.64596e+00		         0.27333	0.00000e+00	
1.52687   	2.37157e+00		         0.27500	0.00000e+00	
1.53601   	2.15281e+00		         0.27667	-1.00000e+00	
1.54514   	1.77853e+00		         0.27833	-1.00000e+00	
1.55456   	1.38364e+00		         0.28000	-1.00000e+00	
1.56369   	1.00696e+00		         0.28167	-1.00000e+00	
1.57283   	3.81251e-01		         0.28333	-1.00000e+00	
1.58197   	-5.94070e-01		         0.28500	-1.00000e+00	
1.59139   	-1.81138e+00		         0.28667	-1.00000e+00	
1.60051   	-2.48461e+00		         0.28833	-1.00000e+00	
1.60965   	-1.44992e+00		         0.29000	-1.00000e+00	
1.61879   	-1.44813e-02		         0.29167	-1.00000e+00	
1.62822   	1.45972e+00		         0.29333	0.00000e+00	
1.63733   	1.77085e+00		         0.29500	0.00000e+00	
1.64647   	2.19374e+00		         0.29667	-1.00000e+00	
1.65561   	2.77055e+00		         0.29833	-1.00000e+00	
1.66503   	3.41648e+00		         0.30000	-1.00000e+00	
1.67416   	3.83719e+00		         0.30167	-1.00000e+00	
1.68330   	3.75910e+00		         0.30333	-1.00000e+00	
1.69243   	3.31560e+00		         0.30500	-2.00000e+00	
1.70185   	2.44411e+00		         0.30667	-2.00000e+00	
1.71098   	1.27707e+00		         0.30833	-3.00000e+00	
1.72012   	-1.95230e-01		         0.31000	-3.00000e+00	
1.72926   	-1.38880e+00		         0.31167	-3.00000e+00	
1.73869   	-2.36764e+00		         0.31333	-4.00000e+00	
1.74780   	-2.99709e+00		         0.31500	-4.00000e+00	
1.75694   	-3.61874e+00		         0.31667	-4.00000e+00	
1.76608   	-4.05413e+00		         0.31833	-4.00000e+00	
1.77551   	-4.20646e+00		         0.32000	-4.00000e+00	
1.78462   	-4.00416e+00		         0.32167	-4.00000e+00	
1.79376   	-3.61166e+00		         0.32333	-4.00000e+00	
1.80290   	-2.90852e+00		         0.32500	-4.00000e+00	
1.81232   	-2.54678e+00		         0.32667	-5.00000e+00	
1.82145   	-2.00620e+00		         0.32833	-5.00000e+00	
1.83059   	-1.74687e+00		         0.33000	-5.00000e+00	
1.83972   	-1.43976e+00		         0.33167	-5.00000e+00	
1.84915   	-1.15079e+00		         0.33333	-5.00000e+00	
1.85827   	-8.07629e-01		         0.33500	-5.00000e+00	
1.86741   	-4.90769e-01		         0.33667	-6.00000e+00	
1.87654   	-2.56470e-01		         0.33833	-6.00000e+00	
1.88596   	-1.95072e-01		         0.34000	-5.00000e+00	
1.89509   	1.44820e-02		         0.34167	-5.00000e+00	
1.90423   	-4.11255e-02		         0.34333	-5.00000e+00	
1.91337   	-2.31839e-01		         0.34500	-4.00000e+00	
1.92280   	-2.47691e-01		         0.34667	-3.00000e+00	
1.93191   	-4.92824e-01		         0.34833	-3.00000e+00	
1.94105   	-3.54010e-01		         0.35000	-2.00000e+00	
1.95019   	-4.32239e-01		         0.35167	-1.00000e+00	
1.95962   	-3.81430e-01		         0.35333	-1.00000e+00	
1.96873   	-5.37285e-01		         0.35500	0.00000e+00	
1.97787   	-7.04501e-01		         0.35667	0.00000e+00	
1.98701   	-7.02402e-01		         0.35833	0.00000e+00	
1.99645   	-6.18015e-01		         0.36000	0.00000e+00	
2.00556   	-4.94303e-01		         0.36167	0.00000e+00	
2.01470   	-4.15663e-01		         0.36333	0.00000e+00	
2.02384   	-4.89838e-01		         0.36500	0.00000e+00	
2.03326   	-5.14388e-01		         0.36667	-1.00000e+00	
2.04238   	-4.93107e-01		         0.36833	-1.00000e+00	
2.05152   	-3.51345e-01		         0.37000	-1.00000e+00	
2.06066   	-1.84261e-01		         0.37167	-1.00000e+00	
2.07007   	1.39383e-02		         0.37333	-1.00000e+00	
2.07920   	1.58352e-02		         0.37500	-1.00000e+00	
2.08834   	-3.31554e-02		         0.37667	-1.00000e+00	
2.09748   	-1.77926e-01		         0.37833	-1.00000e+00	
2.10691   	-1.18958e-01		         0.38000	-1.00000e+00	
2.11602   	-2.18504e-01		         0.38167	-1.00000e+00	
2.12516   	-2.17212e-01		         0.38333	-1.00000e+00	
2.13430   	-1.71739e-01		         0.38500	-1.00000e+00	
2.14373   	-6.35066e-02		         0.38667	-1.00000e+00	
2.15304   	1.48832e-02		         0.38833	-1.00000e+00	
2.16198   	2.17331e-01		         0.39000	-1.00000e+00	
2.17112   	2.26610e-01		         0.39167	-1.00000e+00	
2.18055   	3.78732e-01		         0.39333	-1.00000e+00	
2.18967   	-1.73892e-02		         0.39500	-1.00000e+00	
2.19881   	1.55129e-02		         0.39667	-1.00000e+00	
2.20794   	-1.66140e-01		         0.39833	-2.00000e+00	
2.21736   	-1.07631e-01		         0.40000	-2.00000e+00	
2.22649   	-8.92000e-02		         0.40167	-2.00000e+00	
2.23602   	-2.51015e-01		         0.40333	-2.00000e+00	
2.24477   	-6.06783e-01		         0.40500	-3.00000e+00	
2.25419   	-1.57110e+00		         0.40667	-3.00000e+00	
2.26331   	-2.71257e+00		         0.40833	-3.00000e+00	
2.27245   	-4.04178e+00		         0.41000	-3.00000e+00	
2.28159   	-5.33307e+00		         0.41167	-3.00000e+00	
2.29102   	-6.59841e+00		         0.41333	-3.00000e+00	
2.30013   	-7.77157e+00		         0.41500	-3.00000e+00	
2.30927   	-8.64078e+00		         0.41667	-3.00000e+00	
2.31841   	-8.85317e+00		         0.41833	-3.00000e+00	
2.32783   	-8.55566e+00		         0.42000	-3.00000e+00	
2.33695   	-7.59474e+00		         0.42167	-3.00000e+00	
2.34609   	-6.47278e+00		         0.42333	-2.00000e+00	
2.35523   	-5.03723e+00		         0.42500	-2.00000e+00	
2.36465   	-3.94122e+00		         0.42667	-2.00000e+00	
2.37378   	-3.09115e+00		         0.42833	-2.00000e+00	
2.38291   	-2.62590e+00		         0.43000	-2.00000e+00	
2.39205   	-2.23409e+00		         0.43167	-1.00000e+00	
2.40149   	-1.81942e+00		         0.43333	-1.00000e+00	
2.41060   	-1.35707e+00		         0.43500	-1.00000e+00	
2.41974   	-9.39880e-01		         0.43667	-1.00000e+00	
2.42888   	-2.72562e-01		         0.43833	-1.00000e+00	
2.43830   	1.10780e+00		         0.44000	-1.00000e+00	
2.44742   	2.43693e+00		         0.44167	0.00000e+00	
2.45656   	3.11402e+00		         0.44333	0.00000e+00	
2.46570   	1.10329e+00		         0.44500	0.00000e+00	
2.47513   	-5.67881e-01		         0.44667	0.00000e+00	
2.48424   	-1.55204e+00		         0.44833	0.00000e+00	
2.49338   	-4.90425e-01		         0.45000	0.00000e+00	
2.50252   	9.62046e-01		         0.45167	1.00000e+00	
2.51196   	2.50147e+00		         0.45333	1.00000e+00	
2.52106   	4.13818e+00		         0.45500	1.00000e+00	
2.53020   	5.10206e+00		         0.45667	0.00000e+00	
2.53935   	5.57016e+00		         0.45833	0.00000e+00	
2.54876   	5.68262e+00		         0.46000	0.00000e+00	
2.55789   	5.57229e+00		         0.46167	0.00000e+00	
2.56703   	5.36346e+00		         0.46333	-1.00000e+00	
2.57617   	5.16803e+00		         0.46500	-1.00000e+00	
2.58558   	5.08258e+00		         0.46667	-1.00000e+00	
2.59471   	4.97747e+00		         0.46833	-2.00000e+00	
2.60385   	4.76418e+00		         0.47000	-2.00000e+00	
2.61299   	4.53793e+00		         0.47167	-2.00000e+00	
2.62241   	4.41121e+00		         0.47333	-3.00000e+00	
2.63153   	4.35444e+00		         0.47500	-3.00000e+00	
2.64067   	4.29118e+00		         0.47667	-3.00000e+00	
2.64981   	4.21064e+00		         0.47833	-2.00000e+00	
2.65923   	4.13754e+00		         0.48000	-2.00000e+00	
2.66835   	4.00999e+00		         0.48167	-1.00000e+00	
2.67749   	3.79649e+00		         0.48333	-1.00000e+00	
2.68663   	3.54201e+00		         0.48500	0.00000e+00	
2.69607   	3.36861e+00		         0.48667	0.00000e+00	
2.70518   	3.16698e+00		         0.48833	1.00000e+00	
2.71431   	3.02314e+00		         0.49000	1.00000e+00	
2.72345   	2.89662e+00		         0.49167	2.00000e+00	
2.73289   	2.85377e+00		         0.49333	2.00000e+00	
2.74200   	2.72580e+00		         0.49500	2.00000e+00	
2.75114   	2.46515e+00		         0.49667	2.00000e+00	
2.76028   	2.13029e+00		         0.49833	2.00000e+00	
2.76970   	1.80048e+00		         0.50000	2.00000e+00	
2.77882   	1.32668e+00		         0.50167	2.00000e+00	
2.78796   	7.22698e-01		         0.50333	2.00000e+00	
2.79710   	-2.23144e-01		         0.50500	1.00000e+00	
2.80652   	-1.32060e+00		         0.50667	1.00000e+00	
2.81564   	-1.94645e+00		         0.50833	1.00000e+00	
2.82478   	-8.84829e-01		         0.51000	1.00000e+00	
2.83392   	6.32057e-01		         0.51167	0.00000e+00	
2.84334   	1.77267e+00		         0.51333	0.00000e+00	
2.85246   	1.76066e+00		         0.51500	0.00000e+00	
2.86161   	1.87303e+00		         0.51667	0.00000e+00	
2.87074   	2.42046e+00		         0.51833	0.00000e+00	
2.88019   	2.97129e+00		         0.52000	0.00000e+00	
2.88929   	3.29116e+00		         0.52167	0.00000e+00	
2.89842   	3.31345e+00		         0.52333	0.00000e+00	
2.90756   	2.70218e+00		         0.52500	0.00000e+00	
2.91699   	1.84972e+00		         0.52667	0.00000e+00	
2.92611   	3.50637e-01		         0.52833	0.00000e+00	
2.93525   	-7.95695e-01		         0.53000	0.00000e+00	
2.94439   	-1.94412e+00		         0.53167	0.00000e+00	
2.95382   	-2.70702e+00		         0.53333	0.00000e+00	
2.96293   	-3.33862e+00		         0.53500	0.00000e+00	
2.97206   	-3.82699e+00		         0.53667	0.00000e+00	
2.98121   	-4.03638e+00		         0.53833	0.00000e+00	
2.99064   	-4.15050e+00		         0.54000	0.00000e+00	
2.99975   	-3.90026e+00		         0.54167	1.00000e+00	
3.00889   	-3.49523e+00		         0.54333	1.00000e+00	
3.01803   	-2.96575e+00		         0.54500	1.00000e+00	
3.02746   	-2.26490e+00		         0.54667	1.00000e+00	
3.03658   	-1.77186e+00		         0.54833	1.00000e+00	
3.04572   	-1.31787e+00		         0.55000	1.00000e+00	
3.05485   	-1.25160e+00		         0.55167	0.00000e+00	
3.06427   	-9.31546e-01		         0.55333	0.00000e+00	
3.07340   	-6.95108e-01		         0.55500	0.00000e+00	
3.08268   	-3.72962e-01		         0.55667	0.00000e+00	
3.09168   	-2.57945e-01		         0.55833	-1.00000e+00	
3.10111   	-2.14176e-01		         0.56000	-1.00000e+00	
3.11022   	-2.76241e-01		         0.56167	-1.00000e+00	
3.11936   	-3.76101e-01		         0.56333	-2.00000e+00	
3.12850   	-4.47679e-01		         0.56500	-2.00000e+00	
3.13792   	-4.75662e-01		         0.56667	-3.00000e+00	
3.14704   	-5.39634e-01		         0.56833	-3.00000e+00	
3.15618   	-6.47083e-01		         0.57000	-2.00000e+00	
3.16560   	-7.47273e-01		         0.57167	-2.00000e+00	
3.17475   	-8.15788e-01		         0.57333	-2.00000e+00	
3.18386   	-8.97126e-01		         0.57500	-2.00000e+00	
3.19300   	-8.96405e-01		         0.57667	-1.00000e+00	
3.20214   	-8.16492e-01		         0.57833	-1.00000e+00	
3.21157   	-6.69169e-01		         0.58000	-1.00000e+00	
3.22069   	-5.70808e-01		         0.58167	0.00000e+00	
3.22982   	-5.80371e-01		         0.58333	0.00000e+00	
3.23896   	-5.50020e-01		         0.58500	1.00000e+00	
3.24877   	-5.66095e-01		         0.58667	1.00000e+00	
3.25751   	-5.67292e-01		         0.58833	1.00000e+00	
3.26665   	-5.66382e-01		         0.59000	1.00000e+00	
3.27579   	-4.92047e-01		         0.59167	2.00000e+00	
3.28521   	-4.03352e-01		         0.59333	2.00000e+00	
3.29433   	-3.36218e-01		         0.59500	2.00000e+00	
3.30347   	-3.21920e-01		         0.59667	2.00000e+00	
3.31261   	-3.14842e-01		         0.59833	2.00000e+00	
3.32203   	-3.22839e-01		         0.60000	2.00000e+00	
3.33115   	-3.06482e-01		         0.60167	1.00000e+00	
3.34029   	-2.88165e-01		         0.60333	1.00000e+00	
3.34943   	-3.07009e-01		         0.60500	1.00000e+00	
3.35886   	-3.19851e-01		         0.60667	1.00000e+00	
3.36798   	-3.06852e-01		         0.60833	1.00000e+00	
3.37711   	-2.38365e-01		         0.61000	1.00000e+00	
3.38625   	-2.32039e-01		         0.61167	1.00000e+00	
3.39568   	-2.76382e-01		         0.61333	1.00000e+00	
3.40480   	-3.65321e-01		         0.61500	0.00000e+00	
3.41393   	-3.47113e-01		         0.61667	0.00000e+00	
3.42308   	-3.13294e-01		         0.61833	0.00000e+00	
3.43249   	-1.89402e-01		         0.62000	0.00000e+00	
3.44162   	-3.39011e-01		         0.62167	0.00000e+00	
3.45076   	-8.05526e-01		         0.62333	0.00000e+00	
3.45990   	-1.39772e+00		         0.62500	1.00000e+00	
3.46933   	-2.13173e+00		         0.62667	1.00000e+00	
3.47844   	-2.95793e+00		         0.62833	1.00000e+00	
3.48758   	-4.21337e+00		         0.63000	1.00000e+00	
3.49672   	-5.71871e+00		         0.63167	1.00000e+00	
3.50614   	-7.06039e+00		         0.63333	1.00000e+00	
3.51526   	-8.17363e+00		         0.63500	0.00000e+00	
3.52440   	-8.63785e+00		         0.63667	0.00000e+00	
3.53354   	-8.54750e+00		         0.63833	0.00000e+00	
3.54296   	-7.85353e+00		         0.64000	0.00000e+00	
3.55209   	-6.95041e+00		         0.64167	-1.00000e+00	
3.56122   	-5.96278e+00		         0.64333	-1.00000e+00	
3.57036   	-4.94546e+00		         0.64500	-1.00000e+00	
3.57977   	-3.89472e+00		         0.64667	-1.00000e+00	
3.58891   	-3.18495e+00		         0.64833	-2.00000e+00	
3.59804   	-2.74272e+00		         0.65000	-2.00000e+00	
3.60718   	-2.05587e+00		         0.65167	-2.00000e+00	
3.61661   	-1.27733e+00		         0.65333	-2.00000e+00	
3.62573   	-6.41227e-01		         0.65500	-2.00000e+00	
3.63487   	-3.46478e-01		         0.65667	-2.00000e+00	
3.64401   	5.12742e-01		         0.65833	-2.00000e+00	
3.65344   	1.82669e+00		         0.66000	-2.00000e+00	
3.66255   	2.72617e+00		         0.66167	-2.00000e+00	
			         0.66333	-1.00000e+00	
			         0.66500	-1.00000e+00	
			         0.66667	-1.00000e+00	
			         0.66833	-1.00000e+00	
			         0.67000	-1.00000e+00	
			         0.67167	-1.00000e+00	
			         0.67333	-1.00000e+00	
			         0.67500	0.00000e+00	
			         0.67667	0.00000e+00	
			         0.67833	0.00000e+00	
			         0.68000	0.00000e+00	
			         0.68167	0.00000e+00	
			         0.68333	0.00000e+00	
			         0.68500	0.00000e+00	
			         0.68667	0.00000e+00	
			         0.68833	-1.00000e+00	
			         0.69000	-1.00000e+00	
			         0.69167	-1.00000e+00	
			         0.69333	-1.00000e+00	
			         0.69500	-1.00000e+00	
			         0.69667	-1.00000e+00	
			         0.69833	-1.00000e+00	
			         0.70000	-1.00000e+00	
			         0.70167	-1.00000e+00	
			         0.70333	-1.00000e+00	
			         0.70500	-1.00000e+00	
			         0.70667	-1.00000e+00	
			         0.70833	0.00000e+00	
			         0.71000	0.00000e+00	
			         0.71167	0.00000e+00	
			         0.71333	0.00000e+00	
			         0.71500	1.00000e+00	
			         0.71667	1.00000e+00	
			         0.71833	1.00000e+00	
			         0.72000	2.00000e+00	
			         0.72167	2.00000e+00	
			         0.72333	2.00000e+00	
			         0.72500	2.00000e+00	
			         0.72667	3.00000e+00	
			         0.72833	3.00000e+00	
			         0.73000	3.00000e+00	
			         0.73167	3.00000e+00	
			         0.73333	3.00000e+00	
			         0.73500	3.00000e+00	
			         0.73667	3.00000e+00	
			         0.73833	3.00000e+00	
			         0.74000	3.00000e+00	
			         0.74167	3.00000e+00	
			         0.74333	2.00000e+00	
			         0.74500	2.00000e+00	
			         0.74667	2.00000e+00	
			         0.74833	2.00000e+00	
			         0.75000	2.00000e+00	
			         0.75167	1.00000e+00	
			         0.75333	1.00000e+00	
			         0.75500	1.00000e+00	
			         0.75667	0.00000e+00	
			         0.75833	0.00000e+00	
			         0.76000	-1.00000e+00	
			         0.76167	-1.00000e+00	
			         0.76333	-2.00000e+00	
			         0.76500	-3.00000e+00	
			         0.76667	-3.00000e+00	
			         0.76833	-4.00000e+00	
			         0.77000	-4.00000e+00	
			         0.77167	-5.00000e+00	
			         0.77333	-5.00000e+00	
			         0.77500	-5.00000e+00	
			         0.77667	-5.00000e+00	
			         0.77833	-5.00000e+00	
			         0.78000	-5.00000e+00	
			         0.78167	-5.00000e+00	
			         0.78333	-4.00000e+00	
			         0.78500	-4.00000e+00	
			         0.78667	-4.00000e+00	
			         0.78833	-4.00000e+00	
			         0.79000	-4.00000e+00	
			         0.79167	-4.00000e+00	
			         0.79333	-4.00000e+00	
			         0.79500	-4.00000e+00	
			         0.79667	-4.00000e+00	
			         0.79833	-4.00000e+00	
			         0.80000	-4.00000e+00	
			         0.80167	-4.00000e+00	
			         0.80333	-3.00000e+00	
			         0.80500	-3.00000e+00	
			         0.80667	-3.00000e+00	
			         0.80833	-3.00000e+00	
			         0.81000	-3.00000e+00	
			         0.81167	-3.00000e+00	
			         0.81333	-3.00000e+00	
			         0.81500	-2.00000e+00	
			         0.81667	-2.00000e+00	
			         0.81833	-2.00000e+00	
			         0.82000	-2.00000e+00	
			         0.82167	-2.00000e+00	
			         0.82333	-2.00000e+00	
			         0.82500	-2.00000e+00	
			         0.82667	-2.00000e+00	
			         0.82833	-2.00000e+00	
			         0.83000	-2.00000e+00	
			         0.83167	-2.00000e+00	
			         0.83333	-2.00000e+00	
			         0.83500	-2.00000e+00	
			         0.83667	-1.00000e+00	
			         0.83833	-1.00000e+00	
			         0.84000	-1.00000e+00	
			         0.84167	0.00000e+00	
			         0.84333	0.00000e+00	
			         0.84500	0.00000e+00	
			         0.84667	1.00000e+00	
			         0.84833	1.00000e+00	
			         0.85000	2.00000e+00	
			         0.85167	2.00000e+00	
			         0.85333	2.00000e+00	
			         0.85500	2.00000e+00	
			         0.85667	2.00000e+00	
			         0.85833	3.00000e+00	
			         0.86000	3.00000e+00	
			         0.86167	3.00000e+00	
			         0.86333	3.00000e+00	
			         0.86500	3.00000e+00	
			         0.86667	3.00000e+00	
			         0.86833	3.00000e+00	
			         0.87000	3.00000e+00	
			         0.87167	3.00000e+00	
			         0.87333	3.00000e+00	
			         0.87500	3.00000e+00	
			         0.87667	3.00000e+00	
			         0.87833	3.00000e+00	
			         0.88000	3.00000e+00	
			         0.88167	3.00000e+00	
			         0.88333	2.00000e+00	
			         0.88500	2.00000e+00	
			         0.88667	2.00000e+00	
			         0.88833	2.00000e+00	
			         0.89000	1.00000e+00	
			         0.89167	1.00000e+00	
			         0.89333	1.00000e+00	
			         0.89500	1.00000e+00	
			         0.89667	0.00000e+00	
			         0.89833	0.00000e+00	
			         0.90000	0.00000e+00	
			         0.90167	0.00000e+00	
			         0.90333	0.00000e+00	
			         0.90500	0.00000e+00	
			         0.90667	-1.00000e+00	
			         0.90833	-1.00000e+00	
			         0.91000	-1.00000e+00	
			         0.91167	-1.00000e+00	
			         0.91333	-1.00000e+00	
			         0.91500	-1.00000e+00	
			         0.91667	-1.00000e+00	
			         0.91833	-1.00000e+00	
			         0.92000	-1.00000e+00	
			         0.92167	-1.00000e+00	
			         0.92333	-1.00000e+00	
			         0.92500	-1.00000e+00	
			         0.92667	-1.00000e+00	
			         0.92833	-1.00000e+00	
			         0.93000	-1.00000e+00	
			         0.93167	-1.00000e+00	
			         0.93333	-1.00000e+00	
			         0.93500	-1.00000e+00	
			         0.93667	0.00000e+00	
			         0.93833	0.00000e+00	
			         0.94000	1.00000e+00	
			         0.94167	1.00000e+00	
			         0.94333	2.00000e+00	
			         0.94500	2.00000e+00	
			         0.94667	3.00000e+00	
			         0.94833	3.00000e+00	
			         0.95000	3.00000e+00	
			         0.95167	3.00000e+00	
			         0.95333	3.00000e+00	
			         0.95500	3.00000e+00	
			         0.95667	3.00000e+00	
			         0.95833	2.00000e+00	
			         0.96000	2.00000e+00	
			         0.96167	1.00000e+00	
			         0.96333	1.00000e+00	
			         0.96500	0.00000e+00	
			         0.96667	-1.00000e+00	
			         0.96833	-1.00000e+00	
			         0.97000	-2.00000e+00	
			         0.97167	-2.00000e+00	
			         0.97333	-2.00000e+00	
			         0.97500	-2.00000e+00	
			         0.97667	-2.00000e+00	
			         0.97833	-2.00000e+00	
			         0.98000	-2.00000e+00	
			         0.98167	-1.00000e+00	
			         0.98333	-1.00000e+00	
			         0.98500	-1.00000e+00	
			         0.98667	-1.00000e+00	
			         0.98833	-1.00000e+00	
			         0.99000	0.00000e+00	
			         0.99167	0.00000e+00	
			         0.99333	-1.00000e+00	
			         0.99500	-1.00000e+00	
			         0.99667	-1.00000e+00	
			         0.99833	-1.00000e+00	
			         1.00000	-1.00000e+00	
			         1.00167	-2.00000e+00	
			         1.00333	-2.00000e+00	
			         1.00500	-2.00000e+00	
			         1.00667	-2.00000e+00	
			         1.00833	-3.00000e+00	
			         1.01000	-3.00000e+00	
			         1.01167	-3.00000e+00	
			         1.01333	-3.00000e+00	
			         1.01500	-3.00000e+00	
			         1.01667	-3.00000e+00	
			         1.01833	-3.00000e+00	
			         1.02000	-3.00000e+00	
			         1.02167	-3.00000e+00	
			         1.02333	-2.00000e+00	
			         1.02500	-2.00000e+00	
			         1.02667	-2.00000e+00	
			         1.02833	-1.00000e+00	
			         1.03000	-1.00000e+00	
			         1.03167	-1.00000e+00	
			         1.03333	0.00000e+00	
			         1.03500	0.00000e+00	
			         1.03667	0.00000e+00	
			         1.03833	0.00000e+00	
			         1.04000	0.00000e+00	
			         1.04167	0.00000e+00	
			         1.04333	0.00000e+00	
			         1.04500	-1.00000e+00	
			         1.04667	-1.00000e+00	
			         1.04833	-1.00000e+00	
			         1.05000	-2.00000e+00	
			         1.05167	-2.00000e+00	
			         1.05333	-3.00000e+00	
			         1.05500	-3.00000e+00	
			         1.05667	-3.00000e+00	
			         1.05833	-4.00000e+00	
			         1.06000	-4.00000e+00	
			         1.06167	-4.00000e+00	
			         1.06333	-4.00000e+00	
			         1.06500	-4.00000e+00	
			         1.06667	-4.00000e+00	
			         1.06833	-4.00000e+00	
			         1.07000	-4.00000e+00	
			         1.07167	-4.00000e+00	
			         1.07333	-4.00000e+00	
			         1.07500	-4.00000e+00	
			         1.07667	-4.00000e+00	
			         1.07833	-4.00000e+00	
			         1.08000	-4.00000e+00	
			         1.08167	-4.00000e+00	
			         1.08333	-4.00000e+00	
			         1.08500	-4.00000e+00	
			         1.08667	-4.00000e+00	
			         1.08833	-4.00000e+00	
			         1.09000	-4.00000e+00	
			         1.09167	-4.00000e+00	
			         1.09333	-4.00000e+00	
			         1.09500	-4.00000e+00	
			         1.09667	-4.00000e+00	
			         1.09833	-4.00000e+00	
			         1.10000	-4.00000e+00	
			         1.10167	-4.00000e+00	
			         1.10333	-3.00000e+00	
			         1.10500	-3.00000e+00	
			         1.10667	-3.00000e+00	
			         1.10833	-3.00000e+00	
			         1.11000	-3.00000e+00	
			         1.11167	-3.00000e+00	
			         1.11333	-3.00000e+00	
			         1.11500	-4.00000e+00	
			         1.11667	-4.00000e+00	
			         1.11833	-4.00000e+00	
			         1.12000	-5.00000e+00	
			         1.12167	-5.00000e+00	
			         1.12333	-5.00000e+00	
			         1.12500	-6.00000e+00	
			         1.12667	-6.00000e+00	
			         1.12833	-6.00000e+00	
			         1.13000	-6.00000e+00	
			         1.13167	-6.00000e+00	
			         1.13333	-6.00000e+00	
			         1.13500	-6.00000e+00	
			         1.13667	-6.00000e+00	
			         1.13833	-6.00000e+00	
			         1.14000	-6.00000e+00	
			         1.14167	-5.00000e+00	
			         1.14333	-5.00000e+00	
			         1.14500	-5.00000e+00	
			         1.14667	-4.00000e+00	
			         1.14833	-4.00000e+00	
			         1.15000	-3.00000e+00	
			         1.15167	-3.00000e+00	
			         1.15333	-3.00000e+00	
			         1.15500	-2.00000e+00	
			         1.15667	-2.00000e+00	
			         1.15833	-2.00000e+00	
			         1.16000	-2.00000e+00	
			         1.16167	-2.00000e+00	
			         1.16333	-2.00000e+00	
			         1.16500	-1.00000e+00	
			         1.16667	-1.00000e+00	
			         1.16833	-1.00000e+00	
			         1.17000	-2.00000e+00	
			         1.17167	-2.00000e+00	
			         1.17333	-3.00000e+00	
			         1.17500	-3.00000e+00	
			         1.17667	-4.00000e+00	
			         1.17833	-5.00000e+00	
			         1.18000	-6.00000e+00	
			         1.18167	-7.00000e+00	
			         1.18333	-9.00000e+00	
			         1.18500	-1.00000e+01	
			         1.18667	-1.10000e+01	
			         1.18833	-1.10000e+01	
			         1.19000	-1.20000e+01	
			         1.19167	-1.10000e+01	
			         1.19333	-1.00000e+01	
			         1.19500	-9.00000e+00	
			         1.19667	-6.00000e+00	
			         1.19833	-3.00000e+00	
			         1.20000	2.00000e+00	
			         1.20167	7.00000e+00	
			         1.20333	1.20000e+01	
			         1.20500	1.80000e+01	
			         1.20667	2.50000e+01	
			         1.20833	3.20000e+01	
			         1.21000	3.90000e+01	
			         1.21167	4.50000e+01	
			         1.21333	5.20000e+01	
			         1.21500	5.80000e+01	
			         1.21667	6.30000e+01	
			         1.21833	6.70000e+01	
			         1.22000	7.00000e+01	
			         1.22167	7.10000e+01	
			         1.22333	7.20000e+01	
			         1.22500	7.20000e+01	
			         1.22667	7.00000e+01	
			         1.22833	6.60000e+01	
			         1.23000	6.20000e+01	
			         1.23167	5.70000e+01	
			         1.23333	5.10000e+01	
			         1.23500	4.50000e+01	
			         1.23667	3.80000e+01	
			         1.23833	3.10000e+01	
			         1.24000	2.40000e+01	
			         1.24167	1.80000e+01	
			         1.24333	1.10000e+01	
			         1.24500	5.00000e+00	
			         1.24667	0.00000e+00	
			         1.24833	-4.00000e+00	
			         1.25000	-8.00000e+00	
			         1.25167	-1.20000e+01	
			         1.25333	-1.50000e+01	
			         1.25500	-1.70000e+01	
			         1.25667	-1.90000e+01	
			         1.25833	-2.00000e+01	
			         1.26000	-2.10000e+01	
			         1.26167	-2.10000e+01	
			         1.26333	-2.20000e+01	
			         1.26500	-2.20000e+01	
			         1.26667	-2.20000e+01	
			         1.26833	-2.10000e+01	
			         1.27000	-2.10000e+01	
			         1.27167	-2.00000e+01	
			         1.27333	-2.00000e+01	
			         1.27500	-1.90000e+01	
			         1.27667	-1.90000e+01	
			         1.27833	-1.80000e+01	
			         1.28000	-1.70000e+01	
			         1.28167	-1.70000e+01	
			         1.28333	-1.60000e+01	
			         1.28500	-1.50000e+01	
			         1.28667	-1.50000e+01	
			         1.28833	-1.40000e+01	
			         1.29000	-1.30000e+01	
			         1.29167	-1.30000e+01	
			         1.29333	-1.30000e+01	
			         1.29500	-1.20000e+01	
			         1.29667	-1.20000e+01	
			         1.29833	-1.20000e+01	
			         1.30000	-1.20000e+01	
			         1.30167	-1.20000e+01	
			         1.30333	-1.30000e+01	
			         1.30500	-1.30000e+01	
			         1.30667	-1.30000e+01	
			         1.30833	-1.30000e+01	
			         1.31000	-1.30000e+01	
			         1.31167	-1.30000e+01	
			         1.31333	-1.20000e+01	
			         1.31500	-1.20000e+01	
			         1.31667	-1.10000e+01	
			         1.31833	-1.10000e+01	
			         1.32000	-1.00000e+01	
			         1.32167	-9.00000e+00	
			         1.32333	-9.00000e+00	
			         1.32500	-8.00000e+00	
			         1.32667	-8.00000e+00	
			         1.32833	-7.00000e+00	
			         1.33000	-7.00000e+00	
			         1.33167	-6.00000e+00	
			         1.33333	-6.00000e+00	
			         1.33500	-6.00000e+00	
			         1.33667	-5.00000e+00	
			         1.33833	-5.00000e+00	
			         1.34000	-5.00000e+00	
			         1.34167	-5.00000e+00	
			         1.34333	-4.00000e+00	
			         1.34500	-4.00000e+00	
			         1.34667	-3.00000e+00	
			         1.34833	-3.00000e+00	
			         1.35000	-2.00000e+00	
			         1.35167	-2.00000e+00	
			         1.35333	-2.00000e+00	
			         1.35500	-2.00000e+00	
			         1.35667	-1.00000e+00	
			         1.35833	-1.00000e+00	
			         1.36000	-1.00000e+00	
			         1.36167	-2.00000e+00	
			         1.36333	-2.00000e+00	
			         1.36500	-2.00000e+00	
			         1.36667	-2.00000e+00	
			         1.36833	-3.00000e+00	
			         1.37000	-3.00000e+00	
			         1.37167	-4.00000e+00	
			         1.37333	-4.00000e+00	
			         1.37500	-4.00000e+00	
			         1.37667	-4.00000e+00	
			         1.37833	-4.00000e+00	
			         1.38000	-4.00000e+00	
			         1.38167	-4.00000e+00	
			         1.38333	-4.00000e+00	
			         1.38500	-3.00000e+00	
			         1.38667	-3.00000e+00	
			         1.38833	-2.00000e+00	
			         1.39000	-2.00000e+00	
			         1.39167	-1.00000e+00	
			         1.39333	-1.00000e+00	
			         1.39500	0.00000e+00	
			         1.39667	0.00000e+00	
			         1.39833	0.00000e+00	
			         1.40000	0.00000e+00	
			         1.40167	0.00000e+00	
			         1.40333	1.00000e+00	
			         1.40500	1.00000e+00	
			         1.40667	1.00000e+00	
			         1.40833	1.00000e+00	
			         1.41000	1.00000e+00	
			         1.41167	1.00000e+00	
			         1.41333	1.00000e+00	
			         1.41500	1.00000e+00	
			         1.41667	1.00000e+00	
			         1.41833	2.00000e+00	
			         1.42000	2.00000e+00	
			         1.42167	2.00000e+00	
			         1.42333	3.00000e+00	
			         1.42500	3.00000e+00	
			         1.42667	4.00000e+00	
			         1.42833	4.00000e+00	
			         1.43000	4.00000e+00	
			         1.43167	5.00000e+00	
			         1.43333	5.00000e+00	
			         1.43500	5.00000e+00	
			         1.43667	6.00000e+00	
			         1.43833	6.00000e+00	
			         1.44000	6.00000e+00	
			         1.44167	6.00000e+00	
			         1.44333	6.00000e+00	
			         1.44500	6.00000e+00	
			         1.44667	6.00000e+00	
			         1.44833	7.00000e+00	
			         1.45000	7.00000e+00	
			         1.45167	7.00000e+00	
			         1.45333	7.00000e+00	
			         1.45500	6.00000e+00	
			         1.45667	6.00000e+00	
			         1.45833	6.00000e+00	
			         1.46000	6.00000e+00	
			         1.46167	5.00000e+00	
			         1.46333	5.00000e+00	
			         1.46500	4.00000e+00	
			         1.46667	4.00000e+00	
			         1.46833	3.00000e+00	
			         1.47000	3.00000e+00	
			         1.47167	2.00000e+00	
			         1.47333	1.00000e+00	
			         1.47500	1.00000e+00	
			         1.47667	0.00000e+00	
			         1.47833	0.00000e+00	
			         1.48000	-1.00000e+00	
			         1.48167	-1.00000e+00	
			         1.48333	-2.00000e+00	
			         1.48500	-2.00000e+00	
			         1.48667	-2.00000e+00	
			         1.48833	-2.00000e+00	
			         1.49000	-2.00000e+00	
			         1.49167	-2.00000e+00	
			         1.49333	-1.00000e+00	
			         1.49500	-1.00000e+00	
			         1.49667	-1.00000e+00	
			         1.49833	0.00000e+00	
			         1.50000	0.00000e+00	
			         1.50167	0.00000e+00	
			         1.50333	1.00000e+00	
			         1.50500	1.00000e+00	
			         1.50667	1.00000e+00	
			         1.50833	1.00000e+00	
			         1.51000	1.00000e+00	
			         1.51167	1.00000e+00	
			         1.51333	1.00000e+00	
			         1.51500	1.00000e+00	
			         1.51667	0.00000e+00	
			         1.51833	0.00000e+00	
			         1.52000	-1.00000e+00	
			         1.52167	-1.00000e+00	
			         1.52333	-2.00000e+00	
			         1.52500	-2.00000e+00	
			         1.52667	-3.00000e+00	
			         1.52833	-3.00000e+00	
			         1.53000	-4.00000e+00	
			         1.53167	-4.00000e+00	
			         1.53333	-5.00000e+00	
			         1.53500	-5.00000e+00	
			         1.53667	-5.00000e+00	
			         1.53833	-6.00000e+00	
			         1.54000	-6.00000e+00	
			         1.54167	-6.00000e+00	
			         1.54333	-6.00000e+00	
			         1.54500	-5.00000e+00	
			         1.54667	-5.00000e+00	
			         1.54833	-5.00000e+00	
			         1.55000	-5.00000e+00	
			         1.55167	-5.00000e+00	
			         1.55333	-5.00000e+00	
			         1.55500	-5.00000e+00	
			         1.55667	-5.00000e+00	
			         1.55833	-5.00000e+00	
			         1.56000	-5.00000e+00	
			         1.56167	-6.00000e+00	
			         1.56333	-6.00000e+00	
			         1.56500	-6.00000e+00	
			         1.56667	-6.00000e+00	
			         1.56833	-6.00000e+00	
			         1.57000	-6.00000e+00	
			         1.57167	-6.00000e+00	
			         1.57333	-5.00000e+00	
			         1.57500	-5.00000e+00	
			         1.57667	-4.00000e+00	
			         1.57833	-3.00000e+00	
			         1.58000	-3.00000e+00	
			         1.58167	-2.00000e+00	
			         1.58333	-2.00000e+00	
			         1.58500	-1.00000e+00	
			         1.58667	-1.00000e+00	
			         1.58833	0.00000e+00	
			         1.59000	0.00000e+00	
			         1.59167	0.00000e+00	
			         1.59333	0.00000e+00	
			         1.59500	0.00000e+00	
			         1.59667	0.00000e+00	
			         1.59833	0.00000e+00	
			         1.60000	0.00000e+00	
			         1.60167	0.00000e+00	
			         1.60333	-1.00000e+00	
			         1.60500	-1.00000e+00	
			         1.60667	-1.00000e+00	
			         1.60833	-1.00000e+00	
			         1.61000	-2.00000e+00	
			         1.61167	-2.00000e+00	
			         1.61333	-2.00000e+00	
			         1.61500	-2.00000e+00	
			         1.61667	-2.00000e+00	
			         1.61833	-2.00000e+00	
			         1.62000	-2.00000e+00	
			         1.62167	-2.00000e+00	
			         1.62333	-1.00000e+00	
			         1.62500	-1.00000e+00	
			         1.62667	-1.00000e+00	
			         1.62833	-1.00000e+00	
			         1.63000	0.00000e+00	
			         1.63167	0.00000e+00	
			         1.63333	0.00000e+00	
			         1.63500	0.00000e+00	
			         1.63667	1.00000e+00	
			         1.63833	1.00000e+00	
			         1.64000	1.00000e+00	
			         1.64167	1.00000e+00	
			         1.64333	1.00000e+00	
			         1.64500	1.00000e+00	
			         1.64667	1.00000e+00	
			         1.64833	1.00000e+00	
			         1.65000	2.00000e+00	
			         1.65167	1.00000e+00	
			         1.65333	1.00000e+00	
			         1.65500	1.00000e+00	
			         1.65667	1.00000e+00	
			         1.65833	1.00000e+00	
			         1.66000	1.00000e+00	
			         1.66167	1.00000e+00	
			         1.66333	1.00000e+00	
			         1.66500	1.00000e+00	
			         1.66667	0.00000e+00	
			         1.66833	0.00000e+00	
			         1.67000	0.00000e+00	
			         1.67167	0.00000e+00	
			         1.67333	0.00000e+00	
			         1.67500	-1.00000e+00	
			         1.67667	-1.00000e+00	
			         1.67833	-1.00000e+00	
			         1.68000	-1.00000e+00	
			         1.68167	-1.00000e+00	
			         1.68333	-1.00000e+00	
			         1.68500	-1.00000e+00	
			         1.68667	-1.00000e+00	
			         1.68833	0.00000e+00	
			         1.69000	0.00000e+00	
			         1.69167	0.00000e+00	
			         1.69333	0.00000e+00	
			         1.69500	0.00000e+00	
			         1.69667	1.00000e+00	
			         1.69833	1.00000e+00	
			         1.70000	1.00000e+00	
			         1.70167	1.00000e+00	
			         1.70333	1.00000e+00	
			         1.70500	1.00000e+00	
			         1.70667	1.00000e+00	
			         1.70833	1.00000e+00	
			         1.71000	1.00000e+00	
			         1.71167	2.00000e+00	
			         1.71333	2.00000e+00	
			         1.71500	2.00000e+00	
			         1.71667	2.00000e+00	
			         1.71833	2.00000e+00	
			         1.72000	2.00000e+00	
			         1.72167	2.00000e+00	
			         1.72333	2.00000e+00	
			         1.72500	2.00000e+00	
			         1.72667	2.00000e+00	
			         1.72833	3.00000e+00	
			         1.73000	3.00000e+00	
			         1.73167	3.00000e+00	
			         1.73333	3.00000e+00	
			         1.73500	3.00000e+00	
			         1.73667	3.00000e+00	
			         1.73833	3.00000e+00	
			         1.74000	3.00000e+00	
			         1.74167	3.00000e+00	
			         1.74333	3.00000e+00	
			         1.74500	3.00000e+00	
			         1.74667	3.00000e+00	
			         1.74833	3.00000e+00	
			         1.75000	3.00000e+00	
			         1.75167	3.00000e+00	
			         1.75333	3.00000e+00	
			         1.75500	2.00000e+00	
			         1.75667	2.00000e+00	
			         1.75833	2.00000e+00	
			         1.76000	2.00000e+00	
			         1.76167	2.00000e+00	
			         1.76333	2.00000e+00	
			         1.76500	2.00000e+00	
			         1.76667	1.00000e+00	
			         1.76833	1.00000e+00	
			         1.77000	1.00000e+00	
			         1.77167	1.00000e+00	
			         1.77333	1.00000e+00	
			         1.77500	1.00000e+00	
			         1.77667	1.00000e+00	
			         1.77833	1.00000e+00	
			         1.78000	1.00000e+00	
			         1.78167	1.00000e+00	
			         1.78333	0.00000e+00	
			         1.78500	0.00000e+00	
			         1.78667	-1.00000e+00	
			         1.78833	-1.00000e+00	
			         1.79000	-2.00000e+00	
			         1.79167	-2.00000e+00	
			         1.79333	-3.00000e+00	
			         1.79500	-3.00000e+00	
			         1.79667	-4.00000e+00	
			         1.79833	-4.00000e+00	
			         1.80000	-4.00000e+00	
			         1.80167	-5.00000e+00	
			         1.80333	-5.00000e+00	
			         1.80500	-5.00000e+00	
			         1.80667	-5.00000e+00	
			         1.80833	-5.00000e+00	
			         1.81000	-5.00000e+00	
			         1.81167	-5.00000e+00	
			         1.81333	-5.00000e+00	
			         1.81500	-5.00000e+00	
			         1.81667	-4.00000e+00	
			         1.81833	-4.00000e+00	
			         1.82000	-4.00000e+00	
			         1.82167	-4.00000e+00	
			         1.82333	-3.00000e+00	
			         1.82500	-3.00000e+00	
			         1.82667	-3.00000e+00	
			         1.82833	-2.00000e+00	
			         1.83000	-2.00000e+00	
			         1.83167	-2.00000e+00	
			         1.83333	-2.00000e+00	
			         1.83500	-2.00000e+00	
			         1.83667	-2.00000e+00	
			         1.83833	-2.00000e+00	
			         1.84000	-2.00000e+00	
			         1.84167	-2.00000e+00	
			         1.84333	-2.00000e+00	
			         1.84500	-2.00000e+00	
			         1.84667	-2.00000e+00	
			         1.84833	-2.00000e+00	
			         1.85000	-1.00000e+00	
			         1.85167	-1.00000e+00	
			         1.85333	-1.00000e+00	
			         1.85500	-1.00000e+00	
			         1.85667	0.00000e+00	
			         1.85833	0.00000e+00	
			         1.86000	0.00000e+00	
			         1.86167	0.00000e+00	
			         1.86333	0.00000e+00	
			         1.86500	0.00000e+00	
			         1.86667	0.00000e+00	
			         1.86833	0.00000e+00	
			         1.87000	0.00000e+00	
			         1.87167	-1.00000e+00	
			         1.87333	-1.00000e+00	
			         1.87500	-1.00000e+00	
			         1.87667	-1.00000e+00	
			         1.87833	-2.00000e+00	
			         1.88000	-2.00000e+00	
			         1.88167	-2.00000e+00	
			         1.88333	-3.00000e+00	
			         1.88500	-3.00000e+00	
			         1.88667	-3.00000e+00	
			         1.88833	-3.00000e+00	
			         1.89000	-3.00000e+00	
			         1.89167	-4.00000e+00	
			         1.89333	-4.00000e+00	
			         1.89500	-3.00000e+00	
			         1.89667	-3.00000e+00	
			         1.89833	-3.00000e+00	
			         1.90000	-3.00000e+00	
			         1.90167	-3.00000e+00	
			         1.90333	-2.00000e+00	
			         1.90500	-2.00000e+00	
			         1.90667	-1.00000e+00	
			         1.90833	-1.00000e+00	
			         1.91000	-1.00000e+00	
			         1.91167	0.00000e+00	
			         1.91333	0.00000e+00	
			         1.91500	0.00000e+00	
			         1.91667	0.00000e+00	
			         1.91833	0.00000e+00	
			         1.92000	1.00000e+00	
			         1.92167	1.00000e+00	
			         1.92333	1.00000e+00	
			         1.92500	1.00000e+00	
			         1.92667	1.00000e+00	
			         1.92833	1.00000e+00	
			         1.93000	1.00000e+00	
			         1.93167	1.00000e+00	
			         1.93333	1.00000e+00	
			         1.93500	0.00000e+00	
			         1.93667	0.00000e+00	
			         1.93833	0.00000e+00	
			         1.94000	0.00000e+00	
			         1.94167	-1.00000e+00	
			         1.94333	-1.00000e+00	
			         1.94500	-2.00000e+00	
			         1.94667	-2.00000e+00	
			         1.94833	-2.00000e+00	
			         1.95000	-3.00000e+00	
			         1.95167	-3.00000e+00	
			         1.95333	-3.00000e+00	
			         1.95500	-3.00000e+00	
			         1.95667	-3.00000e+00	
			         1.95833	-3.00000e+00	
			         1.96000	-3.00000e+00	
			         1.96167	-3.00000e+00	
			         1.96333	-3.00000e+00	
			         1.96500	-3.00000e+00	
			         1.96667	-3.00000e+00	
			         1.96833	-3.00000e+00	
			         1.97000	-3.00000e+00	
			         1.97167	-3.00000e+00	
			         1.97333	-3.00000e+00	
			         1.97500	-3.00000e+00	
			         1.97667	-3.00000e+00	
			         1.97833	-3.00000e+00	
			         1.98000	-3.00000e+00	
			         1.98167	-3.00000e+00	
			         1.98333	-3.00000e+00	
			         1.98500	-3.00000e+00	
			         1.98667	-3.00000e+00	
			         1.98833	-2.00000e+00	
			         1.99000	-2.00000e+00	
			         1.99167	-2.00000e+00	
			         1.99333	-2.00000e+00	
			         1.99500	-2.00000e+00	
			         1.99667	-2.00000e+00	
			         1.99833	-2.00000e+00	
			         2.00000	-2.00000e+00	
			         2.00167	-2.00000e+00	
			         2.00333	-1.00000e+00	
			         2.00500	-1.00000e+00	
			         2.00667	-1.00000e+00	
			         2.00833	-1.00000e+00	
			         2.01000	0.00000e+00	
			         2.01167	0.00000e+00	
			         2.01333	0.00000e+00	
			         2.01500	0.00000e+00	
			         2.01667	0.00000e+00	
			         2.01833	1.00000e+00	
			         2.02000	1.00000e+00	
			         2.02167	1.00000e+00	
			         2.02333	1.00000e+00	
			         2.02500	0.00000e+00	
			         2.02667	0.00000e+00	
			         2.02833	0.00000e+00	
			         2.03000	0.00000e+00	
			         2.03167	0.00000e+00	
			         2.03333	-1.00000e+00	
			         2.03500	-1.00000e+00	
			         2.03667	-1.00000e+00	
			         2.03833	-1.00000e+00	
			         2.04000	-1.00000e+00	
			         2.04167	-2.00000e+00	
			         2.04333	-2.00000e+00	
			         2.04500	-2.00000e+00	
			         2.04667	-3.00000e+00	
			         2.04833	-3.00000e+00	
			         2.05000	-3.00000e+00	
			         2.05167	-4.00000e+00	
			         2.05333	-4.00000e+00	
			         2.05500	-4.00000e+00	
			         2.05667	-4.00000e+00	
			         2.05833	-5.00000e+00	
			         2.06000	-5.00000e+00	
			         2.06167	-5.00000e+00	
			         2.06333	-5.00000e+00	
			         2.06500	-4.00000e+00	
			         2.06667	-4.00000e+00	
			         2.06833	-4.00000e+00	
			         2.07000	-3.00000e+00	
			         2.07167	-3.00000e+00	
			         2.07333	-2.00000e+00	
			         2.07500	-2.00000e+00	
			         2.07667	-2.00000e+00	
			         2.07833	-1.00000e+00	
			         2.08000	-1.00000e+00	
			         2.08167	-1.00000e+00	
			         2.08333	-1.00000e+00	
			         2.08500	-1.00000e+00	
			         2.08667	-1.00000e+00	
			         2.08833	-1.00000e+00	
			         2.09000	-1.00000e+00	
			         2.09167	-1.00000e+00	
			         2.09333	-1.00000e+00	
			         2.09500	-1.00000e+00	
			         2.09667	-1.00000e+00	
			         2.09833	-1.00000e+00	
			         2.10000	-1.00000e+00	
			         2.10167	-1.00000e+00	
			         2.10333	-1.00000e+00	
			         2.10500	-1.00000e+00	
			         2.10667	0.00000e+00	
			         2.10833	0.00000e+00	
			         2.11000	0.00000e+00	
			         2.11167	0.00000e+00	
			         2.11333	0.00000e+00	
			         2.11500	0.00000e+00	
			         2.11667	0.00000e+00	
			         2.11833	0.00000e+00	
			         2.12000	1.00000e+00	
			         2.12167	1.00000e+00	
			         2.12333	1.00000e+00	
			         2.12500	1.00000e+00	
			         2.12667	1.00000e+00	
			         2.12833	1.00000e+00	
			         2.13000	1.00000e+00	
			         2.13167	1.00000e+00	
			         2.13333	1.00000e+00	
			         2.13500	1.00000e+00	
			         2.13667	0.00000e+00	
			         2.13833	0.00000e+00	
			         2.14000	0.00000e+00	
			         2.14167	-1.00000e+00	
			         2.14333	-1.00000e+00	
			         2.14500	-2.00000e+00	
			         2.14667	-2.00000e+00	
			         2.14833	-3.00000e+00	
			         2.15000	-3.00000e+00	
			         2.15167	-3.00000e+00	
			         2.15333	-3.00000e+00	
			         2.15500	-4.00000e+00	
			         2.15667	-4.00000e+00	
			         2.15833	-4.00000e+00	
			         2.16000	-4.00000e+00	
			         2.16167	-4.00000e+00	
			         2.16333	-4.00000e+00	
			         2.16500	-3.00000e+00	
			         2.16667	-3.00000e+00	
			         2.16833	-3.00000e+00	
			         2.17000	-3.00000e+00	
			         2.17167	-3.00000e+00	
			         2.17333	-3.00000e+00	
			         2.17500	-3.00000e+00	
			         2.17667	-3.00000e+00	
			         2.17833	-3.00000e+00	
			         2.18000	-3.00000e+00	
			         2.18167	-3.00000e+00	
			         2.18333	-3.00000e+00	
			         2.18500	-3.00000e+00	
			         2.18667	-3.00000e+00	
			         2.18833	-3.00000e+00	
			         2.19000	-3.00000e+00	
			         2.19167	-2.00000e+00	
			         2.19333	-2.00000e+00	
			         2.19500	-2.00000e+00	
			         2.19667	-2.00000e+00	
			         2.19833	-1.00000e+00	
			         2.20000	-1.00000e+00	
			         2.20167	0.00000e+00	
			         2.20333	0.00000e+00	
			         2.20500	0.00000e+00	
			         2.20667	1.00000e+00	
			         2.20833	1.00000e+00	
			         2.21000	1.00000e+00	
			         2.21167	1.00000e+00	
			         2.21333	1.00000e+00	
			         2.21500	0.00000e+00	
			         2.21667	0.00000e+00	
			         2.21833	0.00000e+00	
			         2.22000	0.00000e+00	
			         2.22167	0.00000e+00	
			         2.22333	-1.00000e+00	
			         2.22500	-1.00000e+00	
			         2.22667	-1.00000e+00	
			         2.22833	-1.00000e+00	
			         2.23000	-1.00000e+00	
			         2.23167	-1.00000e+00	
			         2.23333	-1.00000e+00	
			         2.23500	-1.00000e+00	
			         2.23667	-1.00000e+00	
			         2.23833	0.00000e+00	
			         2.24000	0.00000e+00	
			         2.24167	0.00000e+00	
			         2.24333	0.00000e+00	
			         2.24500	0.00000e+00	
			         2.24667	0.00000e+00	
			         2.24833	0.00000e+00	
			         2.25000	0.00000e+00	
			         2.25167	0.00000e+00	
			         2.25333	0.00000e+00	
			         2.25500	0.00000e+00	
			         2.25667	0.00000e+00	
			         2.25833	1.00000e+00	
			         2.26000	1.00000e+00	
			         2.26167	1.00000e+00	
			         2.26333	1.00000e+00	
			         2.26500	1.00000e+00	
			         2.26667	1.00000e+00	
			         2.26833	1.00000e+00	
			         2.27000	1.00000e+00	
			         2.27167	0.00000e+00	
			         2.27333	0.00000e+00	
			         2.27500	0.00000e+00	
			         2.27667	0.00000e+00	
			         2.27833	0.00000e+00	
			         2.28000	0.00000e+00	
			         2.28167	1.00000e+00	
			         2.28333	1.00000e+00	
			         2.28500	1.00000e+00	
			         2.28667	1.00000e+00	
			         2.28833	2.00000e+00	
			         2.29000	2.00000e+00	
			         2.29167	2.00000e+00	
			         2.29333	3.00000e+00	
			         2.29500	3.00000e+00	
			         2.29667	3.00000e+00	
			         2.29833	4.00000e+00	
			         2.30000	4.00000e+00	
			         2.30167	4.00000e+00	
			         2.30333	4.00000e+00	
			         2.30500	4.00000e+00	
			         2.30667	3.00000e+00	
			         2.30833	3.00000e+00	
			         2.31000	3.00000e+00	
			         2.31167	3.00000e+00	
			         2.31333	2.00000e+00	
			         2.31500	2.00000e+00	
			         2.31667	1.00000e+00	
			         2.31833	1.00000e+00	
			         2.32000	0.00000e+00	
			         2.32167	0.00000e+00	
			         2.32333	-1.00000e+00	
			         2.32500	-1.00000e+00	
			         2.32667	-1.00000e+00	
			         2.32833	-1.00000e+00	
			         2.33000	-1.00000e+00	
			         2.33167	-1.00000e+00	
			         2.33333	-1.00000e+00	
			         2.33500	-1.00000e+00	
			         2.33667	-1.00000e+00	
			         2.33833	-1.00000e+00	
			         2.34000	-1.00000e+00	
			         2.34167	0.00000e+00	
			         2.34333	0.00000e+00	
			         2.34500	0.00000e+00	
			         2.34667	0.00000e+00	
			         2.34833	0.00000e+00	
			         2.35000	0.00000e+00	
			         2.35167	0.00000e+00	
			         2.35333	0.00000e+00	
			         2.35500	-1.00000e+00	
			         2.35667	-1.00000e+00	
			         2.35833	-1.00000e+00	
			         2.36000	-2.00000e+00	
			         2.36167	-2.00000e+00	
			         2.36333	-2.00000e+00	
			         2.36500	-3.00000e+00	
			         2.36667	-3.00000e+00	
			         2.36833	-3.00000e+00	
			         2.37000	-3.00000e+00	
			         2.37167	-3.00000e+00	
			         2.37333	-3.00000e+00	
			         2.37500	-3.00000e+00	
			         2.37667	-3.00000e+00	
			         2.37833	-3.00000e+00	
			         2.38000	-3.00000e+00	
			         2.38167	-3.00000e+00	
			         2.38333	-3.00000e+00	
			         2.38500	-3.00000e+00	
			         2.38667	-3.00000e+00	
			         2.38833	-3.00000e+00	
			         2.39000	-4.00000e+00	
			         2.39167	-4.00000e+00	
			         2.39333	-5.00000e+00	
			         2.39500	-6.00000e+00	
			         2.39667	-7.00000e+00	
			         2.39833	-8.00000e+00	
			         2.40000	-1.00000e+01	
			         2.40167	-1.10000e+01	
			         2.40333	-1.20000e+01	
			         2.40500	-1.30000e+01	
			         2.40667	-1.40000e+01	
			         2.40833	-1.50000e+01	
			         2.41000	-1.50000e+01	
			         2.41167	-1.50000e+01	
			         2.41333	-1.40000e+01	
			         2.41500	-1.20000e+01	
			         2.41667	-1.00000e+01	
			         2.41833	-7.00000e+00	
			         2.42000	-3.00000e+00	
			         2.42167	1.00000e+00	
			         2.42333	7.00000e+00	
			         2.42500	1.30000e+01	
			         2.42667	2.00000e+01	
			         2.42833	2.70000e+01	
			         2.43000	3.40000e+01	
			         2.43167	4.10000e+01	
			         2.43333	4.80000e+01	
			         2.43500	5.40000e+01	
			         2.43667	6.00000e+01	
			         2.43833	6.50000e+01	
			         2.44000	6.80000e+01	
			         2.44167	7.00000e+01	
			         2.44333	7.10000e+01	
			         2.44500	7.10000e+01	
			         2.44667	6.90000e+01	
			         2.44833	6.50000e+01	
			         2.45000	6.10000e+01	
			         2.45167	5.60000e+01	
			         2.45333	5.00000e+01	
			         2.45500	4.30000e+01	
			         2.45667	3.60000e+01	
			         2.45833	2.90000e+01	
			         2.46000	2.20000e+01	
			         2.46167	1.50000e+01	
			         2.46333	9.00000e+00	
			         2.46500	4.00000e+00	
			         2.46667	-1.00000e+00	
			         2.46833	-5.00000e+00	
			         2.47000	-9.00000e+00	
			         2.47167	-1.20000e+01	
			         2.47333	-1.50000e+01	
			         2.47500	-1.70000e+01	
			         2.47667	-1.80000e+01	
			         2.47833	-2.00000e+01	
			         2.48000	-2.10000e+01	
			         2.48167	-2.10000e+01	
			         2.48333	-2.20000e+01	
			         2.48500	-2.30000e+01	
			         2.48667	-2.30000e+01	
			         2.48833	-2.30000e+01	
			         2.49000	-2.30000e+01	
			         2.49167	-2.30000e+01	
			         2.49333	-2.20000e+01	
			         2.49500	-2.20000e+01	
			         2.49667	-2.20000e+01	
			         2.49833	-2.10000e+01	
			         2.50000	-2.10000e+01	
			         2.50167	-2.10000e+01	
			         2.50333	-2.00000e+01	
			         2.50500	-2.00000e+01	
			         2.50667	-1.90000e+01	
			         2.50833	-1.90000e+01	
			         2.51000	-1.90000e+01	
			         2.51167	-1.80000e+01	
			         2.51333	-1.80000e+01	
			         2.51500	-1.70000e+01	
			         2.51667	-1.70000e+01	
			         2.51833	-1.60000e+01	
			         2.52000	-1.60000e+01	
			         2.52167	-1.50000e+01	
			         2.52333	-1.50000e+01	
			         2.52500	-1.50000e+01	
			         2.52667	-1.40000e+01	
			         2.52833	-1.40000e+01	
			         2.53000	-1.40000e+01	
			         2.53167	-1.30000e+01	
			         2.53333	-1.30000e+01	
			         2.53500	-1.20000e+01	
			         2.53667	-1.20000e+01	
			         2.53833	-1.20000e+01	
			         2.54000	-1.10000e+01	
			         2.54167	-1.10000e+01	
			         2.54333	-1.00000e+01	
			         2.54500	-1.00000e+01	
			         2.54667	-1.00000e+01	
			         2.54833	-1.00000e+01	
			         2.55000	-9.00000e+00	
			         2.55167	-9.00000e+00	
			         2.55333	-9.00000e+00	
			         2.55500	-1.00000e+01	
			         2.55667	-1.00000e+01	
			         2.55833	-1.00000e+01	
			         2.56000	-1.00000e+01	
			         2.56167	-1.00000e+01	
			         2.56333	-1.00000e+01	
			         2.56500	-9.00000e+00	
			         2.56667	-9.00000e+00	
			         2.56833	-8.00000e+00	
			         2.57000	-8.00000e+00	
			         2.57167	-8.00000e+00	
			         2.57333	-7.00000e+00	
			         2.57500	-7.00000e+00	
			         2.57667	-6.00000e+00	
			         2.57833	-6.00000e+00	
			         2.58000	-6.00000e+00	
			         2.58167	-6.00000e+00	
			         2.58333	-5.00000e+00	
			         2.58500	-5.00000e+00	
			         2.58667	-5.00000e+00	
			         2.58833	-5.00000e+00	
			         2.59000	-5.00000e+00	
			         2.59167	-5.00000e+00	
			         2.59333	-5.00000e+00	
			         2.59500	-5.00000e+00	
			         2.59667	-4.00000e+00	
			         2.59833	-4.00000e+00	
			         2.60000	-4.00000e+00	
			         2.60167	-3.00000e+00	
			         2.60333	-3.00000e+00	
			         2.60500	-2.00000e+00	
			         2.60667	-2.00000e+00	
			         2.60833	-2.00000e+00	
			         2.61000	-2.00000e+00	
			         2.61167	-2.00000e+00	
			         2.61333	-2.00000e+00	
			         2.61500	-2.00000e+00	
			         2.61667	-3.00000e+00	
			         2.61833	-3.00000e+00	
			         2.62000	-3.00000e+00	
			         2.62167	-4.00000e+00	
			         2.62333	-4.00000e+00	
			         2.62500	-4.00000e+00	
			         2.62667	-4.00000e+00	
			         2.62833	-4.00000e+00	
			         2.63000	-4.00000e+00	
			         2.63167	-3.00000e+00	
			         2.63333	-3.00000e+00	
			         2.63500	-3.00000e+00	
			         2.63667	-3.00000e+00	
			         2.63833	-2.00000e+00	
			         2.64000	-2.00000e+00	
			         2.64167	-2.00000e+00	
			         2.64333	-2.00000e+00	
			         2.64500	-2.00000e+00	
			         2.64667	-3.00000e+00	
			         2.64833	-3.00000e+00	
			         2.65000	-3.00000e+00	
			         2.65167	-3.00000e+00	
			         2.65333	-3.00000e+00	
			         2.65500	-3.00000e+00	
			         2.65667	-3.00000e+00	
			         2.65833	-2.00000e+00	
			         2.66000	-2.00000e+00	
			         2.66167	-2.00000e+00	
			         2.66333	-2.00000e+00	
			         2.66500	-1.00000e+00	
			         2.66667	-1.00000e+00	
			         2.66833	-1.00000e+00	
			         2.67000	0.00000e+00	
			         2.67167	0.00000e+00	
			         2.67333	0.00000e+00	
			         2.67500	0.00000e+00	
			         2.67667	1.00000e+00	
			         2.67833	1.00000e+00	
			         2.68000	2.00000e+00	
			         2.68167	2.00000e+00	
			         2.68333	2.00000e+00	
			         2.68500	3.00000e+00	
			         2.68667	3.00000e+00	
			         2.68833	4.00000e+00	
			         2.69000	4.00000e+00	
			         2.69167	4.00000e+00	
			         2.69333	5.00000e+00	
			         2.69500	5.00000e+00	
			         2.69667	5.00000e+00	
			         2.69833	5.00000e+00	
			         2.70000	4.00000e+00	
			         2.70167	4.00000e+00	
			         2.70333	4.00000e+00	
			         2.70500	3.00000e+00	
			         2.70667	3.00000e+00	
			         2.70833	3.00000e+00	
			         2.71000	2.00000e+00	
			         2.71167	2.00000e+00	
			         2.71333	2.00000e+00	
			         2.71500	2.00000e+00	
			         2.71667	2.00000e+00	
			         2.71833	2.00000e+00	
			         2.72000	2.00000e+00	
			         2.72167	2.00000e+00	
			         2.72333	2.00000e+00	
			         2.72500	2.00000e+00	
			         2.72667	2.00000e+00	
			         2.72833	2.00000e+00	
			         2.73000	1.00000e+00	
			         2.73167	1.00000e+00	
			         2.73333	1.00000e+00	
			         2.73500	0.00000e+00	
			         2.73667	0.00000e+00	
			         2.73833	-1.00000e+00	
			         2.74000	-1.00000e+00	
			         2.74167	-2.00000e+00	
			         2.74333	-2.00000e+00	
			         2.74500	-3.00000e+00	
			         2.74667	-3.00000e+00	
			         2.74833	-3.00000e+00	
			         2.75000	-4.00000e+00	
			         2.75167	-4.00000e+00	
			         2.75333	-4.00000e+00	
			         2.75500	-4.00000e+00	
			         2.75667	-4.00000e+00	
			         2.75833	-4.00000e+00	
			         2.76000	-4.00000e+00	
			         2.76167	-4.00000e+00	
			         2.76333	-4.00000e+00	
			         2.76500	-5.00000e+00	
			         2.76667	-5.00000e+00	
			         2.76833	-5.00000e+00	
			         2.77000	-5.00000e+00	
			         2.77167	-5.00000e+00	
			         2.77333	-5.00000e+00	
			         2.77500	-5.00000e+00	
			         2.77667	-6.00000e+00	
			         2.77833	-6.00000e+00	
			         2.78000	-6.00000e+00	
			         2.78167	-6.00000e+00	
			         2.78333	-6.00000e+00	
			         2.78500	-6.00000e+00	
			         2.78667	-6.00000e+00	
			         2.78833	-6.00000e+00	
			         2.79000	-6.00000e+00	
			         2.79167	-6.00000e+00	
			         2.79333	-6.00000e+00	
			         2.79500	-6.00000e+00	
			         2.79667	-6.00000e+00	
			         2.79833	-6.00000e+00	
			         2.80000	-6.00000e+00	
			         2.80167	-6.00000e+00	
			         2.80333	-6.00000e+00	
			         2.80500	-6.00000e+00	
			         2.80667	-6.00000e+00	
			         2.80833	-6.00000e+00	
			         2.81000	-6.00000e+00	
			         2.81167	-6.00000e+00	
			         2.81333	-6.00000e+00	
			         2.81500	-6.00000e+00	
			         2.81667	-6.00000e+00	
			         2.81833	-6.00000e+00	
			         2.82000	-6.00000e+00	
			         2.82167	-5.00000e+00	
			         2.82333	-5.00000e+00	
			         2.82500	-5.00000e+00	
			         2.82667	-5.00000e+00	
			         2.82833	-4.00000e+00	
			         2.83000	-4.00000e+00	
			         2.83167	-4.00000e+00	
			         2.83333	-4.00000e+00	
			         2.83500	-4.00000e+00	
			         2.83667	-4.00000e+00	
			         2.83833	-4.00000e+00	
			         2.84000	-4.00000e+00	
			         2.84167	-4.00000e+00	
			         2.84333	-4.00000e+00	
			         2.84500	-4.00000e+00	
			         2.84667	-4.00000e+00	
			         2.84833	-4.00000e+00	
			         2.85000	-5.00000e+00	
			         2.85167	-5.00000e+00	
			         2.85333	-5.00000e+00	
			         2.85500	-5.00000e+00	
			         2.85667	-5.00000e+00	
			         2.85833	-5.00000e+00	
			         2.86000	-5.00000e+00	
			         2.86167	-6.00000e+00	
			         2.86333	-6.00000e+00	
			         2.86500	-6.00000e+00	
			         2.86667	-6.00000e+00	
			         2.86833	-6.00000e+00	
			         2.87000	-6.00000e+00	
			         2.87167	-6.00000e+00	
			         2.87333	-6.00000e+00	
			         2.87500	-6.00000e+00	
			         2.87667	-5.00000e+00	
			         2.87833	-5.00000e+00	
			         2.88000	-5.00000e+00	
			         2.88167	-4.00000e+00	
			         2.88333	-4.00000e+00	
			         2.88500	-4.00000e+00	
			         2.88667	-3.00000e+00	
			         2.88833	-3.00000e+00	
			         2.89000	-3.00000e+00	
			         2.89167	-3.00000e+00	
			         2.89333	-2.00000e+00	
			         2.89500	-2.00000e+00	
			         2.89667	-2.00000e+00	
			         2.89833	-2.00000e+00	
			         2.90000	-2.00000e+00	
			         2.90167	-1.00000e+00	
			         2.90333	-1.00000e+00	
			         2.90500	-1.00000e+00	
			         2.90667	-1.00000e+00	
			         2.90833	0.00000e+00	
			         2.91000	0.00000e+00	
			         2.91167	0.00000e+00	
			         2.91333	0.00000e+00	
			         2.91500	0.00000e+00	
			         2.91667	0.00000e+00	
			         2.91833	1.00000e+00	
			         2.92000	1.00000e+00	
			         2.92167	1.00000e+00	
			         2.92333	1.00000e+00	
			         2.92500	1.00000e+00	
			         2.92667	0.00000e+00	
			         2.92833	0.00000e+00	
			         2.93000	0.00000e+00	
			         2.93167	0.00000e+00	
			         2.93333	0.00000e+00	
			         2.93500	-1.00000e+00	
			         2.93667	-1.00000e+00	
			         2.93833	-1.00000e+00	
			         2.94000	-2.00000e+00	
			         2.94167	-2.00000e+00	
			         2.94333	-2.00000e+00	
			         2.94500	-3.00000e+00	
			         2.94667	-3.00000e+00	
			         2.94833	-3.00000e+00	
			         2.95000	-3.00000e+00	
			         2.95167	-3.00000e+00	
			         2.95333	-3.00000e+00	
			         2.95500	-3.00000e+00	
			         2.95667	-3.00000e+00	
			         2.95833	-3.00000e+00	
			         2.96000	-2.00000e+00	
			         2.96167	-2.00000e+00	
			         2.96333	-2.00000e+00	
			         2.96500	-1.00000e+00	
			         2.96667	-1.00000e+00	
			         2.96833	-1.00000e+00	
			         2.97000	0.00000e+00	
			         2.97167	0.00000e+00	
			         2.97333	0.00000e+00	
			         2.97500	0.00000e+00	
			         2.97667	1.00000e+00	
			         2.97833	1.00000e+00	
			         2.98000	1.00000e+00	
			         2.98167	1.00000e+00	
			         2.98333	1.00000e+00	
			         2.98500	0.00000e+00	
			         2.98667	0.00000e+00	
			         2.98833	0.00000e+00	
			         2.99000	0.00000e+00	
			         2.99167	0.00000e+00	
			         2.99333	-1.00000e+00	
			         2.99500	-1.00000e+00	
			         2.99667	-1.00000e+00	
			         2.99833	-1.00000e+00	
			         3.00000	-1.00000e+00	
			         3.00167	-1.00000e+00	
			         3.00333	-1.00000e+00	
			         3.00500	0.00000e+00	
			         3.00667	0.00000e+00	
			         3.00833	0.00000e+00	
			         3.01000	0.00000e+00	
			         3.01167	1.00000e+00	
			         3.01333	1.00000e+00	
			         3.01500	2.00000e+00	
			         3.01667	2.00000e+00	
			         3.01833	2.00000e+00	
			         3.02000	2.00000e+00	
			         3.02167	2.00000e+00	
			         3.02333	2.00000e+00	
			         3.02500	2.00000e+00	
			         3.02667	2.00000e+00	
			         3.02833	2.00000e+00	
			         3.03000	2.00000e+00	
			         3.03167	2.00000e+00	
			         3.03333	1.00000e+00	
			         3.03500	1.00000e+00	
			         3.03667	1.00000e+00	
			         3.03833	1.00000e+00	
			         3.04000	0.00000e+00	
			         3.04167	0.00000e+00	
			         3.04333	0.00000e+00	
			         3.04500	0.00000e+00	
			         3.04667	1.00000e+00	
			         3.04833	1.00000e+00	
			         3.05000	1.00000e+00	
			         3.05167	1.00000e+00	
			         3.05333	2.00000e+00	
			         3.05500	2.00000e+00	
			         3.05667	2.00000e+00	
			         3.05833	3.00000e+00	
			         3.06000	3.00000e+00	
			         3.06167	3.00000e+00	
			         3.06333	3.00000e+00	
			         3.06500	4.00000e+00	
			         3.06667	4.00000e+00	
			         3.06833	4.00000e+00	
			         3.07000	4.00000e+00	
			         3.07167	4.00000e+00	
			         3.07333	5.00000e+00	
			         3.07500	5.00000e+00	
			         3.07667	4.00000e+00	
			         3.07833	4.00000e+00	
			         3.08000	4.00000e+00	
			         3.08167	4.00000e+00	
			         3.08333	3.00000e+00	
			         3.08500	3.00000e+00	
			         3.08667	2.00000e+00	
			         3.08833	1.00000e+00	
			         3.09000	0.00000e+00	
			         3.09167	0.00000e+00	
			         3.09333	-1.00000e+00	
			         3.09500	-2.00000e+00	
			         3.09667	-2.00000e+00	
			         3.09833	-3.00000e+00	
			         3.10000	-3.00000e+00	
			         3.10167	-3.00000e+00	
			         3.10333	-3.00000e+00	
			         3.10500	-3.00000e+00	
			         3.10667	-3.00000e+00	
			         3.10833	-3.00000e+00	
			         3.11000	-2.00000e+00	
			         3.11167	-2.00000e+00	
			         3.11333	-2.00000e+00	
			         3.11500	-1.00000e+00	
			         3.11667	-1.00000e+00	
			         3.11833	-1.00000e+00	
			         3.12000	0.00000e+00	
			         3.12167	0.00000e+00	
			         3.12333	1.00000e+00	
			         3.12500	1.00000e+00	
			         3.12667	1.00000e+00	
			         3.12833	2.00000e+00	
			         3.13000	2.00000e+00	
			         3.13167	2.00000e+00	
			         3.13333	2.00000e+00	
			         3.13500	2.00000e+00	
			         3.13667	2.00000e+00	
			         3.13833	2.00000e+00	
			         3.14000	2.00000e+00	
			         3.14167	2.00000e+00	
			         3.14333	2.00000e+00	
			         3.14500	2.00000e+00	
			         3.14667	2.00000e+00	
			         3.14833	2.00000e+00	
			         3.15000	2.00000e+00	
			         3.15167	2.00000e+00	
			         3.15333	2.00000e+00	
			         3.15500	1.00000e+00	
			         3.15667	1.00000e+00	
			         3.15833	1.00000e+00	
			         3.16000	1.00000e+00	
			         3.16167	1.00000e+00	
			         3.16333	1.00000e+00	
			         3.16500	0.00000e+00	
			         3.16667	0.00000e+00	
			         3.16833	0.00000e+00	
			         3.17000	0.00000e+00	
			         3.17167	0.00000e+00	
			         3.17333	-1.00000e+00	
			         3.17500	-1.00000e+00	
			         3.17667	-1.00000e+00	
			         3.17833	-1.00000e+00	
			         3.18000	-1.00000e+00	
			         3.18167	-1.00000e+00	
			         3.18333	-1.00000e+00	
			         3.18500	-1.00000e+00	
			         3.18667	-1.00000e+00	
			         3.18833	-1.00000e+00	
			         3.19000	-1.00000e+00	
			         3.19167	-1.00000e+00	
			         3.19333	-1.00000e+00	
			         3.19500	-1.00000e+00	
			         3.19667	-1.00000e+00	
			         3.19833	-1.00000e+00	
			         3.20000	-1.00000e+00	
			         3.20167	-1.00000e+00	
			         3.20333	-1.00000e+00	
			         3.20500	-1.00000e+00	
			         3.20667	-1.00000e+00	
			         3.20833	-1.00000e+00	
			         3.21000	0.00000e+00	
			         3.21167	0.00000e+00	
			         3.21333	0.00000e+00	
			         3.21500	0.00000e+00	
			         3.21667	1.00000e+00	
			         3.21833	1.00000e+00	
			         3.22000	1.00000e+00	
			         3.22167	1.00000e+00	
			         3.22333	1.00000e+00	
			         3.22500	1.00000e+00	
			         3.22667	2.00000e+00	
			         3.22833	2.00000e+00	
			         3.23000	2.00000e+00	
			         3.23167	2.00000e+00	
			         3.23333	2.00000e+00	
			         3.23500	1.00000e+00	
			         3.23667	1.00000e+00	
			         3.23833	1.00000e+00	
			         3.24000	1.00000e+00	
			         3.24167	1.00000e+00	
			         3.24333	1.00000e+00	
			         3.24500	1.00000e+00	
			         3.24667	1.00000e+00	
			         3.24833	1.00000e+00	
			         3.25000	2.00000e+00	
			         3.25167	2.00000e+00	
			         3.25333	2.00000e+00	
			         3.25500	2.00000e+00	
			         3.25667	3.00000e+00	
			         3.25833	3.00000e+00	
			         3.26000	3.00000e+00	
			         3.26167	3.00000e+00	
			         3.26333	3.00000e+00	
			         3.26500	3.00000e+00	
			         3.26667	2.00000e+00	
			         3.26833	2.00000e+00	
			         3.27000	2.00000e+00	
			         3.27167	2.00000e+00	
			         3.27333	1.00000e+00	
			         3.27500	1.00000e+00	
			         3.27667	1.00000e+00	
			         3.27833	1.00000e+00	
			         3.28000	1.00000e+00	
			         3.28167	1.00000e+00	
			         3.28333	0.00000e+00	
			         3.28500	0.00000e+00	
			         3.28667	0.00000e+00	
			         3.28833	0.00000e+00	
			         3.29000	0.00000e+00	
			         3.29167	0.00000e+00	
			         3.29333	1.00000e+00	
			         3.29500	1.00000e+00	
			         3.29667	1.00000e+00	
			         3.29833	1.00000e+00	
			         3.30000	1.00000e+00	
			         3.30167	1.00000e+00	
			         3.30333	1.00000e+00	
			         3.30500	1.00000e+00	
			         3.30667	1.00000e+00	
			         3.30833	1.00000e+00	
			         3.31000	1.00000e+00	
			         3.31167	2.00000e+00	
			         3.31333	2.00000e+00	
			         3.31500	2.00000e+00	
			         3.31667	2.00000e+00	
			         3.31833	2.00000e+00	
			         3.32000	3.00000e+00	
			         3.32167	3.00000e+00	
			         3.32333	4.00000e+00	
			         3.32500	4.00000e+00	
			         3.32667	4.00000e+00	
			         3.32833	5.00000e+00	
			         3.33000	5.00000e+00	
			         3.33167	5.00000e+00	
			         3.33333	5.00000e+00	
			         3.33500	5.00000e+00	
			         3.33667	5.00000e+00	
			         3.33833	5.00000e+00	
			         3.34000	5.00000e+00	
			         3.34167	5.00000e+00	
			         3.34333	4.00000e+00	
			         3.34500	4.00000e+00	
			         3.34667	3.00000e+00	
			         3.34833	3.00000e+00	
			         3.35000	2.00000e+00	
			         3.35167	2.00000e+00	
			         3.35333	1.00000e+00	
			         3.35500	1.00000e+00	
			         3.35667	1.00000e+00	
			         3.35833	0.00000e+00	
			         3.36000	0.00000e+00	
			         3.36167	0.00000e+00	
			         3.36333	0.00000e+00	
			         3.36500	-1.00000e+00	
			         3.36667	-1.00000e+00	
			         3.36833	-1.00000e+00	
			         3.37000	-1.00000e+00	
			         3.37167	-1.00000e+00	
			         3.37333	-1.00000e+00	
			         3.37500	-1.00000e+00	
			         3.37667	-1.00000e+00	
			         3.37833	-1.00000e+00	
			         3.38000	-1.00000e+00	
			         3.38167	-1.00000e+00	
			         3.38333	0.00000e+00	
			         3.38500	0.00000e+00	
			         3.38667	1.00000e+00	
			         3.38833	1.00000e+00	
			         3.39000	1.00000e+00	
			         3.39167	1.00000e+00	
			         3.39333	2.00000e+00	
			         3.39500	2.00000e+00	
			         3.39667	2.00000e+00	
			         3.39833	2.00000e+00	
			         3.40000	1.00000e+00	
			         3.40167	1.00000e+00	
			         3.40333	1.00000e+00	
			         3.40500	0.00000e+00	
			         3.40667	0.00000e+00	
			         3.40833	0.00000e+00	
			         3.41000	0.00000e+00	
			         3.41167	0.00000e+00	
			         3.41333	-1.00000e+00	
			         3.41500	-1.00000e+00	
			         3.41667	-1.00000e+00	
			         3.41833	-1.00000e+00	
			         3.42000	-1.00000e+00	
			         3.42167	-2.00000e+00	
			         3.42333	-2.00000e+00	
			         3.42500	-2.00000e+00	
			         3.42667	-2.00000e+00	
			         3.42833	-2.00000e+00	
			         3.43000	-2.00000e+00	
			         3.43167	-2.00000e+00	
			         3.43333	-2.00000e+00	
			         3.43500	-2.00000e+00	
			         3.43667	-2.00000e+00	
			         3.43833	-2.00000e+00	
			         3.44000	-2.00000e+00	
			         3.44167	-2.00000e+00	
			         3.44333	-2.00000e+00	
			         3.44500	-1.00000e+00	
			         3.44667	-1.00000e+00	
			         3.44833	-1.00000e+00	
			         3.45000	-1.00000e+00	
			         3.45167	0.00000e+00	
			         3.45333	0.00000e+00	
			         3.45500	1.00000e+00	
			         3.45667	1.00000e+00	
			         3.45833	2.00000e+00	
			         3.46000	2.00000e+00	
			         3.46167	3.00000e+00	
			         3.46333	3.00000e+00	
			         3.46500	3.00000e+00	
			         3.46667	4.00000e+00	
			         3.46833	4.00000e+00	
			         3.47000	4.00000e+00	
			         3.47167	4.00000e+00	
			         3.47333	4.00000e+00	
			         3.47500	4.00000e+00	
			         3.47667	3.00000e+00	
			         3.47833	3.00000e+00	
			         3.48000	3.00000e+00	
			         3.48167	2.00000e+00	
			         3.48333	2.00000e+00	
			         3.48500	1.00000e+00	
			         3.48667	1.00000e+00	
			         3.48833	0.00000e+00	
			         3.49000	0.00000e+00	
			         3.49167	-1.00000e+00	
			         3.49333	-1.00000e+00	
			         3.49500	-1.00000e+00	
			         3.49667	-1.00000e+00	
			         3.49833	-1.00000e+00	
			         3.50000	-1.00000e+00	
			         3.50167	-1.00000e+00	
			         3.50333	-1.00000e+00	
			         3.50500	-1.00000e+00	
			         3.50667	-1.00000e+00	
			         3.50833	-1.00000e+00	
			         3.51000	-1.00000e+00	
			         3.51167	-1.00000e+00	
			         3.51333	-1.00000e+00	
			         3.51500	-2.00000e+00	
			         3.51667	-2.00000e+00	
			         3.51833	-2.00000e+00	
			         3.52000	-3.00000e+00	
			         3.52167	-3.00000e+00	
			         3.52333	-4.00000e+00	
			         3.52500	-4.00000e+00	
			         3.52667	-4.00000e+00	
			         3.52833	-4.00000e+00	
			         3.53000	-4.00000e+00	
			         3.53167	-4.00000e+00	
			         3.53333	-4.00000e+00	
			         3.53500	-3.00000e+00	
			         3.53667	-3.00000e+00	
			         3.53833	-3.00000e+00	
			         3.54000	-3.00000e+00	
			         3.54167	-2.00000e+00	
			         3.54333	-2.00000e+00	
			         3.54500	-2.00000e+00	
			         3.54667	-2.00000e+00	
			         3.54833	-1.00000e+00	
			         3.55000	-1.00000e+00	
			         3.55167	-1.00000e+00	
			         3.55333	-1.00000e+00	
			         3.55500	-1.00000e+00	
			         3.55667	-1.00000e+00	
			         3.55833	-1.00000e+00	
			         3.56000	-1.00000e+00	
			         3.56167	-1.00000e+00	
			         3.56333	-1.00000e+00	
			         3.56500	-1.00000e+00	
			         3.56667	-1.00000e+00	
			         3.56833	-1.00000e+00	
			         3.57000	-1.00000e+00	
			         3.57167	-1.00000e+00	
			         3.57333	-1.00000e+00	
			         3.57500	0.00000e+00	
			         3.57667	0.00000e+00	
			         3.57833	0.00000e+00	
			         3.58000	1.00000e+00	
			         3.58167	1.00000e+00	
			         3.58333	2.00000e+00	
			         3.58500	2.00000e+00	
			         3.58667	2.00000e+00	
			         3.58833	3.00000e+00	
			         3.59000	3.00000e+00	
			         3.59167	3.00000e+00	
			         3.59333	2.00000e+00	
			         3.59500	2.00000e+00	
			         3.59667	2.00000e+00	
			         3.59833	1.00000e+00	
			         3.60000	0.00000e+00	
			         3.60167	-2.00000e+00	
			         3.60333	-3.00000e+00	
			         3.60500	-5.00000e+00	
			         3.60667	-6.00000e+00	
			         3.60833	-8.00000e+00	
			         3.61000	-9.00000e+00	
			         3.61167	-1.00000e+01	
			         3.61333	-1.10000e+01	
			         3.61500	-1.10000e+01	
			         3.61667	-1.10000e+01	
			         3.61833	-1.00000e+01	
			         3.62000	-9.00000e+00	
			         3.62167	-7.00000e+00	
			         3.62333	-4.00000e+00	
			         3.62500	0.00000e+00	
			         3.62667	5.00000e+00	
			         3.62833	1.00000e+01	
			         3.63000	1.60000e+01	
			         3.63167	2.30000e+01	
			         3.63333	2.90000e+01	
			         3.63500	3.60000e+01	
			         3.63667	4.30000e+01	
			         3.63833	5.00000e+01	
			         3.64000	5.60000e+01	
			         3.64167	6.10000e+01	
			         3.64333	6.60000e+01	
			         3.64500	6.90000e+01	
			         3.64667	7.10000e+01	
			         3.64833	7.20000e+01	
			         3.65000	7.20000e+01	
			         3.65167	7.10000e+01	
			         3.65333	6.80000e+01	
			         3.65500	6.40000e+01	
			         3.65667	5.90000e+01	
			         3.65833	5.30000e+01	
			         3.66000	4.60000e+01	
