Velocity (TVI), in cm/s

Time (s) :	Trace 1 : 		Ecg : 		
0.03139   	6.25797e-01		         0.02833	3.91000e+02	
0.03753   	1.76058e+00		         0.03000	3.99000e+02	
0.04363   	2.64783e+00		         0.03167	3.99000e+02	
0.04975   	2.46527e+00		         0.03333	3.91000e+02	
0.05615   	1.19182e+00		         0.03500	3.76000e+02	
0.06226   	-6.81694e-01		         0.03667	3.55000e+02	
0.06839   	-2.48780e+00		         0.03833	3.27000e+02	
0.07451   	-4.04532e+00		         0.04000	2.95000e+02	
0.08090   	-3.77292e+00		         0.04167	2.60000e+02	
0.08702   	-2.41943e+00		         0.04333	2.22000e+02	
0.09314   	-5.61356e-01		         0.04500	1.84000e+02	
0.09926   	1.49084e+00		         0.04667	1.46000e+02	
0.10565   	3.48624e+00		         0.04833	1.10000e+02	
0.11177   	4.49220e+00		         0.05000	7.60000e+01	
0.11790   	5.33242e+00		         0.05167	4.50000e+01	
0.12401   	6.00202e+00		         0.05333	1.80000e+01	
0.13041   	6.37149e+00		         0.05500	-6.00000e+00	
0.13652   	6.61484e+00		         0.05667	-2.70000e+01	
0.14265   	6.70254e+00		         0.05833	-4.40000e+01	
0.14877   	6.74122e+00		         0.06000	-5.90000e+01	
0.15516   	6.59629e+00		         0.06167	-7.10000e+01	
0.16128   	6.56515e+00		         0.06333	-8.00000e+01	
0.16740   	6.51799e+00		         0.06500	-8.80000e+01	
0.17352   	6.34052e+00		         0.06667	-9.40000e+01	
0.17991   	6.23782e+00		         0.06833	-9.90000e+01	
0.18603   	6.15477e+00		         0.07000	-1.03000e+02	
0.19215   	6.01895e+00		         0.07167	-1.05000e+02	
0.19827   	5.82760e+00		         0.07333	-1.07000e+02	
0.20467   	5.73653e+00		         0.07500	-1.08000e+02	
0.21078   	5.62876e+00		         0.07667	-1.09000e+02	
0.21691   	5.57014e+00		         0.07833	-1.09000e+02	
0.22303   	5.49943e+00		         0.08000	-1.08000e+02	
0.22947   	5.39242e+00		         0.08167	-1.07000e+02	
0.23554   	5.34117e+00		         0.08333	-1.06000e+02	
0.24166   	5.28737e+00		         0.08500	-1.05000e+02	
0.24778   	5.24163e+00		         0.08667	-1.03000e+02	
0.25417   	5.22390e+00		         0.08833	-1.02000e+02	
0.26029   	5.16279e+00		         0.09000	-1.00000e+02	
0.26641   	5.06876e+00		         0.09167	-9.80000e+01	
0.27253   	4.98393e+00		         0.09333	-9.70000e+01	
0.27929   	4.88840e+00		         0.09500	-9.50000e+01	
0.28504   	4.67731e+00		         0.09667	-9.30000e+01	
0.29117   	4.57607e+00		         0.09833	-9.10000e+01	
0.29729   	4.43332e+00		         0.10000	-9.00000e+01	
0.30368   	4.23110e+00		         0.10167	-8.80000e+01	
0.30980   	4.03094e+00		         0.10333	-8.60000e+01	
0.31592   	3.89818e+00		         0.10500	-8.50000e+01	
0.32204   	3.68556e+00		         0.10667	-8.30000e+01	
0.32843   	3.44223e+00		         0.10833	-8.10000e+01	
0.33455   	3.23482e+00		         0.11000	-8.00000e+01	
0.34067   	2.99844e+00		         0.11167	-7.80000e+01	
0.34679   	2.76483e+00		         0.11333	-7.70000e+01	
0.35319   	2.55247e+00		         0.11500	-7.50000e+01	
0.35931   	2.39520e+00		         0.11667	-7.40000e+01	
0.36543   	2.19501e+00		         0.11833	-7.20000e+01	
0.37155   	2.03330e+00		         0.12000	-7.00000e+01	
0.37794   	1.82282e+00		         0.12167	-6.90000e+01	
0.38406   	1.53801e+00		         0.12333	-6.70000e+01	
0.39018   	1.21534e+00		         0.12500	-6.50000e+01	
0.39630   	8.67581e-01		         0.12667	-6.30000e+01	
0.40269   	3.74564e-01		         0.12833	-6.10000e+01	
0.40882   	-1.94448e-01		         0.13000	-6.00000e+01	
0.41493   	-6.70109e-01		         0.13167	-5.80000e+01	
0.42106   	-1.13533e+00		         0.13333	-5.60000e+01	
0.42745   	-1.25150e+00		         0.13500	-5.40000e+01	
0.43356   	-1.11770e+00		         0.13667	-5.30000e+01	
0.43969   	-8.43046e-01		         0.13833	-5.10000e+01	
0.44581   	-6.54914e-01		         0.14000	-4.90000e+01	
0.45220   	-1.62557e-01		         0.14167	-4.80000e+01	
0.45832   	1.07602e-01		         0.14333	-4.70000e+01	
0.46444   	5.50014e-01		         0.14500	-4.60000e+01	
0.47056   	8.40316e-01		         0.14667	-4.40000e+01	
0.47695   	1.44521e+00		         0.14833	-4.30000e+01	
0.48307   	1.98996e+00		         0.15000	-4.20000e+01	
0.48920   	2.40897e+00		         0.15167	-4.10000e+01	
0.49531   	2.68186e+00		         0.15333	-3.90000e+01	
0.50171   	2.98155e+00		         0.15500	-3.80000e+01	
0.50783   	3.19946e+00		         0.15667	-3.70000e+01	
0.51395   	3.26361e+00		         0.15833	-3.60000e+01	
0.52007   	2.92374e+00		         0.16000	-3.40000e+01	
0.52646   	2.18749e+00		         0.16167	-3.30000e+01	
0.53258   	1.14899e+00		         0.16333	-3.20000e+01	
0.53870   	-1.81555e-01		         0.16500	-3.10000e+01	
0.54495   	-1.50904e+00		         0.16667	-2.90000e+01	
0.55122   	-2.52097e+00		         0.16833	-2.80000e+01	
0.55733   	-3.51519e+00		         0.17000	-2.70000e+01	
0.56346   	-4.04285e+00		         0.17167	-2.60000e+01	
0.56958   	-4.52515e+00		         0.17333	-2.60000e+01	
0.57597   	-4.93684e+00		         0.17500	-2.50000e+01	
0.58209   	-5.28690e+00		         0.17667	-2.40000e+01	
0.58821   	-5.38182e+00		         0.17833	-2.30000e+01	
0.59433   	-5.46832e+00		         0.18000	-2.20000e+01	
0.60072   	-5.13653e+00		         0.18167	-2.10000e+01	
0.60684   	-4.98932e+00		         0.18333	-2.00000e+01	
0.61296   	-4.81930e+00		         0.18500	-2.00000e+01	
0.61908   	-4.60299e+00		         0.18667	-1.90000e+01	
0.62548   	-4.36319e+00		         0.18833	-1.80000e+01	
0.63159   	-4.37579e+00		         0.19000	-1.70000e+01	
0.63772   	-4.35759e+00		         0.19167	-1.70000e+01	
0.64384   	-4.17276e+00		         0.19333	-1.60000e+01	
0.65023   	-4.01064e+00		         0.19500	-1.50000e+01	
0.65635   	-3.82990e+00		         0.19667	-1.40000e+01	
0.66247   	-3.65062e+00		         0.19833	-1.30000e+01	
0.66859   	-3.30795e+00		         0.20000	-1.20000e+01	
0.67498   	-3.01273e+00		         0.20167	-1.10000e+01	
0.68110   	-2.72006e+00		         0.20333	-1.00000e+01	
0.68722   	-2.45454e+00		         0.20500	-9.00000e+00	
0.69334   	-2.16307e+00		         0.20667	-8.00000e+00	
0.69974   	-1.94081e+00		         0.20833	-7.00000e+00	
0.70585   	-1.71458e+00		         0.21000	-6.00000e+00	
0.71198   	-1.42012e+00		         0.21167	-5.00000e+00	
0.71810   	-1.14824e+00		         0.21333	-4.00000e+00	
0.72449   	-8.87319e-01		         0.21500	-3.00000e+00	
0.73061   	-6.86633e-01		         0.21667	-3.00000e+00	
0.73673   	-4.93295e-01		         0.21833	-2.00000e+00	
0.74285   	-3.77157e-01		         0.22000	-2.00000e+00	
0.74924   	-3.06934e-01		         0.22167	-1.00000e+00	
0.75536   	-3.09087e-01		         0.22333	0.00000e+00	
0.76148   	-2.39855e-01		         0.22500	0.00000e+00	
0.76760   	-2.07992e-01		         0.22667	1.00000e+00	
0.77400   	-1.58625e-01		         0.22833	2.00000e+00	
0.78012   	-8.82936e-02		         0.23000	3.00000e+00	
0.78624   	2.02262e-02		         0.23167	4.00000e+00	
0.79236   	1.18887e-01		         0.23333	5.00000e+00	
0.79875   	1.87320e-01		         0.23500	6.00000e+00	
0.80487   	2.51880e-01		         0.23667	7.00000e+00	
0.81099   	3.01726e-01		         0.23833	8.00000e+00	
0.81711   	3.19474e-01		         0.24000	9.00000e+00	
0.82351   	2.74833e-01		         0.24167	1.00000e+01	
0.82962   	2.35348e-01		         0.24333	1.10000e+01	
0.83574   	2.28690e-01		         0.24500	1.20000e+01	
0.84186   	1.68406e-01		         0.24667	1.20000e+01	
0.84826   	9.56679e-02		         0.24833	1.30000e+01	
0.85437   	2.84200e-02		         0.25000	1.40000e+01	
0.86049   	7.04626e-03		         0.25167	1.50000e+01	
0.86662   	-9.29926e-02		         0.25333	1.60000e+01	
0.87301   	-1.58634e-01		         0.25500	1.70000e+01	
0.87913   	-2.07746e-01		         0.25667	1.80000e+01	
0.88525   	-2.59445e-01		         0.25833	2.00000e+01	
0.89137   	-3.40183e-01		         0.26000	2.10000e+01	
0.89776   	-3.77723e-01		         0.26167	2.20000e+01	
0.90388   	-3.95653e-01		         0.26333	2.30000e+01	
0.91019   	-4.07209e-01		         0.26500	2.40000e+01	
0.91612   	-4.02105e-01		         0.26667	2.50000e+01	
0.92251   	-3.70222e-01		         0.26833	2.70000e+01	
0.92863   	-3.27715e-01		         0.27000	2.80000e+01	
0.93476   	-2.94537e-01		         0.27167	2.90000e+01	
0.94088   	-2.45998e-01		         0.27333	3.10000e+01	
0.94727   	-2.02727e-01		         0.27500	3.20000e+01	
0.95339   	-1.73951e-01		         0.27667	3.30000e+01	
0.95951   	-1.67466e-01		         0.27833	3.40000e+01	
0.96563   	-1.55882e-01		         0.28000	3.60000e+01	
0.97202   	-1.50732e-01		         0.28167	3.70000e+01	
0.97816   	-1.42268e-01		         0.28333	3.80000e+01	
0.98426   	-1.44364e-01		         0.28500	3.90000e+01	
0.99038   	-1.82574e-01		         0.28667	4.00000e+01	
0.99678   	-2.27272e-01		         0.28833	4.10000e+01	
1.00290   	-3.13173e-01		         0.29000	4.10000e+01	
1.00902   	-5.16870e-01		         0.29167	4.20000e+01	
1.01514   	-9.23941e-01		         0.29333	4.20000e+01	
1.02153   	-1.50405e+00		         0.29500	4.30000e+01	
1.02767   	-2.32371e+00		         0.29667	4.30000e+01	
1.03377   	-3.32774e+00		         0.29833	4.30000e+01	
1.03989   	-4.37591e+00		         0.30000	4.30000e+01	
1.04628   	-5.32176e+00		         0.30167	4.30000e+01	
1.05240   	-6.10128e+00		         0.30333	4.30000e+01	
1.05852   	-6.79646e+00		         0.30500	4.20000e+01	
1.06464   	-7.28648e+00		         0.30667	4.20000e+01	
1.07104   	-7.51787e+00		         0.30833	4.20000e+01	
1.07716   	-7.61101e+00		         0.31000	4.10000e+01	
1.08328   	-7.54133e+00		         0.31167	4.10000e+01	
1.08940   	-7.18229e+00		         0.31333	4.10000e+01	
1.09579   	-6.74995e+00		         0.31500	4.00000e+01	
1.10191   	-6.28797e+00		         0.31667	4.00000e+01	
1.10803   	-5.71529e+00		         0.31833	3.90000e+01	
1.11415   	-5.20871e+00		         0.32000	3.80000e+01	
1.12054   	-4.70252e+00		         0.32167	3.70000e+01	
1.12666   	-4.08147e+00		         0.32333	3.60000e+01	
1.13279   	-3.44644e+00		         0.32500	3.50000e+01	
1.13891   	-2.64996e+00		         0.32667	3.30000e+01	
1.14530   	-1.96997e+00		         0.32833	3.10000e+01	
1.15142   	-1.28984e+00		         0.33000	2.90000e+01	
1.15754   	-8.14387e-01		         0.33167	2.70000e+01	
1.16366   	-3.15374e-02		         0.33333	2.50000e+01	
1.17005   	6.41188e-01		         0.33500	2.20000e+01	
1.17617   	4.24005e-01		         0.33667	2.00000e+01	
1.18229   	-5.96783e-01		         0.33833	1.70000e+01	
1.18841   	-1.65116e+00		         0.34000	1.40000e+01	
1.19480   	-3.28385e+00		         0.34167	1.10000e+01	
1.20092   	-4.80390e+00		         0.34333	7.00000e+00	
1.20704   	-4.46565e+00		         0.34500	4.00000e+00	
1.21317   	-2.99494e+00		         0.34667	1.00000e+00	
1.21956   	-1.19898e+00		         0.34833	-2.00000e+00	
1.22568   	8.77800e-01		         0.35000	-5.00000e+00	
1.23180   	2.85947e+00		         0.35167	-8.00000e+00	
1.23792   	4.04298e+00		         0.35333	-1.10000e+01	
1.24431   	4.90864e+00		         0.35500	-1.40000e+01	
1.25043   	5.46339e+00		         0.35667	-1.70000e+01	
1.25655   	5.88796e+00		         0.35833	-2.00000e+01	
1.26268   	6.08966e+00		         0.36000	-2.20000e+01	
1.26906   	6.22239e+00		         0.36167	-2.50000e+01	
1.27529   	6.17389e+00		         0.36333	-2.70000e+01	
1.28130   	6.18820e+00		         0.36500	-2.90000e+01	
1.28743   	6.20080e+00		         0.36667	-3.20000e+01	
1.29382   	6.19286e+00		         0.36833	-3.40000e+01	
1.29994   	6.08759e+00		         0.37000	-3.50000e+01	
1.30606   	5.98873e+00		         0.37167	-3.70000e+01	
1.31218   	5.88249e+00		         0.37333	-3.90000e+01	
1.31857   	5.71483e+00		         0.37500	-4.00000e+01	
1.32469   	5.54773e+00		         0.37667	-4.10000e+01	
1.33081   	5.46395e+00		         0.37833	-4.20000e+01	
1.33693   	5.24260e+00		         0.38000	-4.30000e+01	
1.34332   	5.04002e+00		         0.38167	-4.40000e+01	
1.34944   	4.94456e+00		         0.38333	-4.40000e+01	
1.35556   	4.81869e+00		         0.38500	-4.50000e+01	
1.36169   	4.68701e+00		         0.38667	-4.50000e+01	
1.36808   	4.72493e+00		         0.38833	-4.60000e+01	
1.37420   	4.71003e+00		         0.39000	-4.60000e+01	
1.38032   	4.59900e+00		         0.39167	-4.60000e+01	
1.38644   	4.51882e+00		         0.39333	-4.70000e+01	
1.39283   	4.38782e+00		         0.39500	-4.70000e+01	
1.39895   	4.31655e+00		         0.39667	-4.70000e+01	
1.40507   	4.20476e+00		         0.39833	-4.70000e+01	
1.41119   	4.12566e+00		         0.40000	-4.70000e+01	
1.41759   	4.02682e+00		         0.40167	-4.70000e+01	
1.42370   	3.94139e+00		         0.40333	-4.70000e+01	
1.42983   	3.75463e+00		         0.40500	-4.60000e+01	
1.43595   	3.60390e+00		         0.40667	-4.60000e+01	
1.44234   	3.43292e+00		         0.40833	-4.50000e+01	
1.44846   	3.25189e+00		         0.41000	-4.40000e+01	
1.45458   	3.08967e+00		         0.41167	-4.40000e+01	
1.46070   	2.92876e+00		         0.41333	-4.30000e+01	
1.46709   	2.67992e+00		         0.41500	-4.20000e+01	
1.47321   	2.44675e+00		         0.41667	-4.10000e+01	
1.47933   	2.25312e+00		         0.41833	-4.00000e+01	
1.48546   	2.04773e+00		         0.42000	-4.00000e+01	
1.49185   	1.88660e+00		         0.42167	-3.90000e+01	
1.49796   	1.79891e+00		         0.42333	-3.80000e+01	
1.50409   	1.66533e+00		         0.42500	-3.80000e+01	
1.51021   	1.50932e+00		         0.42667	-3.70000e+01	
1.51660   	1.28475e+00		         0.42833	-3.60000e+01	
1.52272   	9.43310e-01		         0.43000	-3.60000e+01	
1.52884   	4.93530e-01		         0.43167	-3.50000e+01	
1.53496   	-6.43995e-02		         0.43333	-3.40000e+01	
1.54135   	-6.52274e-01		         0.43500	-3.30000e+01	
1.54747   	-1.24390e+00		         0.43667	-3.30000e+01	
1.55359   	-7.79073e-01		         0.43833	-3.20000e+01	
1.55971   	-4.09650e-01		         0.44000	-3.20000e+01	
1.56611   	1.29682e-01		         0.44167	-3.20000e+01	
1.57222   	7.39005e-01		         0.44333	-3.10000e+01	
1.57835   	1.53661e+00		         0.44500	-3.10000e+01	
1.58447   	1.64274e+00		         0.44667	-3.10000e+01	
1.59086   	2.01394e+00		         0.44833	-3.00000e+01	
1.59698   	2.51479e+00		         0.45000	-3.00000e+01	
1.60310   	3.11700e+00		         0.45167	-2.90000e+01	
1.60922   	3.50289e+00		         0.45333	-2.90000e+01	
1.61561   	3.82661e+00		         0.45500	-2.80000e+01	
1.62174   	3.99803e+00		         0.45667	-2.70000e+01	
1.62785   	4.05472e+00		         0.45833	-2.60000e+01	
1.63398   	3.90795e+00		         0.46000	-2.50000e+01	
1.64068   	3.82598e+00		         0.46167	-2.40000e+01	
1.64648   	3.22783e+00		         0.46333	-2.30000e+01	
1.65261   	2.61109e+00		         0.46500	-2.20000e+01	
1.65873   	1.22814e+00		         0.46667	-2.10000e+01	
1.66512   	-6.18413e-02		         0.46833	-2.10000e+01	
1.67124   	-1.41954e+00		         0.47000	-2.00000e+01	
1.67736   	-2.45853e+00		         0.47167	-1.90000e+01	
1.68349   	-3.46072e+00		         0.47333	-1.80000e+01	
1.68987   	-3.70125e+00		         0.47500	-1.80000e+01	
1.69599   	-4.13864e+00		         0.47667	-1.80000e+01	
1.70211   	-4.46191e+00		         0.47833	-1.70000e+01	
1.70823   	-4.63142e+00		         0.48000	-1.70000e+01	
1.71462   	-4.99140e+00		         0.48167	-1.70000e+01	
1.72075   	-5.18487e+00		         0.48333	-1.60000e+01	
1.72687   	-5.05198e+00		         0.48500	-1.60000e+01	
1.73299   	-4.97272e+00		         0.48667	-1.60000e+01	
1.73938   	-5.02660e+00		         0.48833	-1.60000e+01	
1.74550   	-4.69562e+00		         0.49000	-1.60000e+01	
1.75162   	-4.56026e+00		         0.49167	-1.60000e+01	
1.75774   	-4.52353e+00		         0.49333	-1.60000e+01	
1.76413   	-4.32418e+00		         0.49500	-1.50000e+01	
1.77025   	-4.12283e+00		         0.49667	-1.50000e+01	
1.77637   	-3.96228e+00		         0.49833	-1.50000e+01	
1.78250   	-3.73218e+00		         0.50000	-1.50000e+01	
1.78889   	-3.47626e+00		         0.50167	-1.50000e+01	
1.79501   	-3.24444e+00		         0.50333	-1.50000e+01	
1.80113   	-2.93496e+00		         0.50500	-1.40000e+01	
1.80725   	-2.65147e+00		         0.50667	-1.40000e+01	
1.81364   	-2.42220e+00		         0.50833	-1.40000e+01	
1.81976   	-2.11624e+00		         0.51000	-1.40000e+01	
1.82588   	-1.82212e+00		         0.51167	-1.40000e+01	
1.83200   	-1.58506e+00		         0.51333	-1.30000e+01	
1.83839   	-1.26967e+00		         0.51500	-1.30000e+01	
1.84451   	-9.58046e-01		         0.51667	-1.30000e+01	
1.85063   	-7.07542e-01		         0.51833	-1.30000e+01	
1.85675   	-4.86357e-01		         0.52000	-1.30000e+01	
1.86315   	-2.69188e-01		         0.52167	-1.30000e+01	
1.86927   	-1.55358e-01		         0.52333	-1.30000e+01	
1.87539   	-8.07659e-02		         0.52500	-1.30000e+01	
1.88151   	-3.67175e-02		         0.52667	-1.20000e+01	
1.88790   	-5.09667e-02		         0.52833	-1.20000e+01	
1.89402   	-8.34447e-02		         0.53000	-1.20000e+01	
1.90014   	-8.96393e-02		         0.53167	-1.10000e+01	
1.90641   	-8.47322e-02		         0.53333	-1.10000e+01	
1.91266   	-1.29458e-01		         0.53500	-1.00000e+01	
1.91877   	-1.91448e-01		         0.53667	-1.00000e+01	
1.92489   	-2.56520e-01		         0.53833	-9.00000e+00	
1.93102   	-3.30008e-01		         0.54000	-9.00000e+00	
1.93741   	-4.06894e-01		         0.54167	-8.00000e+00	
1.94353   	-4.73827e-01		         0.54333	-8.00000e+00	
1.94965   	-5.15823e-01		         0.54500	-7.00000e+00	
1.95577   	-5.58511e-01		         0.54667	-7.00000e+00	
1.96216   	-6.36964e-01		         0.54833	-6.00000e+00	
1.96828   	-6.90428e-01		         0.55000	-6.00000e+00	
1.97440   	-7.49344e-01		         0.55167	-6.00000e+00	
1.98052   	-7.98396e-01		         0.55333	-5.00000e+00	
1.98691   	-8.54110e-01		         0.55500	-5.00000e+00	
1.99303   	-8.95669e-01		         0.55667	-5.00000e+00	
1.99916   	-9.50674e-01		         0.55833	-5.00000e+00	
2.00528   	-9.54402e-01		         0.56000	-5.00000e+00	
2.01167   	-9.49605e-01		         0.56167	-5.00000e+00	
2.01779   	-9.46150e-01		         0.56333	-5.00000e+00	
2.02391   	-8.98658e-01		         0.56500	-5.00000e+00	
2.03003   	-8.27510e-01		         0.56667	-5.00000e+00	
2.03642   	-7.60570e-01		         0.56833	-5.00000e+00	
2.04254   	-7.02221e-01		         0.57000	-5.00000e+00	
2.04866   	-6.18738e-01		         0.57167	-5.00000e+00	
2.05478   	-5.60333e-01		         0.57333	-5.00000e+00	
2.06118   	-5.05311e-01		         0.57500	-5.00000e+00	
2.06729   	-4.62365e-01		         0.57667	-4.00000e+00	
2.07342   	-4.34084e-01		         0.57833	-4.00000e+00	
2.07954   	-4.28051e-01		         0.58000	-4.00000e+00	
2.08593   	-3.96186e-01		         0.58167	-3.00000e+00	
2.09205   	-3.97931e-01		         0.58333	-3.00000e+00	
2.09817   	-4.12981e-01		         0.58500	-3.00000e+00	
2.10429   	-4.28718e-01		         0.58667	-3.00000e+00	
2.11068   	-4.93112e-01		         0.58833	-3.00000e+00	
2.11680   	-6.14824e-01		         0.59000	-3.00000e+00	
2.12292   	-7.96929e-01		         0.59167	-3.00000e+00	
2.12904   	-1.14293e+00		         0.59333	-3.00000e+00	
2.13544   	-1.64757e+00		         0.59500	-3.00000e+00	
2.14155   	-2.34922e+00		         0.59667	-3.00000e+00	
2.14767   	-3.22055e+00		         0.59833	-3.00000e+00	
2.15380   	-4.22459e+00		         0.60000	-3.00000e+00	
2.16019   	-5.09267e+00		         0.60167	-3.00000e+00	
2.16632   	-5.95073e+00		         0.60333	-4.00000e+00	
2.17243   	-6.61793e+00		         0.60500	-4.00000e+00	
2.17855   	-7.15979e+00		         0.60667	-4.00000e+00	
2.18494   	-7.43320e+00		         0.60833	-4.00000e+00	
2.19106   	-7.60987e+00		         0.61000	-5.00000e+00	
2.19718   	-7.56585e+00		         0.61167	-5.00000e+00	
2.20330   	-7.29457e+00		         0.61333	-5.00000e+00	
2.20969   	-6.84549e+00		         0.61500	-5.00000e+00	
2.21581   	-6.38911e+00		         0.61667	-5.00000e+00	
2.22193   	-5.83571e+00		         0.61833	-5.00000e+00	
2.22806   	-3.93287e+00		         0.62000	-5.00000e+00	
2.23445   	-1.99354e+00		         0.62167	-6.00000e+00	
2.34647   	1.00181e-01		         0.62333	-6.00000e+00	
2.35258   	2.28988e+00		         0.62500	-5.00000e+00	
2.35868   	4.46197e+00		         0.62667	-5.00000e+00	
2.36479   	5.20947e+00		         0.62833	-5.00000e+00	
2.37117   	5.81443e+00		         0.63000	-5.00000e+00	
2.37726   	6.13797e+00		         0.63167	-5.00000e+00	
2.38337   	6.41417e+00		         0.63333	-4.00000e+00	
2.38948   	6.48545e+00		         0.63500	-4.00000e+00	
2.39585   	6.50466e+00		         0.63667	-4.00000e+00	
2.40195   	6.39332e+00		         0.63833	-3.00000e+00	
2.40806   	6.29803e+00		         0.64000	-3.00000e+00	
2.41416   	6.04197e+00		         0.64167	-3.00000e+00	
2.42054   	5.84634e+00		         0.64333	-3.00000e+00	
2.42664   	5.71423e+00		         0.64500	-3.00000e+00	
2.43275   	5.60773e+00		         0.64667	-3.00000e+00	
2.43885   	5.43268e+00		         0.64833	-3.00000e+00	
2.44522   	5.29706e+00		         0.65000	-3.00000e+00	
2.45133   	5.16710e+00		         0.65167	-3.00000e+00	
2.45743   	4.98428e+00		         0.65333	-3.00000e+00	
2.46354   	4.81811e+00		         0.65500	-4.00000e+00	
2.46991   	4.70571e+00		         0.65667	-4.00000e+00	
2.47601   	4.68404e+00		         0.65833	-4.00000e+00	
2.48212   	4.64432e+00		         0.66000	-4.00000e+00	
2.48822   	4.62860e+00		         0.66167	-4.00000e+00	
2.49460   	4.67048e+00		         0.66333	-4.00000e+00	
2.50071   	4.68460e+00		         0.66500	-4.00000e+00	
2.50681   	4.56922e+00		         0.66667	-4.00000e+00	
2.51291   	4.48342e+00		         0.66833	-4.00000e+00	
2.51929   	4.44286e+00		         0.67000	-4.00000e+00	
2.52539   	4.35637e+00		         0.67167	-4.00000e+00	
2.53150   	4.28460e+00		         0.67333	-4.00000e+00	
2.53760   	4.21094e+00		         0.67500	-4.00000e+00	
2.54398   	4.06706e+00		         0.67667	-4.00000e+00	
2.55008   	3.87050e+00		         0.67833	-4.00000e+00	
2.55618   	3.60581e+00		         0.68000	-4.00000e+00	
2.56229   	3.40554e+00		         0.68167	-3.00000e+00	
2.56866   	3.15629e+00		         0.68333	-3.00000e+00	
2.57476   	2.96745e+00		         0.68500	-3.00000e+00	
2.58087   	2.78120e+00		         0.68667	-3.00000e+00	
2.58700   	2.58948e+00		         0.68833	-3.00000e+00	
2.59335   	2.38897e+00		         0.69000	-3.00000e+00	
2.59945   	2.22617e+00		         0.69167	-3.00000e+00	
2.60556   	2.00920e+00		         0.69333	-3.00000e+00	
2.61166   	1.85402e+00		         0.69500	-3.00000e+00	
2.61804   	1.72514e+00		         0.69667	-3.00000e+00	
2.62414   	1.51197e+00		         0.69833	-3.00000e+00	
2.63025   	1.31238e+00		         0.70000	-3.00000e+00	
2.63673   	1.09404e+00		         0.70167	-3.00000e+00	
2.64273   	7.01518e-01		         0.70333	-3.00000e+00	
2.64883   	1.32290e-01		         0.70500	-3.00000e+00	
2.65493   	-4.93741e-01		         0.70667	-3.00000e+00	
2.66104   	-9.44880e-01		         0.70833	-4.00000e+00	
2.66741   	-1.15718e+00		         0.71000	-4.00000e+00	
2.67352   	-7.56965e-01		         0.71167	-4.00000e+00	
2.67962   	-2.20981e-01		         0.71333	-4.00000e+00	
2.68572   	4.47857e-01		         0.71500	-5.00000e+00	
2.69210   	1.09822e+00		         0.71667	-5.00000e+00	
2.69820   	1.53907e+00		         0.71833	-5.00000e+00	
2.70431   	1.47789e+00		         0.72000	-5.00000e+00	
2.71042   	1.91684e+00		         0.72167	-6.00000e+00	
2.71679   	2.29216e+00		         0.72333	-6.00000e+00	
2.72289   	2.69432e+00		         0.72500	-6.00000e+00	
2.72900   	3.22950e+00		         0.72667	-6.00000e+00	
2.73510   	3.89575e+00		         0.72833	-6.00000e+00	
2.74148   	4.11809e+00		         0.73000	-6.00000e+00	
2.74758   	4.40798e+00		         0.73167	-6.00000e+00	
2.75368   	4.43372e+00		         0.73333	-5.00000e+00	
2.75979   	4.31974e+00		         0.73500	-5.00000e+00	
2.76616   	3.72677e+00		         0.73667	-5.00000e+00	
2.77227   	2.75286e+00		         0.73833	-4.00000e+00	
2.77837   	1.41215e+00		         0.74000	-4.00000e+00	
2.78447   	-8.31325e-03		         0.74167	-4.00000e+00	
2.79085   	-1.54041e+00		         0.74333	-4.00000e+00	
2.79696   	-2.80458e+00		         0.74500	-3.00000e+00	
2.80306   	-3.67103e+00		         0.74667	-3.00000e+00	
2.80916   	-4.16140e+00		         0.74833	-3.00000e+00	
2.81554   	-4.54283e+00		         0.75000	-3.00000e+00	
2.82164   	-4.80328e+00		         0.75167	-3.00000e+00	
2.82775   	-5.03991e+00		         0.75333	-4.00000e+00	
2.83385   	-5.05069e+00		         0.75500	-4.00000e+00	
2.84023   	-5.38009e+00		         0.75667	-4.00000e+00	
2.84633   	-5.30060e+00		         0.75833	-4.00000e+00	
2.85266   	-5.18874e+00		         0.76000	-4.00000e+00	
2.85854   	-5.00618e+00		         0.76167	-4.00000e+00	
2.86491   	-4.91078e+00		         0.76333	-4.00000e+00	
2.87102   	-4.44186e+00		         0.76500	-4.00000e+00	
2.87712   	-4.32012e+00		         0.76667	-3.00000e+00	
2.88322   	-4.20073e+00		         0.76833	-3.00000e+00	
2.88960   	-3.93987e+00		         0.77000	-3.00000e+00	
2.89571   	-3.78092e+00		         0.77167	-2.00000e+00	
2.90181   	-3.75997e+00		         0.77333	-2.00000e+00	
2.90791   	-3.56334e+00		         0.77500	-1.00000e+00	
2.91429   	-3.32415e+00		         0.77667	-1.00000e+00	
2.92039   	-3.15621e+00		         0.77833	0.00000e+00	
2.92650   	-2.84003e+00		         0.78000	0.00000e+00	
2.93260   	-2.45213e+00		         0.78167	0.00000e+00	
2.93898   	-2.09697e+00		         0.78333	0.00000e+00	
2.94508   	-1.70736e+00		         0.78500	0.00000e+00	
2.95118   	-1.32010e+00		         0.78667	0.00000e+00	
2.95729   	-1.02850e+00		         0.78833	0.00000e+00	
2.96366   	-7.02862e-01		         0.79000	0.00000e+00	
2.96977   	-4.20581e-01		         0.79167	0.00000e+00	
2.97587   	-1.77217e-01		         0.79333	0.00000e+00	
2.98198   	1.55995e-02		         0.79500	-1.00000e+00	
2.98835   	1.63918e-01		         0.79667	-1.00000e+00	
2.99446   	2.40953e-01		         0.79833	-1.00000e+00	
3.00056   	2.46556e-01		         0.80000	-1.00000e+00	
3.00666   	1.92358e-01		         0.80167	-1.00000e+00	
3.01304   	1.05136e-01		         0.80333	-1.00000e+00	
3.01914   	-6.65384e-03		         0.80500	-2.00000e+00	
3.02525   	-9.58639e-02		         0.80667	-2.00000e+00	
3.03135   	-1.81175e-01		         0.80833	-2.00000e+00	
3.03773   	-2.53023e-01		         0.81000	-2.00000e+00	
3.04383   	-3.05680e-01		         0.81167	-3.00000e+00	
3.04993   	-3.49712e-01		         0.81333	-3.00000e+00	
3.05604   	-4.00809e-01		         0.81500	-3.00000e+00	
3.06242   	-4.61679e-01		         0.81667	-3.00000e+00	
3.06852   	-5.01768e-01		         0.81833	-3.00000e+00	
3.07462   	-5.48992e-01		         0.82000	-3.00000e+00	
3.08073   	-6.23812e-01		         0.82167	-3.00000e+00	
3.08710   	-6.68310e-01		         0.82333	-3.00000e+00	
3.09320   	-6.92014e-01		         0.82500	-2.00000e+00	
3.09931   	-7.46162e-01		         0.82667	-2.00000e+00	
3.10542   	-8.00608e-01		         0.82833	-2.00000e+00	
3.11179   	-8.19687e-01		         0.83000	-1.00000e+00	
3.11827   	-8.41923e-01		         0.83167	-1.00000e+00	
3.12400   	-8.76074e-01		         0.83333	0.00000e+00	
3.13010   	-8.68720e-01		         0.83500	0.00000e+00	
3.13648   	-8.30814e-01		         0.83667	0.00000e+00	
3.14258   	-7.88344e-01		         0.83833	0.00000e+00	
3.14868   	-7.59652e-01		         0.84000	0.00000e+00	
3.15479   	-6.97763e-01		         0.84167	0.00000e+00	
3.16116   	-6.39348e-01		         0.84333	0.00000e+00	
3.16726   	-5.87351e-01		         0.84500	0.00000e+00	
3.17337   	-5.37481e-01		         0.84667	0.00000e+00	
3.17948   	-4.90691e-01		         0.84833	0.00000e+00	
3.18585   	-4.56202e-01		         0.85000	0.00000e+00	
3.19195   	-4.26842e-01		         0.85167	-1.00000e+00	
3.19806   	-3.95026e-01		         0.85333	-1.00000e+00	
3.20416   	-3.76932e-01		         0.85500	-1.00000e+00	
3.21054   	-3.44855e-01		         0.85667	-2.00000e+00	
3.21664   	-3.14636e-01		         0.85833	-2.00000e+00	
3.22275   	-2.80920e-01		         0.86000	-2.00000e+00	
3.22885   	-2.62763e-01		         0.86167	-2.00000e+00	
3.23523   	-2.39629e-01		         0.86333	-2.00000e+00	
3.24133   	-2.25706e-01		         0.86500	-2.00000e+00	
3.24743   	-2.34991e-01		         0.86667	-3.00000e+00	
3.25354   	-3.19891e-01		         0.86833	-3.00000e+00	
3.25991   	-4.44109e-01		         0.87000	-3.00000e+00	
3.26602   	-7.28492e-01		         0.87167	-3.00000e+00	
3.27213   	-1.16185e+00		         0.87333	-3.00000e+00	
3.27823   	-1.72371e+00		         0.87500	-3.00000e+00	
3.28460   	-2.53358e+00		         0.87667	-2.00000e+00	
3.29071   	-3.58326e+00		         0.87833	-2.00000e+00	
3.29681   	-4.47920e+00		         0.88000	-2.00000e+00	
3.30291   	-5.31940e+00		         0.88167	-2.00000e+00	
3.30929   	-6.11119e+00		         0.88333	-2.00000e+00	
3.31539   	-6.69561e+00		         0.88500	-2.00000e+00	
3.32150   	-6.95437e+00		         0.88667	-2.00000e+00	
3.32760   	-7.21321e+00		         0.88833	-2.00000e+00	
3.33422   	-7.31693e+00		         0.89000	-2.00000e+00	
3.34008   	-7.20496e+00		         0.89167	-2.00000e+00	
3.34618   	-6.90474e+00		         0.89333	-2.00000e+00	
3.35229   	-6.49391e+00		         0.89500	-2.00000e+00	
3.35866   	-6.02897e+00		         0.89667	-2.00000e+00	
3.36477   	-5.46970e+00		         0.89833	-2.00000e+00	
3.37087   	-4.95017e+00		         0.90000	-2.00000e+00	
3.37698   	-4.35112e+00		         0.90167	-2.00000e+00	
3.38335   	-3.83063e+00		         0.90333	-3.00000e+00	
3.38946   	-3.18498e+00		         0.90500	-3.00000e+00	
3.39556   	-2.54995e+00		         0.90667	-3.00000e+00	
3.40166   	-1.71200e+00		         0.90833	-4.00000e+00	
3.40804   	-8.52642e-01		         0.91000	-4.00000e+00	
3.41414   	1.06177e-02		         0.91167	-4.00000e+00	
3.42025   	9.20080e-01		         0.91333	-4.00000e+00	
3.42635   	1.69388e+00		         0.91500	-4.00000e+00	
3.43272   	1.20607e+00		         0.91667	-4.00000e+00	
3.43883   	5.46223e-02		         0.91833	-4.00000e+00	
3.44493   	-1.13726e+00		         0.92000	-4.00000e+00	
3.45104   	-2.60266e+00		         0.92167	-4.00000e+00	
3.45742   	-4.01821e+00		         0.92333	-4.00000e+00	
3.46352   	-3.65107e+00		         0.92500	-3.00000e+00	
3.46962   	-2.36674e+00		         0.92667	-3.00000e+00	
3.47573   	-8.01882e-01		         0.92833	-3.00000e+00	
3.48210   	9.74048e-01		         0.93000	-3.00000e+00	
3.48821   	2.88190e+00		         0.93167	-2.00000e+00	
3.49431   	4.05546e+00		         0.93333	-2.00000e+00	
3.50041   	4.92090e+00		         0.93500	-2.00000e+00	
3.50679   	5.59105e+00		         0.93667	-2.00000e+00	
3.51289   	6.01175e+00		         0.93833	-2.00000e+00	
3.51900   	6.33305e+00		         0.94000	-2.00000e+00	
3.52510   	6.53487e+00		         0.94167	-2.00000e+00	
3.53147   	6.57121e+00		         0.94333	-2.00000e+00	
3.53758   	6.43970e+00		         0.94500	-2.00000e+00	
3.54368   	6.40615e+00		         0.94667	-2.00000e+00	
3.54990   	6.15359e+00		         0.94833	-2.00000e+00	
3.55616   	5.99318e+00		         0.95000	-2.00000e+00	
3.56227   	5.82905e+00		         0.95167	-2.00000e+00	
3.56837   	5.69076e+00		         0.95333	-2.00000e+00	
3.57448   	5.48872e+00		         0.95500	-1.00000e+00	
3.58085   	5.47618e+00		         0.95667	-1.00000e+00	
3.58696   	5.35663e+00		         0.95833	-1.00000e+00	
3.59306   	5.23615e+00		         0.96000	-1.00000e+00	
3.59916   	5.08263e+00		         0.96167	-1.00000e+00	
3.60554   	4.97662e+00		         0.96333	-1.00000e+00	
3.61164   	4.85982e+00		         0.96500	-2.00000e+00	
3.61775   	4.80726e+00		         0.96667	-2.00000e+00	
3.62385   	4.72967e+00		         0.96833	-2.00000e+00	
3.63023   	4.74669e+00		         0.97000	-2.00000e+00	
3.63633   	4.74290e+00		         0.97167	-2.00000e+00	
3.64244   	4.68386e+00		         0.97333	-2.00000e+00	
3.64854   	4.57277e+00		         0.97500	-2.00000e+00	
3.65492   	4.51538e+00		         0.97667	-3.00000e+00	
3.66102   	4.39358e+00		         0.97833	-3.00000e+00	
3.66712   	4.27396e+00		         0.98000	-3.00000e+00	
3.67323   	4.09874e+00		         0.98167	-3.00000e+00	
3.67960   	3.94299e+00		         0.98333	-2.00000e+00	
3.68571   	3.81605e+00		         0.98500	-2.00000e+00	
3.69181   	3.64311e+00		         0.98667	-1.00000e+00	
3.69791   	3.48146e+00		         0.98833	-1.00000e+00	
3.70429   	3.32216e+00		         0.99000	0.00000e+00	
3.71039   	3.11286e+00		         0.99167	0.00000e+00	
3.71650   	2.88136e+00		         0.99333	1.00000e+00	
3.72260   	2.67185e+00		         0.99500	1.00000e+00	
3.72898   	2.42883e+00		         0.99667	2.00000e+00	
3.73508   	2.20799e+00		         0.99833	3.00000e+00	
3.74119   	2.03950e+00		         1.00000	3.00000e+00	
3.74729   	1.83080e+00		         1.00167	4.00000e+00	
3.75366   	1.63936e+00		         1.00333	5.00000e+00	
3.75977   	1.45744e+00		         1.00500	6.00000e+00	
3.76587   	1.29659e+00		         1.00667	7.00000e+00	
3.77198   	1.09601e+00		         1.00833	8.00000e+00	
3.77835   	8.03778e-01		         1.01000	9.00000e+00	
3.78446   	4.02230e-01		         1.01167	1.00000e+01	
3.79056   	-9.92499e-02		         1.01333	1.10000e+01	
3.79666   	-6.16771e-01		         1.01500	1.20000e+01	
3.80304   	-1.04039e+00		         1.01667	1.40000e+01	
3.80914   	-6.74571e-01		         1.01833	1.50000e+01	
3.81525   	-3.24765e-01		         1.02000	1.60000e+01	
3.82135   	1.74851e-01		         1.02167	1.60000e+01	
3.82773   	5.09895e-01		         1.02333	1.70000e+01	
3.83383   	9.12381e-01		         1.02500	1.70000e+01	
3.83993   	1.01018e+00		         1.02667	1.60000e+01	
3.84604   	1.06965e+00		         1.02833	1.60000e+01	
3.85242   	1.47444e+00		         1.03000	1.40000e+01	
3.85852   	2.14240e+00		         1.03167	1.30000e+01	
3.86462   	2.88212e+00		         1.03333	1.20000e+01	
3.87073   	3.26952e+00		         1.03500	1.00000e+01	
3.87710   	3.98069e+00		         1.03667	9.00000e+00	
3.88320   	4.32727e+00		         1.03833	7.00000e+00	
3.88931   	4.46056e+00		         1.04000	5.00000e+00	
3.89541   	4.43205e+00		         1.04167	4.00000e+00	
3.90179   	4.14977e+00		         1.04333	2.00000e+00	
3.90789   	3.36146e+00		         1.04500	1.00000e+00	
3.91400   	2.29211e+00		         1.04667	0.00000e+00	
3.92010   	8.38447e-01		         1.04833	-1.00000e+00	
3.92648   	-7.98312e-01		         1.05000	-1.00000e+00	
3.93258   	-2.08299e+00		         1.05167	-2.00000e+00	
3.93869   	-3.09126e+00		         1.05333	-2.00000e+00	
3.94479   	-3.93696e+00		         1.05500	-3.00000e+00	
3.95116   	-4.33734e+00		         1.05667	-3.00000e+00	
3.95727   	-4.40947e+00		         1.05833	-3.00000e+00	
3.96337   	-4.70275e+00		         1.06000	-4.00000e+00	
3.96948   	-4.87477e+00		         1.06167	-4.00000e+00	
3.97585   	-4.95233e+00		         1.06333	-4.00000e+00	
3.98195   	-4.85208e+00		         1.06500	-4.00000e+00	
3.98806   	-4.86829e+00		         1.06667	-4.00000e+00	
3.99416   	-4.88914e+00		         1.06833	-4.00000e+00	
4.00054   	-4.92175e+00		         1.07000	-4.00000e+00	
4.00664   	-4.85751e+00		         1.07167	-4.00000e+00	
4.01275   	-4.85575e+00		         1.07333	-4.00000e+00	
4.01885   	-4.65854e+00		         1.07500	-4.00000e+00	
4.02523   	-4.30769e+00		         1.07667	-5.00000e+00	
4.03133   	-4.04584e+00		         1.07833	-5.00000e+00	
4.03744   	-3.82819e+00		         1.08000	-5.00000e+00	
4.04354   	-3.48976e+00		         1.08167	-5.00000e+00	
4.04991   	-3.45685e+00		         1.08333	-5.00000e+00	
4.05602   	-3.35987e+00		         1.08500	-5.00000e+00	
4.06212   	-3.08695e+00		         1.08667	-5.00000e+00	
4.06823   	-2.76645e+00		         1.08833	-5.00000e+00	
4.07461   	-2.49551e+00		         1.09000	-5.00000e+00	
4.08071   	-2.04061e+00		         1.09167	-5.00000e+00	
4.08681   	-1.63150e+00		         1.09333	-5.00000e+00	
4.09291   	-1.31276e+00		         1.09500	-5.00000e+00	
4.09929   	-9.85204e-01		         1.09667	-5.00000e+00	
4.10539   	-7.50808e-01		         1.09833	-6.00000e+00	
4.11150   	-5.89138e-01		         1.10000	-6.00000e+00	
4.11760   	-4.36203e-01		         1.10167	-6.00000e+00	
4.12398   	-2.33568e-01		         1.10333	-7.00000e+00	
4.13008   	-9.20949e-02		         1.10500	-8.00000e+00	
4.13619   	6.89911e-03		         1.10667	-8.00000e+00	
4.14229   	5.50536e-02		         1.10833	-1.00000e+01	
4.14866   	8.37963e-02		         1.11000	-1.10000e+01	
4.15477   	4.15835e-02		         1.11167	-1.30000e+01	
4.16087   	-4.39958e-02		         1.11333	-1.40000e+01	
4.16698   	-1.12438e-01		         1.11500	-1.70000e+01	
4.17335   	-1.82563e-01		         1.11667	-1.90000e+01	
4.17945   	-3.06198e-01		         1.11833	-2.10000e+01	
4.18556   	-4.06751e-01		         1.12000	-2.30000e+01	
4.19167   	-5.09539e-01		         1.12167	-2.40000e+01	
4.19804   	-6.03890e-01		         1.12333	-2.40000e+01	
4.20414   	-6.64818e-01		         1.12500	-2.20000e+01	
4.21025   	-7.00475e-01		         1.12667	-2.00000e+01	
4.21635   	-7.34243e-01		         1.12833	-1.50000e+01	
4.22273   	-7.62655e-01		         1.13000	-7.00000e+00	
4.22883   	-7.90809e-01		         1.13167	3.00000e+00	
4.23494   	-8.36769e-01		         1.13333	1.70000e+01	
4.24104   	-8.77501e-01		         1.13500	3.50000e+01	
4.24741   	-9.24637e-01		         1.13667	5.60000e+01	
4.25352   	-9.17987e-01		         1.13833	8.10000e+01	
4.25962   	-9.08972e-01		         1.14000	1.09000e+02	
4.26572   	-8.84179e-01		         1.14167	1.41000e+02	
4.27210   	-8.52141e-01		         1.14333	1.75000e+02	
4.27820   	-8.07824e-01		         1.14500	2.10000e+02	
4.28431   	-7.89085e-01		         1.14667	2.46000e+02	
4.29042   	-7.68469e-01		         1.14833	2.81000e+02	
4.29679   	-7.39425e-01		         1.15000	3.15000e+02	
4.30289   	-7.09793e-01		         1.15167	3.45000e+02	
4.30900   	-6.58318e-01		         1.15333	3.70000e+02	
4.31510   	-6.12866e-01		         1.15500	3.89000e+02	
4.32148   	-5.52601e-01		         1.15667	4.02000e+02	
4.32758   	-5.02761e-01		         1.15833	4.06000e+02	
4.33368   	-4.59518e-01		         1.16000	4.04000e+02	
4.33979   	-4.38360e-01		         1.16167	3.93000e+02	
4.34616   	-4.16557e-01		         1.16333	3.75000e+02	
4.35227   	-3.98422e-01		         1.16500	3.51000e+02	
4.35837   	-3.81535e-01		         1.16667	3.22000e+02	
4.36448   	-3.76730e-01		         1.16833	2.88000e+02	
4.37085   	-3.93126e-01		         1.17000	2.52000e+02	
4.37695   	-4.65882e-01		         1.17167	2.13000e+02	
4.38306   	-6.24400e-01		         1.17333	1.75000e+02	
4.38917   	-9.07560e-01		         1.17500	1.38000e+02	
4.39554   	-1.36527e+00		         1.17667	1.03000e+02	
4.40164   	-1.96887e+00		         1.17833	7.00000e+01	
4.40775   	-2.67802e+00		         1.18000	4.10000e+01	
4.41385   	-3.58807e+00		         1.18167	1.50000e+01	
4.42023   	-4.47507e+00		         1.18333	-8.00000e+00	
4.42633   	-5.31262e+00		         1.18500	-2.70000e+01	
4.43244   	-6.08785e+00		         1.18667	-4.30000e+01	
4.43854   	-6.72401e+00		         1.18833	-5.70000e+01	
4.44491   	-7.03425e+00		         1.19000	-6.80000e+01	
4.45102   	-7.23642e+00		         1.19167	-7.70000e+01	
4.45712   	-7.13720e+00		         1.19333	-8.40000e+01	
4.46323   	-6.92556e+00		         1.19500	-9.00000e+01	
4.46960   	-6.54684e+00		         1.19667	-9.50000e+01	
4.47571   	-6.17115e+00		         1.19833	-9.80000e+01	
4.48181   	-5.65664e+00		         1.20000	-1.01000e+02	
4.48792   	-5.23176e+00		         1.20167	-1.03000e+02	
4.49429   	-4.63198e+00		         1.20333	-1.04000e+02	
4.50039   	-4.14628e+00		         1.20500	-1.04000e+02	
4.50650   	-3.54740e+00		         1.20667	-1.04000e+02	
4.51285   	-3.16571e+00		         1.20833	-1.04000e+02	
4.51898   	-2.61940e+00		         1.21000	-1.03000e+02	
4.52508   	-1.95637e+00		         1.21167	-1.02000e+02	
4.53118   	-1.09371e+00		         1.21333	-1.00000e+02	
			         1.21500	-9.90000e+01	
			         1.21667	-9.70000e+01	
			         1.21833	-9.50000e+01	
			         1.22000	-9.30000e+01	
			         1.22167	-9.20000e+01	
			         1.22333	-9.00000e+01	
			         1.22500	-8.90000e+01	
			         1.22667	-8.70000e+01	
			         1.22833	-8.50000e+01	
			         1.23000	-8.40000e+01	
			         1.23167	-8.20000e+01	
			         1.23333	-8.00000e+01	
			         1.23500	-7.90000e+01	
			         1.23667	-7.70000e+01	
			         1.23833	-7.60000e+01	
			         1.24000	-7.40000e+01	
			         1.24167	-7.30000e+01	
			         1.24333	-7.20000e+01	
			         1.24500	-7.00000e+01	
			         1.24667	-6.90000e+01	
			         1.24833	-6.70000e+01	
			         1.25000	-6.60000e+01	
			         1.25167	-6.40000e+01	
			         1.25333	-6.30000e+01	
			         1.25500	-6.10000e+01	
			         1.25667	-6.00000e+01	
			         1.25833	-5.80000e+01	
			         1.26000	-5.60000e+01	
			         1.26167	-5.50000e+01	
			         1.26333	-5.30000e+01	
			         1.26500	-5.10000e+01	
			         1.26667	-5.00000e+01	
			         1.26833	-4.80000e+01	
			         1.27000	-4.70000e+01	
			         1.27167	-4.50000e+01	
			         1.27333	-4.40000e+01	
			         1.27500	-4.20000e+01	
			         1.27667	-4.10000e+01	
			         1.27833	-4.00000e+01	
			         1.28000	-3.80000e+01	
			         1.28167	-3.70000e+01	
			         1.28333	-3.60000e+01	
			         1.28500	-3.50000e+01	
			         1.28667	-3.40000e+01	
			         1.28833	-3.30000e+01	
			         1.29000	-3.20000e+01	
			         1.29167	-3.10000e+01	
			         1.29333	-3.00000e+01	
			         1.29500	-2.90000e+01	
			         1.29667	-2.80000e+01	
			         1.29833	-2.70000e+01	
			         1.30000	-2.60000e+01	
			         1.30167	-2.50000e+01	
			         1.30333	-2.40000e+01	
			         1.30500	-2.40000e+01	
			         1.30667	-2.30000e+01	
			         1.30833	-2.20000e+01	
			         1.31000	-2.10000e+01	
			         1.31167	-2.10000e+01	
			         1.31333	-2.00000e+01	
			         1.31500	-1.90000e+01	
			         1.31667	-1.80000e+01	
			         1.31833	-1.70000e+01	
			         1.32000	-1.60000e+01	
			         1.32167	-1.50000e+01	
			         1.32333	-1.30000e+01	
			         1.32500	-1.20000e+01	
			         1.32667	-1.10000e+01	
			         1.32833	-1.00000e+01	
			         1.33000	-9.00000e+00	
			         1.33167	-8.00000e+00	
			         1.33333	-7.00000e+00	
			         1.33500	-6.00000e+00	
			         1.33667	-6.00000e+00	
			         1.33833	-5.00000e+00	
			         1.34000	-4.00000e+00	
			         1.34167	-4.00000e+00	
			         1.34333	-3.00000e+00	
			         1.34500	-2.00000e+00	
			         1.34667	-2.00000e+00	
			         1.34833	-1.00000e+00	
			         1.35000	0.00000e+00	
			         1.35167	0.00000e+00	
			         1.35333	1.00000e+00	
			         1.35500	1.00000e+00	
			         1.35667	2.00000e+00	
			         1.35833	2.00000e+00	
			         1.36000	3.00000e+00	
			         1.36167	4.00000e+00	
			         1.36333	5.00000e+00	
			         1.36500	7.00000e+00	
			         1.36667	8.00000e+00	
			         1.36833	9.00000e+00	
			         1.37000	1.10000e+01	
			         1.37167	1.20000e+01	
			         1.37333	1.30000e+01	
			         1.37500	1.50000e+01	
			         1.37667	1.60000e+01	
			         1.37833	1.70000e+01	
			         1.38000	1.80000e+01	
			         1.38167	1.90000e+01	
			         1.38333	2.00000e+01	
			         1.38500	2.10000e+01	
			         1.38667	2.20000e+01	
			         1.38833	2.30000e+01	
			         1.39000	2.40000e+01	
			         1.39167	2.50000e+01	
			         1.39333	2.60000e+01	
			         1.39500	2.70000e+01	
			         1.39667	2.90000e+01	
			         1.39833	3.00000e+01	
			         1.40000	3.10000e+01	
			         1.40167	3.20000e+01	
			         1.40333	3.30000e+01	
			         1.40500	3.40000e+01	
			         1.40667	3.60000e+01	
			         1.40833	3.70000e+01	
			         1.41000	3.80000e+01	
			         1.41167	3.90000e+01	
			         1.41333	4.00000e+01	
			         1.41500	4.00000e+01	
			         1.41667	4.10000e+01	
			         1.41833	4.20000e+01	
			         1.42000	4.30000e+01	
			         1.42167	4.30000e+01	
			         1.42333	4.40000e+01	
			         1.42500	4.50000e+01	
			         1.42667	4.50000e+01	
			         1.42833	4.50000e+01	
			         1.43000	4.50000e+01	
			         1.43167	4.60000e+01	
			         1.43333	4.60000e+01	
			         1.43500	4.50000e+01	
			         1.43667	4.50000e+01	
			         1.43833	4.50000e+01	
			         1.44000	4.40000e+01	
			         1.44167	4.40000e+01	
			         1.44333	4.30000e+01	
			         1.44500	4.20000e+01	
			         1.44667	4.10000e+01	
			         1.44833	4.00000e+01	
			         1.45000	3.80000e+01	
			         1.45167	3.70000e+01	
			         1.45333	3.50000e+01	
			         1.45500	3.30000e+01	
			         1.45667	3.10000e+01	
			         1.45833	2.90000e+01	
			         1.46000	2.70000e+01	
			         1.46167	2.40000e+01	
			         1.46333	2.10000e+01	
			         1.46500	1.80000e+01	
			         1.46667	1.50000e+01	
			         1.46833	1.20000e+01	
			         1.47000	9.00000e+00	
			         1.47167	6.00000e+00	
			         1.47333	3.00000e+00	
			         1.47500	-1.00000e+00	
			         1.47667	-4.00000e+00	
			         1.47833	-7.00000e+00	
			         1.48000	-9.00000e+00	
			         1.48167	-1.20000e+01	
			         1.48333	-1.40000e+01	
			         1.48500	-1.70000e+01	
			         1.48667	-1.90000e+01	
			         1.48833	-2.10000e+01	
			         1.49000	-2.30000e+01	
			         1.49167	-2.50000e+01	
			         1.49333	-2.70000e+01	
			         1.49500	-2.90000e+01	
			         1.49667	-3.10000e+01	
			         1.49833	-3.30000e+01	
			         1.50000	-3.40000e+01	
			         1.50167	-3.60000e+01	
			         1.50333	-3.70000e+01	
			         1.50500	-3.80000e+01	
			         1.50667	-3.90000e+01	
			         1.50833	-4.00000e+01	
			         1.51000	-4.10000e+01	
			         1.51167	-4.10000e+01	
			         1.51333	-4.20000e+01	
			         1.51500	-4.20000e+01	
			         1.51667	-4.20000e+01	
			         1.51833	-4.20000e+01	
			         1.52000	-4.20000e+01	
			         1.52167	-4.20000e+01	
			         1.52333	-4.20000e+01	
			         1.52500	-4.20000e+01	
			         1.52667	-4.20000e+01	
			         1.52833	-4.20000e+01	
			         1.53000	-4.10000e+01	
			         1.53167	-4.10000e+01	
			         1.53333	-4.10000e+01	
			         1.53500	-4.00000e+01	
			         1.53667	-4.00000e+01	
			         1.53833	-3.90000e+01	
			         1.54000	-3.90000e+01	
			         1.54167	-3.80000e+01	
			         1.54333	-3.70000e+01	
			         1.54500	-3.70000e+01	
			         1.54667	-3.60000e+01	
			         1.54833	-3.60000e+01	
			         1.55000	-3.50000e+01	
			         1.55167	-3.40000e+01	
			         1.55333	-3.30000e+01	
			         1.55500	-3.30000e+01	
			         1.55667	-3.20000e+01	
			         1.55833	-3.10000e+01	
			         1.56000	-3.10000e+01	
			         1.56167	-3.00000e+01	
			         1.56333	-2.90000e+01	
			         1.56500	-2.80000e+01	
			         1.56667	-2.80000e+01	
			         1.56833	-2.70000e+01	
			         1.57000	-2.60000e+01	
			         1.57167	-2.60000e+01	
			         1.57333	-2.50000e+01	
			         1.57500	-2.50000e+01	
			         1.57667	-2.40000e+01	
			         1.57833	-2.40000e+01	
			         1.58000	-2.40000e+01	
			         1.58167	-2.30000e+01	
			         1.58333	-2.30000e+01	
			         1.58500	-2.30000e+01	
			         1.58667	-2.20000e+01	
			         1.58833	-2.20000e+01	
			         1.59000	-2.20000e+01	
			         1.59167	-2.10000e+01	
			         1.59333	-2.10000e+01	
			         1.59500	-2.00000e+01	
			         1.59667	-2.00000e+01	
			         1.59833	-1.90000e+01	
			         1.60000	-1.90000e+01	
			         1.60167	-1.80000e+01	
			         1.60333	-1.70000e+01	
			         1.60500	-1.70000e+01	
			         1.60667	-1.60000e+01	
			         1.60833	-1.50000e+01	
			         1.61000	-1.50000e+01	
			         1.61167	-1.50000e+01	
			         1.61333	-1.40000e+01	
			         1.61500	-1.40000e+01	
			         1.61667	-1.40000e+01	
			         1.61833	-1.40000e+01	
			         1.62000	-1.40000e+01	
			         1.62167	-1.40000e+01	
			         1.62333	-1.40000e+01	
			         1.62500	-1.40000e+01	
			         1.62667	-1.40000e+01	
			         1.62833	-1.40000e+01	
			         1.63000	-1.40000e+01	
			         1.63167	-1.40000e+01	
			         1.63333	-1.40000e+01	
			         1.63500	-1.30000e+01	
			         1.63667	-1.30000e+01	
			         1.63833	-1.30000e+01	
			         1.64000	-1.30000e+01	
			         1.64167	-1.30000e+01	
			         1.64333	-1.20000e+01	
			         1.64500	-1.20000e+01	
			         1.64667	-1.20000e+01	
			         1.64833	-1.20000e+01	
			         1.65000	-1.20000e+01	
			         1.65167	-1.20000e+01	
			         1.65333	-1.20000e+01	
			         1.65500	-1.20000e+01	
			         1.65667	-1.20000e+01	
			         1.65833	-1.10000e+01	
			         1.66000	-1.10000e+01	
			         1.66167	-1.00000e+01	
			         1.66333	-1.00000e+01	
			         1.66500	-1.00000e+01	
			         1.66667	-9.00000e+00	
			         1.66833	-9.00000e+00	
			         1.67000	-8.00000e+00	
			         1.67167	-8.00000e+00	
			         1.67333	-7.00000e+00	
			         1.67500	-7.00000e+00	
			         1.67667	-6.00000e+00	
			         1.67833	-6.00000e+00	
			         1.68000	-6.00000e+00	
			         1.68167	-6.00000e+00	
			         1.68333	-6.00000e+00	
			         1.68500	-6.00000e+00	
			         1.68667	-6.00000e+00	
			         1.68833	-6.00000e+00	
			         1.69000	-7.00000e+00	
			         1.69167	-7.00000e+00	
			         1.69333	-7.00000e+00	
			         1.69500	-8.00000e+00	
			         1.69667	-8.00000e+00	
			         1.69833	-8.00000e+00	
			         1.70000	-8.00000e+00	
			         1.70167	-8.00000e+00	
			         1.70333	-8.00000e+00	
			         1.70500	-7.00000e+00	
			         1.70667	-7.00000e+00	
			         1.70833	-7.00000e+00	
			         1.71000	-6.00000e+00	
			         1.71167	-6.00000e+00	
			         1.71333	-5.00000e+00	
			         1.71500	-5.00000e+00	
			         1.71667	-5.00000e+00	
			         1.71833	-5.00000e+00	
			         1.72000	-5.00000e+00	
			         1.72167	-6.00000e+00	
			         1.72333	-6.00000e+00	
			         1.72500	-6.00000e+00	
			         1.72667	-7.00000e+00	
			         1.72833	-7.00000e+00	
			         1.73000	-8.00000e+00	
			         1.73167	-8.00000e+00	
			         1.73333	-9.00000e+00	
			         1.73500	-9.00000e+00	
			         1.73667	-9.00000e+00	
			         1.73833	-9.00000e+00	
			         1.74000	-8.00000e+00	
			         1.74167	-8.00000e+00	
			         1.74333	-8.00000e+00	
			         1.74500	-8.00000e+00	
			         1.74667	-7.00000e+00	
			         1.74833	-7.00000e+00	
			         1.75000	-7.00000e+00	
			         1.75167	-6.00000e+00	
			         1.75333	-6.00000e+00	
			         1.75500	-5.00000e+00	
			         1.75667	-5.00000e+00	
			         1.75833	-5.00000e+00	
			         1.76000	-5.00000e+00	
			         1.76167	-4.00000e+00	
			         1.76333	-4.00000e+00	
			         1.76500	-4.00000e+00	
			         1.76667	-4.00000e+00	
			         1.76833	-4.00000e+00	
			         1.77000	-4.00000e+00	
			         1.77167	-4.00000e+00	
			         1.77333	-4.00000e+00	
			         1.77500	-4.00000e+00	
			         1.77667	-5.00000e+00	
			         1.77833	-5.00000e+00	
			         1.78000	-5.00000e+00	
			         1.78167	-5.00000e+00	
			         1.78333	-5.00000e+00	
			         1.78500	-5.00000e+00	
			         1.78667	-5.00000e+00	
			         1.78833	-5.00000e+00	
			         1.79000	-5.00000e+00	
			         1.79167	-5.00000e+00	
			         1.79333	-5.00000e+00	
			         1.79500	-5.00000e+00	
			         1.79667	-5.00000e+00	
			         1.79833	-5.00000e+00	
			         1.80000	-5.00000e+00	
			         1.80167	-6.00000e+00	
			         1.80333	-6.00000e+00	
			         1.80500	-7.00000e+00	
			         1.80667	-7.00000e+00	
			         1.80833	-7.00000e+00	
			         1.81000	-8.00000e+00	
			         1.81167	-8.00000e+00	
			         1.81333	-8.00000e+00	
			         1.81500	-8.00000e+00	
			         1.81667	-8.00000e+00	
			         1.81833	-8.00000e+00	
			         1.82000	-8.00000e+00	
			         1.82167	-8.00000e+00	
			         1.82333	-8.00000e+00	
			         1.82500	-8.00000e+00	
			         1.82667	-7.00000e+00	
			         1.82833	-7.00000e+00	
			         1.83000	-7.00000e+00	
			         1.83167	-7.00000e+00	
			         1.83333	-7.00000e+00	
			         1.83500	-6.00000e+00	
			         1.83667	-6.00000e+00	
			         1.83833	-6.00000e+00	
			         1.84000	-6.00000e+00	
			         1.84167	-6.00000e+00	
			         1.84333	-6.00000e+00	
			         1.84500	-6.00000e+00	
			         1.84667	-6.00000e+00	
			         1.84833	-6.00000e+00	
			         1.85000	-5.00000e+00	
			         1.85167	-5.00000e+00	
			         1.85333	-5.00000e+00	
			         1.85500	-4.00000e+00	
			         1.85667	-4.00000e+00	
			         1.85833	-4.00000e+00	
			         1.86000	-3.00000e+00	
			         1.86167	-3.00000e+00	
			         1.86333	-3.00000e+00	
			         1.86500	-3.00000e+00	
			         1.86667	-3.00000e+00	
			         1.86833	-2.00000e+00	
			         1.87000	-3.00000e+00	
			         1.87167	-3.00000e+00	
			         1.87333	-3.00000e+00	
			         1.87500	-4.00000e+00	
			         1.87667	-4.00000e+00	
			         1.87833	-4.00000e+00	
			         1.88000	-5.00000e+00	
			         1.88167	-5.00000e+00	
			         1.88333	-5.00000e+00	
			         1.88500	-5.00000e+00	
			         1.88667	-5.00000e+00	
			         1.88833	-5.00000e+00	
			         1.89000	-5.00000e+00	
			         1.89167	-5.00000e+00	
			         1.89333	-5.00000e+00	
			         1.89500	-5.00000e+00	
			         1.89667	-5.00000e+00	
			         1.89833	-4.00000e+00	
			         1.90000	-4.00000e+00	
			         1.90167	-4.00000e+00	
			         1.90333	-4.00000e+00	
			         1.90500	-4.00000e+00	
			         1.90667	-4.00000e+00	
			         1.90833	-4.00000e+00	
			         1.91000	-4.00000e+00	
			         1.91167	-4.00000e+00	
			         1.91333	-4.00000e+00	
			         1.91500	-4.00000e+00	
			         1.91667	-4.00000e+00	
			         1.91833	-4.00000e+00	
			         1.92000	-4.00000e+00	
			         1.92167	-4.00000e+00	
			         1.92333	-4.00000e+00	
			         1.92500	-4.00000e+00	
			         1.92667	-4.00000e+00	
			         1.92833	-4.00000e+00	
			         1.93000	-4.00000e+00	
			         1.93167	-4.00000e+00	
			         1.93333	-3.00000e+00	
			         1.93500	-3.00000e+00	
			         1.93667	-3.00000e+00	
			         1.93833	-3.00000e+00	
			         1.94000	-3.00000e+00	
			         1.94167	-2.00000e+00	
			         1.94333	-2.00000e+00	
			         1.94500	-2.00000e+00	
			         1.94667	-2.00000e+00	
			         1.94833	-2.00000e+00	
			         1.95000	-2.00000e+00	
			         1.95167	-2.00000e+00	
			         1.95333	-2.00000e+00	
			         1.95500	-2.00000e+00	
			         1.95667	-2.00000e+00	
			         1.95833	-2.00000e+00	
			         1.96000	-2.00000e+00	
			         1.96167	-2.00000e+00	
			         1.96333	-2.00000e+00	
			         1.96500	-2.00000e+00	
			         1.96667	-2.00000e+00	
			         1.96833	-2.00000e+00	
			         1.97000	-2.00000e+00	
			         1.97167	-2.00000e+00	
			         1.97333	-2.00000e+00	
			         1.97500	-2.00000e+00	
			         1.97667	-2.00000e+00	
			         1.97833	-1.00000e+00	
			         1.98000	-1.00000e+00	
			         1.98167	-1.00000e+00	
			         1.98333	-1.00000e+00	
			         1.98500	-1.00000e+00	
			         1.98667	-1.00000e+00	
			         1.98833	-1.00000e+00	
			         1.99000	-1.00000e+00	
			         1.99167	-1.00000e+00	
			         1.99333	-1.00000e+00	
			         1.99500	-1.00000e+00	
			         1.99667	-1.00000e+00	
			         1.99833	-1.00000e+00	
			         2.00000	-1.00000e+00	
			         2.00167	-1.00000e+00	
			         2.00333	-1.00000e+00	
			         2.00500	-1.00000e+00	
			         2.00667	-1.00000e+00	
			         2.00833	-1.00000e+00	
			         2.01000	-1.00000e+00	
			         2.01167	0.00000e+00	
			         2.01333	0.00000e+00	
			         2.01500	1.00000e+00	
			         2.01667	1.00000e+00	
			         2.01833	2.00000e+00	
			         2.02000	2.00000e+00	
			         2.02167	3.00000e+00	
			         2.02333	3.00000e+00	
			         2.02500	4.00000e+00	
			         2.02667	4.00000e+00	
			         2.02833	4.00000e+00	
			         2.03000	5.00000e+00	
			         2.03167	5.00000e+00	
			         2.03333	4.00000e+00	
			         2.03500	4.00000e+00	
			         2.03667	4.00000e+00	
			         2.03833	3.00000e+00	
			         2.04000	3.00000e+00	
			         2.04167	3.00000e+00	
			         2.04333	2.00000e+00	
			         2.04500	2.00000e+00	
			         2.04667	2.00000e+00	
			         2.04833	2.00000e+00	
			         2.05000	2.00000e+00	
			         2.05167	2.00000e+00	
			         2.05333	2.00000e+00	
			         2.05500	1.00000e+00	
			         2.05667	1.00000e+00	
			         2.05833	1.00000e+00	
			         2.06000	1.00000e+00	
			         2.06167	1.00000e+00	
			         2.06333	2.00000e+00	
			         2.06500	2.00000e+00	
			         2.06667	2.00000e+00	
			         2.06833	2.00000e+00	
			         2.07000	1.00000e+00	
			         2.07167	1.00000e+00	
			         2.07333	1.00000e+00	
			         2.07500	1.00000e+00	
			         2.07667	1.00000e+00	
			         2.07833	0.00000e+00	
			         2.08000	0.00000e+00	
			         2.08167	-1.00000e+00	
			         2.08333	-1.00000e+00	
			         2.08500	-2.00000e+00	
			         2.08667	-3.00000e+00	
			         2.08833	-3.00000e+00	
			         2.09000	-3.00000e+00	
			         2.09167	-3.00000e+00	
			         2.09333	-3.00000e+00	
			         2.09500	-2.00000e+00	
			         2.09667	-2.00000e+00	
			         2.09833	-1.00000e+00	
			         2.10000	0.00000e+00	
			         2.10167	1.00000e+00	
			         2.10333	2.00000e+00	
			         2.10500	3.00000e+00	
			         2.10667	4.00000e+00	
			         2.10833	5.00000e+00	
			         2.11000	6.00000e+00	
			         2.11167	7.00000e+00	
			         2.11333	7.00000e+00	
			         2.11500	8.00000e+00	
			         2.11667	8.00000e+00	
			         2.11833	9.00000e+00	
			         2.12000	9.00000e+00	
			         2.12167	1.00000e+01	
			         2.12333	1.10000e+01	
			         2.12500	1.20000e+01	
			         2.12667	1.30000e+01	
			         2.12833	1.30000e+01	
			         2.13000	1.40000e+01	
			         2.13167	1.50000e+01	
			         2.13333	1.60000e+01	
			         2.13500	1.70000e+01	
			         2.13667	1.70000e+01	
			         2.13833	1.80000e+01	
			         2.14000	1.80000e+01	
			         2.14167	1.70000e+01	
			         2.14333	1.60000e+01	
			         2.14500	1.50000e+01	
			         2.14667	1.40000e+01	
			         2.14833	1.20000e+01	
			         2.15000	1.10000e+01	
			         2.15167	9.00000e+00	
			         2.15333	7.00000e+00	
			         2.15500	6.00000e+00	
			         2.15667	4.00000e+00	
			         2.15833	3.00000e+00	
			         2.16000	2.00000e+00	
			         2.16167	1.00000e+00	
			         2.16333	0.00000e+00	
			         2.16500	-1.00000e+00	
			         2.16667	-1.00000e+00	
			         2.16833	-1.00000e+00	
			         2.17000	-2.00000e+00	
			         2.17167	-2.00000e+00	
			         2.17333	-2.00000e+00	
			         2.17500	-3.00000e+00	
			         2.17667	-3.00000e+00	
			         2.17833	-3.00000e+00	
			         2.18000	-4.00000e+00	
			         2.18167	-4.00000e+00	
			         2.18333	-4.00000e+00	
			         2.18500	-4.00000e+00	
			         2.18667	-4.00000e+00	
			         2.18833	-4.00000e+00	
			         2.19000	-4.00000e+00	
			         2.19167	-4.00000e+00	
			         2.19333	-4.00000e+00	
			         2.19500	-3.00000e+00	
			         2.19667	-2.00000e+00	
			         2.19833	-2.00000e+00	
			         2.20000	-1.00000e+00	
			         2.20167	-1.00000e+00	
			         2.20333	-1.00000e+00	
			         2.20500	-1.00000e+00	
			         2.20667	-1.00000e+00	
			         2.20833	-1.00000e+00	
			         2.21000	-1.00000e+00	
			         2.21167	-1.00000e+00	
			         2.21333	-1.00000e+00	
			         2.21500	-2.00000e+00	
			         2.21667	-3.00000e+00	
			         2.21833	-5.00000e+00	
			         2.22000	-7.00000e+00	
			         2.22167	-1.00000e+01	
			         2.22333	-1.40000e+01	
			         2.22500	-1.90000e+01	
			         2.22667	-2.40000e+01	
			         2.22833	-3.00000e+01	
			         2.23000	-3.60000e+01	
			         2.23167	-4.20000e+01	
			         2.23333	-4.80000e+01	
			         2.23500	-5.30000e+01	
			         2.23667	-5.90000e+01	
			         2.23833	-6.30000e+01	
			         2.24000	-6.70000e+01	
			         2.24167	-7.00000e+01	
			         2.24333	-7.20000e+01	
			         2.24500	-7.30000e+01	
			         2.24667	-7.30000e+01	
			         2.24833	-7.30000e+01	
			         2.25000	-7.20000e+01	
			         2.25167	-7.10000e+01	
			         2.25333	-6.90000e+01	
			         2.25500	-6.70000e+01	
			         2.25667	-6.50000e+01	
			         2.25833	-6.40000e+01	
			         2.26000	-6.20000e+01	
			         2.26167	-6.00000e+01	
			         2.26333	-5.80000e+01	
			         2.26500	-5.60000e+01	
			         2.26667	-5.50000e+01	
			         2.26833	-5.30000e+01	
			         2.27000	-5.20000e+01	
			         2.27167	-5.00000e+01	
			         2.27333	-4.90000e+01	
			         2.27500	-4.70000e+01	
			         2.27667	-4.60000e+01	
			         2.27833	-4.50000e+01	
			         2.28000	-4.30000e+01	
			         2.28167	-4.20000e+01	
			         2.28333	-4.00000e+01	
			         2.28500	-3.90000e+01	
			         2.28667	-3.80000e+01	
			         2.28833	-3.60000e+01	
			         2.29000	-3.50000e+01	
			         2.29167	-3.40000e+01	
			         2.29333	-3.30000e+01	
			         2.29500	-3.20000e+01	
			         2.29667	-3.10000e+01	
			         2.29833	-3.00000e+01	
			         2.30000	-2.90000e+01	
			         2.30167	-2.70000e+01	
			         2.30333	-2.60000e+01	
			         2.30500	-2.50000e+01	
			         2.30667	-2.40000e+01	
			         2.30833	-2.30000e+01	
			         2.31000	-2.30000e+01	
			         2.31167	-2.20000e+01	
			         2.31333	-2.10000e+01	
			         2.31500	-2.00000e+01	
			         2.31667	-1.90000e+01	
			         2.31833	-1.80000e+01	
			         2.32000	-1.80000e+01	
			         2.32167	-1.70000e+01	
			         2.32333	-1.60000e+01	
			         2.32500	-1.50000e+01	
			         2.32667	-1.40000e+01	
			         2.32833	-1.30000e+01	
			         2.33000	-1.20000e+01	
			         2.33167	-1.10000e+01	
			         2.33333	-1.00000e+01	
			         2.33500	-9.00000e+00	
			         2.33667	-8.00000e+00	
			         2.33833	-7.00000e+00	
			         2.34000	-6.00000e+00	
			         2.34167	-5.00000e+00	
			         2.34333	-5.00000e+00	
			         2.34500	-4.00000e+00	
			         2.34667	-3.00000e+00	
			         2.34833	-2.00000e+00	
			         2.35000	-2.00000e+00	
			         2.35167	-1.00000e+00	
			         2.35333	0.00000e+00	
			         2.35500	0.00000e+00	
			         2.35667	1.00000e+00	
			         2.35833	2.00000e+00	
			         2.36000	2.00000e+00	
			         2.36167	3.00000e+00	
			         2.36333	4.00000e+00	
			         2.36500	5.00000e+00	
			         2.36667	6.00000e+00	
			         2.36833	7.00000e+00	
			         2.37000	8.00000e+00	
			         2.37167	9.00000e+00	
			         2.37333	1.00000e+01	
			         2.37500	1.20000e+01	
			         2.37667	1.30000e+01	
			         2.37833	1.40000e+01	
			         2.38000	1.50000e+01	
			         2.38167	1.60000e+01	
			         2.38333	1.70000e+01	
			         2.38500	1.80000e+01	
			         2.38667	1.90000e+01	
			         2.38833	2.00000e+01	
			         2.39000	2.10000e+01	
			         2.39167	2.20000e+01	
			         2.39333	2.30000e+01	
			         2.39500	2.40000e+01	
			         2.39667	2.50000e+01	
			         2.39833	2.60000e+01	
			         2.40000	2.70000e+01	
			         2.40167	2.80000e+01	
			         2.40333	3.00000e+01	
			         2.40500	3.10000e+01	
			         2.40667	3.20000e+01	
			         2.40833	3.40000e+01	
			         2.41000	3.50000e+01	
			         2.41167	3.60000e+01	
			         2.41333	3.70000e+01	
			         2.41500	3.90000e+01	
			         2.41667	4.00000e+01	
			         2.41833	4.10000e+01	
			         2.42000	4.20000e+01	
			         2.42167	4.30000e+01	
			         2.42333	4.40000e+01	
			         2.42500	4.40000e+01	
			         2.42667	4.50000e+01	
			         2.42833	4.50000e+01	
			         2.43000	4.60000e+01	
			         2.43167	4.60000e+01	
			         2.43333	4.60000e+01	
			         2.43500	4.60000e+01	
			         2.43667	4.60000e+01	
			         2.43833	4.50000e+01	
			         2.44000	4.50000e+01	
			         2.44167	4.50000e+01	
			         2.44333	4.40000e+01	
			         2.44500	4.40000e+01	
			         2.44667	4.30000e+01	
			         2.44833	4.30000e+01	
			         2.45000	4.20000e+01	
			         2.45167	4.10000e+01	
			         2.45333	4.00000e+01	
			         2.45500	3.90000e+01	
			         2.45667	3.80000e+01	
			         2.45833	3.70000e+01	
			         2.46000	3.50000e+01	
			         2.46167	3.40000e+01	
			         2.46333	3.20000e+01	
			         2.46500	3.00000e+01	
			         2.46667	2.80000e+01	
			         2.46833	2.50000e+01	
			         2.47000	2.30000e+01	
			         2.47167	2.00000e+01	
			         2.47333	1.70000e+01	
			         2.47500	1.40000e+01	
			         2.47667	1.10000e+01	
			         2.47833	8.00000e+00	
			         2.48000	5.00000e+00	
			         2.48167	2.00000e+00	
			         2.48333	-1.00000e+00	
			         2.48500	-4.00000e+00	
			         2.48667	-7.00000e+00	
			         2.48833	-1.00000e+01	
			         2.49000	-1.30000e+01	
			         2.49167	-1.60000e+01	
			         2.49333	-1.80000e+01	
			         2.49500	-2.10000e+01	
			         2.49667	-2.30000e+01	
			         2.49833	-2.50000e+01	
			         2.50000	-2.70000e+01	
			         2.50167	-2.80000e+01	
			         2.50333	-3.00000e+01	
			         2.50500	-3.10000e+01	
			         2.50667	-3.20000e+01	
			         2.50833	-3.40000e+01	
			         2.51000	-3.50000e+01	
			         2.51167	-3.60000e+01	
			         2.51333	-3.70000e+01	
			         2.51500	-3.80000e+01	
			         2.51667	-3.90000e+01	
			         2.51833	-4.00000e+01	
			         2.52000	-4.10000e+01	
			         2.52167	-4.20000e+01	
			         2.52333	-4.30000e+01	
			         2.52500	-4.30000e+01	
			         2.52667	-4.40000e+01	
			         2.52833	-4.50000e+01	
			         2.53000	-4.50000e+01	
			         2.53167	-4.50000e+01	
			         2.53333	-4.50000e+01	
			         2.53500	-4.50000e+01	
			         2.53667	-4.50000e+01	
			         2.53833	-4.40000e+01	
			         2.54000	-4.40000e+01	
			         2.54167	-4.30000e+01	
			         2.54333	-4.20000e+01	
			         2.54500	-4.10000e+01	
			         2.54667	-4.10000e+01	
			         2.54833	-4.00000e+01	
			         2.55000	-3.90000e+01	
			         2.55167	-3.90000e+01	
			         2.55333	-3.80000e+01	
			         2.55500	-3.80000e+01	
			         2.55667	-3.70000e+01	
			         2.55833	-3.70000e+01	
			         2.56000	-3.60000e+01	
			         2.56167	-3.60000e+01	
			         2.56333	-3.60000e+01	
			         2.56500	-3.50000e+01	
			         2.56667	-3.40000e+01	
			         2.56833	-3.30000e+01	
			         2.57000	-3.20000e+01	
			         2.57167	-3.10000e+01	
			         2.57333	-3.00000e+01	
			         2.57500	-2.90000e+01	
			         2.57667	-2.80000e+01	
			         2.57833	-2.60000e+01	
			         2.58000	-2.50000e+01	
			         2.58167	-2.40000e+01	
			         2.58333	-2.30000e+01	
			         2.58500	-2.20000e+01	
			         2.58667	-2.20000e+01	
			         2.58833	-2.10000e+01	
			         2.59000	-2.00000e+01	
			         2.59167	-2.00000e+01	
			         2.59333	-2.00000e+01	
			         2.59500	-1.90000e+01	
			         2.59667	-1.90000e+01	
			         2.59833	-1.90000e+01	
			         2.60000	-1.90000e+01	
			         2.60167	-1.80000e+01	
			         2.60333	-1.80000e+01	
			         2.60500	-1.80000e+01	
			         2.60667	-1.80000e+01	
			         2.60833	-1.80000e+01	
			         2.61000	-1.80000e+01	
			         2.61167	-1.70000e+01	
			         2.61333	-1.70000e+01	
			         2.61500	-1.60000e+01	
			         2.61667	-1.60000e+01	
			         2.61833	-1.50000e+01	
			         2.62000	-1.50000e+01	
			         2.62167	-1.40000e+01	
			         2.62333	-1.30000e+01	
			         2.62500	-1.30000e+01	
			         2.62667	-1.20000e+01	
			         2.62833	-1.10000e+01	
			         2.63000	-1.10000e+01	
			         2.63167	-1.00000e+01	
			         2.63333	-1.00000e+01	
			         2.63500	-9.00000e+00	
			         2.63667	-9.00000e+00	
			         2.63833	-9.00000e+00	
			         2.64000	-8.00000e+00	
			         2.64167	-8.00000e+00	
			         2.64333	-8.00000e+00	
			         2.64500	-8.00000e+00	
			         2.64667	-8.00000e+00	
			         2.64833	-8.00000e+00	
			         2.65000	-8.00000e+00	
			         2.65167	-9.00000e+00	
			         2.65333	-9.00000e+00	
			         2.65500	-9.00000e+00	
			         2.65667	-9.00000e+00	
			         2.65833	-9.00000e+00	
			         2.66000	-9.00000e+00	
			         2.66167	-9.00000e+00	
			         2.66333	-8.00000e+00	
			         2.66500	-8.00000e+00	
			         2.66667	-7.00000e+00	
			         2.66833	-7.00000e+00	
			         2.67000	-6.00000e+00	
			         2.67167	-6.00000e+00	
			         2.67333	-6.00000e+00	
			         2.67500	-5.00000e+00	
			         2.67667	-5.00000e+00	
			         2.67833	-5.00000e+00	
			         2.68000	-5.00000e+00	
			         2.68167	-5.00000e+00	
			         2.68333	-6.00000e+00	
			         2.68500	-6.00000e+00	
			         2.68667	-6.00000e+00	
			         2.68833	-7.00000e+00	
			         2.69000	-7.00000e+00	
			         2.69167	-7.00000e+00	
			         2.69333	-7.00000e+00	
			         2.69500	-7.00000e+00	
			         2.69667	-7.00000e+00	
			         2.69833	-7.00000e+00	
			         2.70000	-7.00000e+00	
			         2.70167	-7.00000e+00	
			         2.70333	-6.00000e+00	
			         2.70500	-6.00000e+00	
			         2.70667	-6.00000e+00	
			         2.70833	-5.00000e+00	
			         2.71000	-5.00000e+00	
			         2.71167	-5.00000e+00	
			         2.71333	-4.00000e+00	
			         2.71500	-4.00000e+00	
			         2.71667	-4.00000e+00	
			         2.71833	-3.00000e+00	
			         2.72000	-3.00000e+00	
			         2.72167	-2.00000e+00	
			         2.72333	-2.00000e+00	
			         2.72500	-2.00000e+00	
			         2.72667	-2.00000e+00	
			         2.72833	-2.00000e+00	
			         2.73000	-2.00000e+00	
			         2.73167	-2.00000e+00	
			         2.73333	-2.00000e+00	
			         2.73500	-2.00000e+00	
			         2.73667	-2.00000e+00	
			         2.73833	-3.00000e+00	
			         2.74000	-3.00000e+00	
			         2.74167	-3.00000e+00	
			         2.74333	-3.00000e+00	
			         2.74500	-3.00000e+00	
			         2.74667	-3.00000e+00	
			         2.74833	-3.00000e+00	
			         2.75000	-3.00000e+00	
			         2.75167	-3.00000e+00	
			         2.75333	-4.00000e+00	
			         2.75500	-4.00000e+00	
			         2.75667	-4.00000e+00	
			         2.75833	-4.00000e+00	
			         2.76000	-4.00000e+00	
			         2.76167	-4.00000e+00	
			         2.76333	-4.00000e+00	
			         2.76500	-4.00000e+00	
			         2.76667	-4.00000e+00	
			         2.76833	-4.00000e+00	
			         2.77000	-3.00000e+00	
			         2.77167	-3.00000e+00	
			         2.77333	-3.00000e+00	
			         2.77500	-3.00000e+00	
			         2.77667	-2.00000e+00	
			         2.77833	-2.00000e+00	
			         2.78000	-2.00000e+00	
			         2.78167	-1.00000e+00	
			         2.78333	-1.00000e+00	
			         2.78500	-1.00000e+00	
			         2.78667	-1.00000e+00	
			         2.78833	-2.00000e+00	
			         2.79000	-2.00000e+00	
			         2.79167	-2.00000e+00	
			         2.79333	-2.00000e+00	
			         2.79500	-2.00000e+00	
			         2.79667	-2.00000e+00	
			         2.79833	-2.00000e+00	
			         2.80000	-2.00000e+00	
			         2.80167	-2.00000e+00	
			         2.80333	-1.00000e+00	
			         2.80500	-1.00000e+00	
			         2.80667	-1.00000e+00	
			         2.80833	-2.00000e+00	
			         2.81000	-2.00000e+00	
			         2.81167	-2.00000e+00	
			         2.81333	-2.00000e+00	
			         2.81500	-3.00000e+00	
			         2.81667	-4.00000e+00	
			         2.81833	-4.00000e+00	
			         2.82000	-5.00000e+00	
			         2.82167	-5.00000e+00	
			         2.82333	-5.00000e+00	
			         2.82500	-6.00000e+00	
			         2.82667	-6.00000e+00	
			         2.82833	-5.00000e+00	
			         2.83000	-5.00000e+00	
			         2.83167	-5.00000e+00	
			         2.83333	-4.00000e+00	
			         2.83500	-4.00000e+00	
			         2.83667	-3.00000e+00	
			         2.83833	-3.00000e+00	
			         2.84000	-2.00000e+00	
			         2.84167	-2.00000e+00	
			         2.84333	-1.00000e+00	
			         2.84500	-1.00000e+00	
			         2.84667	-1.00000e+00	
			         2.84833	-1.00000e+00	
			         2.85000	-1.00000e+00	
			         2.85167	-1.00000e+00	
			         2.85333	-1.00000e+00	
			         2.85500	-1.00000e+00	
			         2.85667	-1.00000e+00	
			         2.85833	-1.00000e+00	
			         2.86000	-1.00000e+00	
			         2.86167	-1.00000e+00	
			         2.86333	-1.00000e+00	
			         2.86500	-1.00000e+00	
			         2.86667	-1.00000e+00	
			         2.86833	-1.00000e+00	
			         2.87000	-1.00000e+00	
			         2.87167	-1.00000e+00	
			         2.87333	-1.00000e+00	
			         2.87500	-1.00000e+00	
			         2.87667	-1.00000e+00	
			         2.87833	-1.00000e+00	
			         2.88000	-1.00000e+00	
			         2.88167	-1.00000e+00	
			         2.88333	-1.00000e+00	
			         2.88500	-1.00000e+00	
			         2.88667	-1.00000e+00	
			         2.88833	-1.00000e+00	
			         2.89000	-1.00000e+00	
			         2.89167	-1.00000e+00	
			         2.89333	-1.00000e+00	
			         2.89500	-1.00000e+00	
			         2.89667	-1.00000e+00	
			         2.89833	-1.00000e+00	
			         2.90000	-1.00000e+00	
			         2.90167	-1.00000e+00	
			         2.90333	-1.00000e+00	
			         2.90500	-1.00000e+00	
			         2.90667	-1.00000e+00	
			         2.90833	-2.00000e+00	
			         2.91000	-2.00000e+00	
			         2.91167	-2.00000e+00	
			         2.91333	-2.00000e+00	
			         2.91500	-2.00000e+00	
			         2.91667	-2.00000e+00	
			         2.91833	-2.00000e+00	
			         2.92000	-2.00000e+00	
			         2.92167	-2.00000e+00	
			         2.92333	-1.00000e+00	
			         2.92500	-1.00000e+00	
			         2.92667	0.00000e+00	
			         2.92833	0.00000e+00	
			         2.93000	1.00000e+00	
			         2.93167	1.00000e+00	
			         2.93333	2.00000e+00	
			         2.93500	2.00000e+00	
			         2.93667	3.00000e+00	
			         2.93833	3.00000e+00	
			         2.94000	3.00000e+00	
			         2.94167	3.00000e+00	
			         2.94333	3.00000e+00	
			         2.94500	3.00000e+00	
			         2.94667	2.00000e+00	
			         2.94833	2.00000e+00	
			         2.95000	2.00000e+00	
			         2.95167	2.00000e+00	
			         2.95333	2.00000e+00	
			         2.95500	2.00000e+00	
			         2.95667	2.00000e+00	
			         2.95833	2.00000e+00	
			         2.96000	2.00000e+00	
			         2.96167	2.00000e+00	
			         2.96333	2.00000e+00	
			         2.96500	2.00000e+00	
			         2.96667	2.00000e+00	
			         2.96833	2.00000e+00	
			         2.97000	2.00000e+00	
			         2.97167	1.00000e+00	
			         2.97333	1.00000e+00	
			         2.97500	1.00000e+00	
			         2.97667	1.00000e+00	
			         2.97833	0.00000e+00	
			         2.98000	0.00000e+00	
			         2.98167	0.00000e+00	
			         2.98333	0.00000e+00	
			         2.98500	0.00000e+00	
			         2.98667	0.00000e+00	
			         2.98833	0.00000e+00	
			         2.99000	0.00000e+00	
			         2.99167	0.00000e+00	
			         2.99333	0.00000e+00	
			         2.99500	0.00000e+00	
			         2.99667	0.00000e+00	
			         2.99833	1.00000e+00	
			         3.00000	1.00000e+00	
			         3.00167	1.00000e+00	
			         3.00333	1.00000e+00	
			         3.00500	1.00000e+00	
			         3.00667	1.00000e+00	
			         3.00833	1.00000e+00	
			         3.01000	1.00000e+00	
			         3.01167	1.00000e+00	
			         3.01333	1.00000e+00	
			         3.01500	1.00000e+00	
			         3.01667	1.00000e+00	
			         3.01833	1.00000e+00	
			         3.02000	1.00000e+00	
			         3.02167	1.00000e+00	
			         3.02333	1.00000e+00	
			         3.02500	1.00000e+00	
			         3.02667	1.00000e+00	
			         3.02833	1.00000e+00	
			         3.03000	0.00000e+00	
			         3.03167	0.00000e+00	
			         3.03333	0.00000e+00	
			         3.03500	0.00000e+00	
			         3.03667	0.00000e+00	
			         3.03833	0.00000e+00	
			         3.04000	0.00000e+00	
			         3.04167	0.00000e+00	
			         3.04333	0.00000e+00	
			         3.04500	0.00000e+00	
			         3.04667	0.00000e+00	
			         3.04833	0.00000e+00	
			         3.05000	0.00000e+00	
			         3.05167	0.00000e+00	
			         3.05333	0.00000e+00	
			         3.05500	0.00000e+00	
			         3.05667	0.00000e+00	
			         3.05833	0.00000e+00	
			         3.06000	0.00000e+00	
			         3.06167	0.00000e+00	
			         3.06333	0.00000e+00	
			         3.06500	0.00000e+00	
			         3.06667	0.00000e+00	
			         3.06833	0.00000e+00	
			         3.07000	0.00000e+00	
			         3.07167	-1.00000e+00	
			         3.07333	-1.00000e+00	
			         3.07500	-1.00000e+00	
			         3.07667	-2.00000e+00	
			         3.07833	-2.00000e+00	
			         3.08000	-2.00000e+00	
			         3.08167	-2.00000e+00	
			         3.08333	-2.00000e+00	
			         3.08500	-2.00000e+00	
			         3.08667	-2.00000e+00	
			         3.08833	-1.00000e+00	
			         3.09000	-1.00000e+00	
			         3.09167	0.00000e+00	
			         3.09333	0.00000e+00	
			         3.09500	1.00000e+00	
			         3.09667	1.00000e+00	
			         3.09833	2.00000e+00	
			         3.10000	2.00000e+00	
			         3.10167	2.00000e+00	
			         3.10333	2.00000e+00	
			         3.10500	2.00000e+00	
			         3.10667	2.00000e+00	
			         3.10833	1.00000e+00	
			         3.11000	1.00000e+00	
			         3.11167	0.00000e+00	
			         3.11333	-1.00000e+00	
			         3.11500	-1.00000e+00	
			         3.11667	-2.00000e+00	
			         3.11833	-2.00000e+00	
			         3.12000	-2.00000e+00	
			         3.12167	-2.00000e+00	
			         3.12333	-2.00000e+00	
			         3.12500	-2.00000e+00	
			         3.12667	-1.00000e+00	
			         3.12833	-1.00000e+00	
			         3.13000	0.00000e+00	
			         3.13167	1.00000e+00	
			         3.13333	2.00000e+00	
			         3.13500	3.00000e+00	
			         3.13667	4.00000e+00	
			         3.13833	4.00000e+00	
			         3.14000	5.00000e+00	
			         3.14167	5.00000e+00	
			         3.14333	6.00000e+00	
			         3.14500	6.00000e+00	
			         3.14667	7.00000e+00	
			         3.14833	7.00000e+00	
			         3.15000	8.00000e+00	
			         3.15167	9.00000e+00	
			         3.15333	9.00000e+00	
			         3.15500	1.00000e+01	
			         3.15667	1.10000e+01	
			         3.15833	1.20000e+01	
			         3.16000	1.30000e+01	
			         3.16167	1.40000e+01	
			         3.16333	1.50000e+01	
			         3.16500	1.60000e+01	
			         3.16667	1.70000e+01	
			         3.16833	1.80000e+01	
			         3.17000	1.80000e+01	
			         3.17167	1.80000e+01	
			         3.17333	1.80000e+01	
			         3.17500	1.70000e+01	
			         3.17667	1.60000e+01	
			         3.17833	1.50000e+01	
			         3.18000	1.40000e+01	
			         3.18167	1.30000e+01	
			         3.18333	1.10000e+01	
			         3.18500	1.00000e+01	
			         3.18667	8.00000e+00	
			         3.18833	7.00000e+00	
			         3.19000	6.00000e+00	
			         3.19167	5.00000e+00	
			         3.19333	4.00000e+00	
			         3.19500	3.00000e+00	
			         3.19667	2.00000e+00	
			         3.19833	2.00000e+00	
			         3.20000	1.00000e+00	
			         3.20167	0.00000e+00	
			         3.20333	0.00000e+00	
			         3.20500	-1.00000e+00	
			         3.20667	-1.00000e+00	
			         3.20833	-1.00000e+00	
			         3.21000	-1.00000e+00	
			         3.21167	-2.00000e+00	
			         3.21333	-2.00000e+00	
			         3.21500	-2.00000e+00	
			         3.21667	-2.00000e+00	
			         3.21833	-3.00000e+00	
			         3.22000	-3.00000e+00	
			         3.22167	-3.00000e+00	
			         3.22333	-4.00000e+00	
			         3.22500	-4.00000e+00	
			         3.22667	-4.00000e+00	
			         3.22833	-4.00000e+00	
			         3.23000	-5.00000e+00	
			         3.23167	-5.00000e+00	
			         3.23333	-5.00000e+00	
			         3.23500	-5.00000e+00	
			         3.23667	-5.00000e+00	
			         3.23833	-5.00000e+00	
			         3.24000	-4.00000e+00	
			         3.24167	-4.00000e+00	
			         3.24333	-4.00000e+00	
			         3.24500	-3.00000e+00	
			         3.24667	-3.00000e+00	
			         3.24833	-3.00000e+00	
			         3.25000	-3.00000e+00	
			         3.25167	-4.00000e+00	
			         3.25333	-5.00000e+00	
			         3.25500	-6.00000e+00	
			         3.25667	-7.00000e+00	
			         3.25833	-9.00000e+00	
			         3.26000	-1.10000e+01	
			         3.26167	-1.30000e+01	
			         3.26333	-1.50000e+01	
			         3.26500	-1.70000e+01	
			         3.26667	-1.80000e+01	
			         3.26833	-1.90000e+01	
			         3.27000	-1.90000e+01	
			         3.27167	-1.80000e+01	
			         3.27333	-1.50000e+01	
			         3.27500	-1.00000e+01	
			         3.27667	-2.00000e+00	
			         3.27833	9.00000e+00	
			         3.28000	2.30000e+01	
			         3.28167	4.10000e+01	
			         3.28333	6.20000e+01	
			         3.28500	8.70000e+01	
			         3.28667	1.16000e+02	
			         3.28833	1.47000e+02	
			         3.29000	1.81000e+02	
			         3.29167	2.17000e+02	
			         3.29333	2.53000e+02	
			         3.29500	2.87000e+02	
			         3.29667	3.20000e+02	
			         3.29833	3.50000e+02	
			         3.30000	3.74000e+02	
			         3.30167	3.93000e+02	
			         3.30333	4.04000e+02	
			         3.30500	4.09000e+02	
			         3.30667	4.05000e+02	
			         3.30833	3.94000e+02	
			         3.31000	3.76000e+02	
			         3.31167	3.51000e+02	
			         3.31333	3.21000e+02	
			         3.31500	2.88000e+02	
			         3.31667	2.51000e+02	
			         3.31833	2.13000e+02	
			         3.32000	1.75000e+02	
			         3.32167	1.38000e+02	
			         3.32333	1.03000e+02	
			         3.32500	7.00000e+01	
			         3.32667	4.10000e+01	
			         3.32833	1.50000e+01	
			         3.33000	-7.00000e+00	
			         3.33167	-2.70000e+01	
			         3.33333	-4.30000e+01	
			         3.33500	-5.60000e+01	
			         3.33667	-6.70000e+01	
			         3.33833	-7.60000e+01	
			         3.34000	-8.30000e+01	
			         3.34167	-8.90000e+01	
			         3.34333	-9.40000e+01	
			         3.34500	-9.70000e+01	
			         3.34667	-1.00000e+02	
			         3.34833	-1.01000e+02	
			         3.35000	-1.02000e+02	
			         3.35167	-1.03000e+02	
			         3.35333	-1.03000e+02	
			         3.35500	-1.02000e+02	
			         3.35667	-1.02000e+02	
			         3.35833	-1.01000e+02	
			         3.36000	-9.90000e+01	
			         3.36167	-9.80000e+01	
			         3.36333	-9.70000e+01	
			         3.36500	-9.50000e+01	
			         3.36667	-9.30000e+01	
			         3.36833	-9.10000e+01	
			         3.37000	-8.90000e+01	
			         3.37167	-8.70000e+01	
			         3.37333	-8.50000e+01	
			         3.37500	-8.40000e+01	
			         3.37667	-8.20000e+01	
			         3.37833	-8.00000e+01	
			         3.38000	-7.80000e+01	
			         3.38167	-7.60000e+01	
			         3.38333	-7.40000e+01	
			         3.38500	-7.20000e+01	
			         3.38667	-7.00000e+01	
			         3.38833	-6.90000e+01	
			         3.39000	-6.70000e+01	
			         3.39167	-6.60000e+01	
			         3.39333	-6.40000e+01	
			         3.39500	-6.30000e+01	
			         3.39667	-6.10000e+01	
			         3.39833	-6.00000e+01	
			         3.40000	-5.80000e+01	
			         3.40167	-5.70000e+01	
			         3.40333	-5.50000e+01	
			         3.40500	-5.30000e+01	
			         3.40667	-5.20000e+01	
			         3.40833	-5.10000e+01	
			         3.41000	-4.90000e+01	
			         3.41167	-4.80000e+01	
			         3.41333	-4.70000e+01	
			         3.41500	-4.50000e+01	
			         3.41667	-4.40000e+01	
			         3.41833	-4.30000e+01	
			         3.42000	-4.20000e+01	
			         3.42167	-4.10000e+01	
			         3.42333	-3.90000e+01	
			         3.42500	-3.80000e+01	
			         3.42667	-3.70000e+01	
			         3.42833	-3.60000e+01	
			         3.43000	-3.50000e+01	
			         3.43167	-3.40000e+01	
			         3.43333	-3.30000e+01	
			         3.43500	-3.20000e+01	
			         3.43667	-3.10000e+01	
			         3.43833	-3.00000e+01	
			         3.44000	-3.00000e+01	
			         3.44167	-2.90000e+01	
			         3.44333	-2.80000e+01	
			         3.44500	-2.70000e+01	
			         3.44667	-2.60000e+01	
			         3.44833	-2.50000e+01	
			         3.45000	-2.40000e+01	
			         3.45167	-2.40000e+01	
			         3.45333	-2.30000e+01	
			         3.45500	-2.20000e+01	
			         3.45667	-2.10000e+01	
			         3.45833	-2.00000e+01	
			         3.46000	-1.90000e+01	
			         3.46167	-1.80000e+01	
			         3.46333	-1.70000e+01	
			         3.46500	-1.60000e+01	
			         3.46667	-1.60000e+01	
			         3.46833	-1.50000e+01	
			         3.47000	-1.40000e+01	
			         3.47167	-1.40000e+01	
			         3.47333	-1.30000e+01	
			         3.47500	-1.20000e+01	
			         3.47667	-1.20000e+01	
			         3.47833	-1.10000e+01	
			         3.48000	-1.00000e+01	
			         3.48167	-1.00000e+01	
			         3.48333	-9.00000e+00	
			         3.48500	-8.00000e+00	
			         3.48667	-7.00000e+00	
			         3.48833	-6.00000e+00	
			         3.49000	-5.00000e+00	
			         3.49167	-4.00000e+00	
			         3.49333	-3.00000e+00	
			         3.49500	-2.00000e+00	
			         3.49667	-1.00000e+00	
			         3.49833	0.00000e+00	
			         3.50000	1.00000e+00	
			         3.50167	2.00000e+00	
			         3.50333	3.00000e+00	
			         3.50500	4.00000e+00	
			         3.50667	5.00000e+00	
			         3.50833	6.00000e+00	
			         3.51000	7.00000e+00	
			         3.51167	8.00000e+00	
			         3.51333	9.00000e+00	
			         3.51500	1.00000e+01	
			         3.51667	1.10000e+01	
			         3.51833	1.30000e+01	
			         3.52000	1.40000e+01	
			         3.52167	1.50000e+01	
			         3.52333	1.70000e+01	
			         3.52500	1.80000e+01	
			         3.52667	1.90000e+01	
			         3.52833	2.00000e+01	
			         3.53000	2.10000e+01	
			         3.53167	2.20000e+01	
			         3.53333	2.30000e+01	
			         3.53500	2.50000e+01	
			         3.53667	2.60000e+01	
			         3.53833	2.70000e+01	
			         3.54000	2.80000e+01	
			         3.54167	2.90000e+01	
			         3.54333	3.00000e+01	
			         3.54500	3.10000e+01	
			         3.54667	3.20000e+01	
			         3.54833	3.30000e+01	
			         3.55000	3.40000e+01	
			         3.55167	3.50000e+01	
			         3.55333	3.60000e+01	
			         3.55500	3.70000e+01	
			         3.55667	3.80000e+01	
			         3.55833	3.90000e+01	
			         3.56000	4.00000e+01	
			         3.56167	4.00000e+01	
			         3.56333	4.10000e+01	
			         3.56500	4.10000e+01	
			         3.56667	4.20000e+01	
			         3.56833	4.20000e+01	
			         3.57000	4.20000e+01	
			         3.57167	4.20000e+01	
			         3.57333	4.20000e+01	
			         3.57500	4.20000e+01	
			         3.57667	4.20000e+01	
			         3.57833	4.20000e+01	
			         3.58000	4.20000e+01	
			         3.58167	4.20000e+01	
			         3.58333	4.20000e+01	
			         3.58500	4.20000e+01	
			         3.58667	4.20000e+01	
			         3.58833	4.10000e+01	
			         3.59000	4.10000e+01	
			         3.59167	4.00000e+01	
			         3.59333	4.00000e+01	
			         3.59500	3.90000e+01	
			         3.59667	3.80000e+01	
			         3.59833	3.60000e+01	
			         3.60000	3.50000e+01	
			         3.60167	3.30000e+01	
			         3.60333	3.10000e+01	
			         3.60500	2.90000e+01	
			         3.60667	2.70000e+01	
			         3.60833	2.50000e+01	
			         3.61000	2.20000e+01	
			         3.61167	1.90000e+01	
			         3.61333	1.70000e+01	
			         3.61500	1.40000e+01	
			         3.61667	1.10000e+01	
			         3.61833	8.00000e+00	
			         3.62000	5.00000e+00	
			         3.62167	1.00000e+00	
			         3.62333	-2.00000e+00	
			         3.62500	-5.00000e+00	
			         3.62667	-8.00000e+00	
			         3.62833	-1.10000e+01	
			         3.63000	-1.40000e+01	
			         3.63167	-1.70000e+01	
			         3.63333	-2.00000e+01	
			         3.63500	-2.20000e+01	
			         3.63667	-2.50000e+01	
			         3.63833	-2.80000e+01	
			         3.64000	-3.00000e+01	
			         3.64167	-3.30000e+01	
			         3.64333	-3.50000e+01	
			         3.64500	-3.70000e+01	
			         3.64667	-3.90000e+01	
			         3.64833	-4.10000e+01	
			         3.65000	-4.30000e+01	
			         3.65167	-4.40000e+01	
			         3.65333	-4.50000e+01	
			         3.65500	-4.60000e+01	
			         3.65667	-4.70000e+01	
			         3.65833	-4.70000e+01	
			         3.66000	-4.80000e+01	
			         3.66167	-4.70000e+01	
			         3.66333	-4.70000e+01	
			         3.66500	-4.70000e+01	
			         3.66667	-4.60000e+01	
			         3.66833	-4.60000e+01	
			         3.67000	-4.50000e+01	
			         3.67167	-4.40000e+01	
			         3.67333	-4.40000e+01	
			         3.67500	-4.30000e+01	
			         3.67667	-4.30000e+01	
			         3.67833	-4.20000e+01	
			         3.68000	-4.20000e+01	
			         3.68167	-4.10000e+01	
			         3.68333	-4.10000e+01	
			         3.68500	-4.00000e+01	
			         3.68667	-4.00000e+01	
			         3.68833	-3.90000e+01	
			         3.69000	-3.90000e+01	
			         3.69167	-3.80000e+01	
			         3.69333	-3.70000e+01	
			         3.69500	-3.60000e+01	
			         3.69667	-3.60000e+01	
			         3.69833	-3.50000e+01	
			         3.70000	-3.40000e+01	
			         3.70167	-3.40000e+01	
			         3.70333	-3.30000e+01	
			         3.70500	-3.20000e+01	
			         3.70667	-3.20000e+01	
			         3.70833	-3.10000e+01	
			         3.71000	-3.10000e+01	
			         3.71167	-3.00000e+01	
			         3.71333	-3.00000e+01	
			         3.71500	-2.90000e+01	
			         3.71667	-2.80000e+01	
			         3.71833	-2.80000e+01	
			         3.72000	-2.70000e+01	
			         3.72167	-2.60000e+01	
			         3.72333	-2.60000e+01	
			         3.72500	-2.50000e+01	
			         3.72667	-2.40000e+01	
			         3.72833	-2.30000e+01	
			         3.73000	-2.30000e+01	
			         3.73167	-2.20000e+01	
			         3.73333	-2.10000e+01	
			         3.73500	-2.10000e+01	
			         3.73667	-2.00000e+01	
			         3.73833	-2.00000e+01	
			         3.74000	-1.90000e+01	
			         3.74167	-1.90000e+01	
			         3.74333	-1.90000e+01	
			         3.74500	-1.90000e+01	
			         3.74667	-1.80000e+01	
			         3.74833	-1.80000e+01	
			         3.75000	-1.80000e+01	
			         3.75167	-1.80000e+01	
			         3.75333	-1.70000e+01	
			         3.75500	-1.70000e+01	
			         3.75667	-1.60000e+01	
			         3.75833	-1.60000e+01	
			         3.76000	-1.50000e+01	
			         3.76167	-1.40000e+01	
			         3.76333	-1.30000e+01	
			         3.76500	-1.30000e+01	
			         3.76667	-1.20000e+01	
			         3.76833	-1.10000e+01	
			         3.77000	-1.10000e+01	
			         3.77167	-1.10000e+01	
			         3.77333	-1.00000e+01	
			         3.77500	-1.00000e+01	
			         3.77667	-1.00000e+01	
			         3.77833	-1.00000e+01	
			         3.78000	-1.00000e+01	
			         3.78167	-1.00000e+01	
			         3.78333	-1.00000e+01	
			         3.78500	-1.00000e+01	
			         3.78667	-1.00000e+01	
			         3.78833	-1.00000e+01	
			         3.79000	-1.00000e+01	
			         3.79167	-1.00000e+01	
			         3.79333	-9.00000e+00	
			         3.79500	-9.00000e+00	
			         3.79667	-9.00000e+00	
			         3.79833	-9.00000e+00	
			         3.80000	-9.00000e+00	
			         3.80167	-8.00000e+00	
			         3.80333	-8.00000e+00	
			         3.80500	-8.00000e+00	
			         3.80667	-8.00000e+00	
			         3.80833	-8.00000e+00	
			         3.81000	-8.00000e+00	
			         3.81167	-7.00000e+00	
			         3.81333	-7.00000e+00	
			         3.81500	-7.00000e+00	
			         3.81667	-7.00000e+00	
			         3.81833	-7.00000e+00	
			         3.82000	-7.00000e+00	
			         3.82167	-7.00000e+00	
			         3.82333	-6.00000e+00	
			         3.82500	-6.00000e+00	
			         3.82667	-6.00000e+00	
			         3.82833	-6.00000e+00	
			         3.83000	-6.00000e+00	
			         3.83167	-6.00000e+00	
			         3.83333	-6.00000e+00	
			         3.83500	-5.00000e+00	
			         3.83667	-5.00000e+00	
			         3.83833	-5.00000e+00	
			         3.84000	-5.00000e+00	
			         3.84167	-5.00000e+00	
			         3.84333	-5.00000e+00	
			         3.84500	-5.00000e+00	
			         3.84667	-5.00000e+00	
			         3.84833	-5.00000e+00	
			         3.85000	-5.00000e+00	
			         3.85167	-5.00000e+00	
			         3.85333	-5.00000e+00	
			         3.85500	-5.00000e+00	
			         3.85667	-5.00000e+00	
			         3.85833	-5.00000e+00	
			         3.86000	-5.00000e+00	
			         3.86167	-5.00000e+00	
			         3.86333	-5.00000e+00	
			         3.86500	-5.00000e+00	
			         3.86667	-5.00000e+00	
			         3.86833	-5.00000e+00	
			         3.87000	-5.00000e+00	
			         3.87167	-5.00000e+00	
			         3.87333	-5.00000e+00	
			         3.87500	-5.00000e+00	
			         3.87667	-5.00000e+00	
			         3.87833	-5.00000e+00	
			         3.88000	-5.00000e+00	
			         3.88167	-5.00000e+00	
			         3.88333	-5.00000e+00	
			         3.88500	-4.00000e+00	
			         3.88667	-4.00000e+00	
			         3.88833	-4.00000e+00	
			         3.89000	-4.00000e+00	
			         3.89167	-4.00000e+00	
			         3.89333	-3.00000e+00	
			         3.89500	-3.00000e+00	
			         3.89667	-3.00000e+00	
			         3.89833	-3.00000e+00	
			         3.90000	-3.00000e+00	
			         3.90167	-2.00000e+00	
			         3.90333	-2.00000e+00	
			         3.90500	-2.00000e+00	
			         3.90667	-2.00000e+00	
			         3.90833	-2.00000e+00	
			         3.91000	-2.00000e+00	
			         3.91167	-2.00000e+00	
			         3.91333	-2.00000e+00	
			         3.91500	-3.00000e+00	
			         3.91667	-3.00000e+00	
			         3.91833	-3.00000e+00	
			         3.92000	-4.00000e+00	
			         3.92167	-4.00000e+00	
			         3.92333	-5.00000e+00	
			         3.92500	-5.00000e+00	
			         3.92667	-5.00000e+00	
			         3.92833	-6.00000e+00	
			         3.93000	-6.00000e+00	
			         3.93167	-6.00000e+00	
			         3.93333	-6.00000e+00	
			         3.93500	-6.00000e+00	
			         3.93667	-6.00000e+00	
			         3.93833	-6.00000e+00	
			         3.94000	-6.00000e+00	
			         3.94167	-5.00000e+00	
			         3.94333	-5.00000e+00	
			         3.94500	-4.00000e+00	
			         3.94667	-4.00000e+00	
			         3.94833	-3.00000e+00	
			         3.95000	-3.00000e+00	
			         3.95167	-3.00000e+00	
			         3.95333	-2.00000e+00	
			         3.95500	-2.00000e+00	
			         3.95667	-2.00000e+00	
			         3.95833	-2.00000e+00	
			         3.96000	-1.00000e+00	
			         3.96167	-1.00000e+00	
			         3.96333	-1.00000e+00	
			         3.96500	-1.00000e+00	
			         3.96667	-2.00000e+00	
			         3.96833	-2.00000e+00	
			         3.97000	-2.00000e+00	
			         3.97167	-2.00000e+00	
			         3.97333	-2.00000e+00	
			         3.97500	-2.00000e+00	
			         3.97667	-2.00000e+00	
			         3.97833	-3.00000e+00	
			         3.98000	-3.00000e+00	
			         3.98167	-3.00000e+00	
			         3.98333	-3.00000e+00	
			         3.98500	-3.00000e+00	
			         3.98667	-3.00000e+00	
			         3.98833	-3.00000e+00	
			         3.99000	-4.00000e+00	
			         3.99167	-4.00000e+00	
			         3.99333	-3.00000e+00	
			         3.99500	-3.00000e+00	
			         3.99667	-3.00000e+00	
			         3.99833	-3.00000e+00	
			         4.00000	-2.00000e+00	
			         4.00167	-2.00000e+00	
			         4.00333	-2.00000e+00	
			         4.00500	-2.00000e+00	
			         4.00667	-1.00000e+00	
			         4.00833	-1.00000e+00	
			         4.01000	-1.00000e+00	
			         4.01167	-1.00000e+00	
			         4.01333	-1.00000e+00	
			         4.01500	-1.00000e+00	
			         4.01667	-1.00000e+00	
			         4.01833	-1.00000e+00	
			         4.02000	-1.00000e+00	
			         4.02167	-1.00000e+00	
			         4.02333	-2.00000e+00	
			         4.02500	-2.00000e+00	
			         4.02667	-2.00000e+00	
			         4.02833	-2.00000e+00	
			         4.03000	-2.00000e+00	
			         4.03167	-1.00000e+00	
			         4.03333	-1.00000e+00	
			         4.03500	-1.00000e+00	
			         4.03667	0.00000e+00	
			         4.03833	0.00000e+00	
			         4.04000	1.00000e+00	
			         4.04167	1.00000e+00	
			         4.04333	2.00000e+00	
			         4.04500	2.00000e+00	
			         4.04667	3.00000e+00	
			         4.04833	3.00000e+00	
			         4.05000	3.00000e+00	
			         4.05167	3.00000e+00	
			         4.05333	2.00000e+00	
			         4.05500	2.00000e+00	
			         4.05667	2.00000e+00	
			         4.05833	1.00000e+00	
			         4.06000	1.00000e+00	
			         4.06167	0.00000e+00	
			         4.06333	0.00000e+00	
			         4.06500	0.00000e+00	
			         4.06667	0.00000e+00	
			         4.06833	0.00000e+00	
			         4.07000	0.00000e+00	
			         4.07167	0.00000e+00	
			         4.07333	0.00000e+00	
			         4.07500	1.00000e+00	
			         4.07667	1.00000e+00	
			         4.07833	1.00000e+00	
			         4.08000	2.00000e+00	
			         4.08167	2.00000e+00	
			         4.08333	2.00000e+00	
			         4.08500	2.00000e+00	
			         4.08667	2.00000e+00	
			         4.08833	3.00000e+00	
			         4.09000	2.00000e+00	
			         4.09167	2.00000e+00	
			         4.09333	2.00000e+00	
			         4.09500	2.00000e+00	
			         4.09667	2.00000e+00	
			         4.09833	2.00000e+00	
			         4.10000	2.00000e+00	
			         4.10167	2.00000e+00	
			         4.10333	2.00000e+00	
			         4.10500	2.00000e+00	
			         4.10667	2.00000e+00	
			         4.10833	2.00000e+00	
			         4.11000	2.00000e+00	
			         4.11167	2.00000e+00	
			         4.11333	2.00000e+00	
			         4.11500	2.00000e+00	
			         4.11667	2.00000e+00	
			         4.11833	2.00000e+00	
			         4.12000	2.00000e+00	
			         4.12167	2.00000e+00	
			         4.12333	2.00000e+00	
			         4.12500	2.00000e+00	
			         4.12667	3.00000e+00	
			         4.12833	3.00000e+00	
			         4.13000	3.00000e+00	
			         4.13167	3.00000e+00	
			         4.13333	3.00000e+00	
			         4.13500	3.00000e+00	
			         4.13667	3.00000e+00	
			         4.13833	3.00000e+00	
			         4.14000	2.00000e+00	
			         4.14167	2.00000e+00	
			         4.14333	2.00000e+00	
			         4.14500	1.00000e+00	
			         4.14667	1.00000e+00	
			         4.14833	1.00000e+00	
			         4.15000	1.00000e+00	
			         4.15167	1.00000e+00	
			         4.15333	0.00000e+00	
			         4.15500	0.00000e+00	
			         4.15667	1.00000e+00	
			         4.15833	1.00000e+00	
			         4.16000	1.00000e+00	
			         4.16167	1.00000e+00	
			         4.16333	1.00000e+00	
			         4.16500	1.00000e+00	
			         4.16667	1.00000e+00	
			         4.16833	1.00000e+00	
			         4.17000	1.00000e+00	
			         4.17167	1.00000e+00	
			         4.17333	1.00000e+00	
			         4.17500	1.00000e+00	
			         4.17667	1.00000e+00	
			         4.17833	1.00000e+00	
			         4.18000	1.00000e+00	
			         4.18167	0.00000e+00	
			         4.18333	0.00000e+00	
			         4.18500	-1.00000e+00	
			         4.18667	-1.00000e+00	
			         4.18833	-1.00000e+00	
			         4.19000	-2.00000e+00	
			         4.19167	-2.00000e+00	
			         4.19333	-2.00000e+00	
			         4.19500	-2.00000e+00	
			         4.19667	-2.00000e+00	
			         4.19833	-2.00000e+00	
			         4.20000	-1.00000e+00	
			         4.20167	-1.00000e+00	
			         4.20333	0.00000e+00	
			         4.20500	0.00000e+00	
			         4.20667	1.00000e+00	
			         4.20833	1.00000e+00	
			         4.21000	2.00000e+00	
			         4.21167	2.00000e+00	
			         4.21333	2.00000e+00	
			         4.21500	2.00000e+00	
			         4.21667	2.00000e+00	
			         4.21833	2.00000e+00	
			         4.22000	1.00000e+00	
			         4.22167	1.00000e+00	
			         4.22333	0.00000e+00	
			         4.22500	0.00000e+00	
			         4.22667	0.00000e+00	
			         4.22833	-1.00000e+00	
			         4.23000	-1.00000e+00	
			         4.23167	-2.00000e+00	
			         4.23333	-2.00000e+00	
			         4.23500	-3.00000e+00	
			         4.23667	-3.00000e+00	
			         4.23833	-3.00000e+00	
			         4.24000	-3.00000e+00	
			         4.24167	-3.00000e+00	
			         4.24333	-3.00000e+00	
			         4.24500	-3.00000e+00	
			         4.24667	-3.00000e+00	
			         4.24833	-3.00000e+00	
			         4.25000	-2.00000e+00	
			         4.25167	-2.00000e+00	
			         4.25333	-1.00000e+00	
			         4.25500	-1.00000e+00	
			         4.25667	-1.00000e+00	
			         4.25833	0.00000e+00	
			         4.26000	0.00000e+00	
			         4.26167	1.00000e+00	
			         4.26333	1.00000e+00	
			         4.26500	1.00000e+00	
			         4.26667	2.00000e+00	
			         4.26833	2.00000e+00	
			         4.27000	2.00000e+00	
			         4.27167	3.00000e+00	
			         4.27333	4.00000e+00	
			         4.27500	5.00000e+00	
			         4.27667	6.00000e+00	
			         4.27833	8.00000e+00	
			         4.28000	9.00000e+00	
			         4.28167	1.00000e+01	
			         4.28333	1.20000e+01	
			         4.28500	1.40000e+01	
			         4.28667	1.50000e+01	
			         4.28833	1.60000e+01	
			         4.29000	1.80000e+01	
			         4.29167	1.80000e+01	
			         4.29333	1.80000e+01	
			         4.29500	1.80000e+01	
			         4.29667	1.70000e+01	
			         4.29833	1.70000e+01	
			         4.30000	1.50000e+01	
			         4.30167	1.40000e+01	
			         4.30333	1.20000e+01	
			         4.30500	1.00000e+01	
			         4.30667	8.00000e+00	
			         4.30833	6.00000e+00	
			         4.31000	4.00000e+00	
			         4.31167	2.00000e+00	
			         4.31333	1.00000e+00	
			         4.31500	-1.00000e+00	
			         4.31667	-2.00000e+00	
			         4.31833	-3.00000e+00	
			         4.32000	-4.00000e+00	
			         4.32167	-4.00000e+00	
			         4.32333	-5.00000e+00	
			         4.32500	-5.00000e+00	
			         4.32667	-5.00000e+00	
			         4.32833	-5.00000e+00	
			         4.33000	-5.00000e+00	
			         4.33167	-5.00000e+00	
			         4.33333	-5.00000e+00	
			         4.33500	-5.00000e+00	
			         4.33667	-4.00000e+00	
			         4.33833	-4.00000e+00	
			         4.34000	-4.00000e+00	
			         4.34167	-4.00000e+00	
			         4.34333	-4.00000e+00	
			         4.34500	-3.00000e+00	
			         4.34667	-3.00000e+00	
			         4.34833	-3.00000e+00	
			         4.35000	-3.00000e+00	
			         4.35167	-3.00000e+00	
			         4.35333	-3.00000e+00	
			         4.35500	-3.00000e+00	
			         4.35667	-4.00000e+00	
			         4.35833	-4.00000e+00	
			         4.36000	-4.00000e+00	
			         4.36167	-4.00000e+00	
			         4.36333	-4.00000e+00	
			         4.36500	-5.00000e+00	
			         4.36667	-5.00000e+00	
			         4.36833	-6.00000e+00	
			         4.37000	-6.00000e+00	
			         4.37167	-7.00000e+00	
			         4.37333	-8.00000e+00	
			         4.37500	-9.00000e+00	
			         4.37667	-1.00000e+01	
			         4.37833	-1.20000e+01	
			         4.38000	-1.30000e+01	
			         4.38167	-1.50000e+01	
			         4.38333	-1.80000e+01	
			         4.38500	-2.00000e+01	
			         4.38667	-2.20000e+01	
			         4.38833	-2.30000e+01	
			         4.39000	-2.50000e+01	
			         4.39167	-2.50000e+01	
			         4.39333	-2.40000e+01	
			         4.39500	-2.20000e+01	
			         4.39667	-1.80000e+01	
			         4.39833	-1.20000e+01	
			         4.40000	-3.00000e+00	
			         4.40167	9.00000e+00	
			         4.40333	2.50000e+01	
			         4.40500	4.40000e+01	
			         4.40667	6.60000e+01	
			         4.40833	9.20000e+01	
			         4.41000	1.21000e+02	
			         4.41167	1.53000e+02	
			         4.41333	1.87000e+02	
			         4.41500	2.22000e+02	
			         4.41667	2.57000e+02	
			         4.41833	2.91000e+02	
			         4.42000	3.22000e+02	
			         4.42167	3.50000e+02	
			         4.42333	3.72000e+02	
			         4.42500	3.88000e+02	
			         4.42667	3.97000e+02	
			         4.42833	3.99000e+02	
			         4.43000	3.93000e+02	
			         4.43167	3.79000e+02	
			         4.43333	3.58000e+02	
			         4.43500	3.32000e+02	
			         4.43667	3.00000e+02	
			         4.43833	2.65000e+02	
			         4.44000	2.28000e+02	
			         4.44167	1.90000e+02	
			         4.44333	1.52000e+02	
			         4.44500	1.16000e+02	
			         4.44667	8.20000e+01	
			         4.44833	5.10000e+01	
			         4.45000	2.30000e+01	
			         4.45167	-1.00000e+00	
			         4.45333	-2.20000e+01	
			         4.45500	-3.90000e+01	
			         4.45667	-5.40000e+01	
			         4.45833	-6.50000e+01	
			         4.46000	-7.50000e+01	
			         4.46167	-8.20000e+01	
			         4.46333	-8.80000e+01	
			         4.46500	-9.30000e+01	
			         4.46667	-9.70000e+01	
			         4.46833	-9.90000e+01	
			         4.47000	-1.01000e+02	
			         4.47167	-1.03000e+02	
			         4.47333	-1.04000e+02	
			         4.47500	-1.04000e+02	
			         4.47667	-1.04000e+02	
			         4.47833	-1.03000e+02	
