Velocity (TVI), in cm/s

Time (s) :	Trace 1 : 		Ecg : 		
0.01731   	-1.20021e+00		         0.00000	-3.30000e+01	
0.02369   	-8.38984e-01		         0.00167	-3.10000e+01	
0.03007   	-4.04385e-01		         0.00333	-2.90000e+01	
0.03644   	4.77637e-01		         0.00500	-2.60000e+01	
0.04281   	1.53964e+00		         0.00667	-2.30000e+01	
0.04918   	2.70298e+00		         0.00833	-1.80000e+01	
0.05556   	3.63688e+00		         0.01000	-1.10000e+01	
0.06193   	3.87168e+00		         0.01167	-1.00000e+00	
0.06831   	2.80930e+00		         0.01333	1.30000e+01	
0.07468   	1.30624e+00		         0.01500	3.20000e+01	
0.08106   	8.43460e-02		         0.01667	5.70000e+01	
0.08743   	-3.58837e-01		         0.01833	9.00000e+01	
0.09381   	-1.02881e-01		         0.02000	1.29000e+02	
0.10018   	1.24825e+00		         0.02167	1.76000e+02	
0.10656   	2.92075e+00		         0.02333	2.31000e+02	
0.11293   	4.19047e+00		         0.02500	2.92000e+02	
0.11931   	4.73616e+00		         0.02667	3.58000e+02	
0.12568   	5.00316e+00		         0.02833	4.27000e+02	
0.13206   	5.20330e+00		         0.03000	4.98000e+02	
0.13843   	5.18585e+00		         0.03167	5.67000e+02	
0.14481   	5.06866e+00		         0.03333	6.31000e+02	
0.15118   	4.95180e+00		         0.03500	6.88000e+02	
0.15756   	4.89532e+00		         0.03667	7.34000e+02	
0.16394   	4.80648e+00		         0.03833	7.65000e+02	
0.17031   	4.75911e+00		         0.04000	7.81000e+02	
0.17668   	4.72968e+00		         0.04167	7.79000e+02	
0.18306   	4.71535e+00		         0.04333	7.60000e+02	
0.18943   	4.71182e+00		         0.04500	7.23000e+02	
0.19580   	4.78605e+00		         0.04667	6.70000e+02	
0.20218   	4.89767e+00		         0.04833	6.03000e+02	
0.20855   	4.95084e+00		         0.05000	5.24000e+02	
0.21493   	4.95488e+00		         0.05167	4.38000e+02	
0.22130   	5.04225e+00		         0.05333	3.46000e+02	
0.22768   	5.12400e+00		         0.05500	2.52000e+02	
0.23405   	5.04016e+00		         0.05667	1.61000e+02	
0.24078   	5.02387e+00		         0.05833	7.50000e+01	
0.24680   	5.00958e+00		         0.06000	-4.00000e+00	
0.25318   	4.87626e+00		         0.06167	-7.40000e+01	
0.25955   	4.70572e+00		         0.06333	-1.33000e+02	
0.26593   	4.57937e+00		         0.06500	-1.81000e+02	
0.27230   	4.41631e+00		         0.06667	-2.18000e+02	
0.27868   	4.28844e+00		         0.06833	-2.45000e+02	
0.28505   	4.14464e+00		         0.07000	-2.63000e+02	
0.29142   	3.94851e+00		         0.07167	-2.73000e+02	
0.29780   	3.79923e+00		         0.07333	-2.77000e+02	
0.30417   	3.64568e+00		         0.07500	-2.75000e+02	
0.31055   	3.47300e+00		         0.07667	-2.69000e+02	
0.31692   	3.32660e+00		         0.07833	-2.60000e+02	
0.32334   	3.21522e+00		         0.08000	-2.50000e+02	
0.32967   	3.07446e+00		         0.08167	-2.39000e+02	
0.33605   	2.90293e+00		         0.08333	-2.28000e+02	
0.34242   	2.69535e+00		         0.08500	-2.17000e+02	
0.34879   	2.47466e+00		         0.08667	-2.06000e+02	
0.35517   	2.24963e+00		         0.08833	-1.96000e+02	
0.36155   	2.03911e+00		         0.09000	-1.87000e+02	
0.36792   	1.82362e+00		         0.09167	-1.79000e+02	
0.37429   	1.62398e+00		         0.09333	-1.72000e+02	
0.38067   	1.40739e+00		         0.09500	-1.66000e+02	
0.38704   	1.16493e+00		         0.09667	-1.60000e+02	
0.39342   	8.76025e-01		         0.09833	-1.55000e+02	
0.39979   	5.36282e-01		         0.10000	-1.50000e+02	
0.40635   	1.29288e-01		         0.10167	-1.45000e+02	
0.41254   	-2.11628e-01		         0.10333	-1.41000e+02	
0.41892   	-2.58768e-01		         0.10500	-1.36000e+02	
0.42529   	8.00320e-02		         0.10667	-1.32000e+02	
0.43167   	6.01015e-01		         0.10833	-1.27000e+02	
0.43804   	1.20570e+00		         0.11000	-1.23000e+02	
0.44442   	1.79270e+00		         0.11167	-1.20000e+02	
0.45079   	2.15331e+00		         0.11333	-1.16000e+02	
0.45716   	2.22591e+00		         0.11500	-1.12000e+02	
0.46354   	2.19471e+00		         0.11667	-1.09000e+02	
0.46991   	2.18624e+00		         0.11833	-1.06000e+02	
0.47629   	2.11328e+00		         0.12000	-1.03000e+02	
0.48266   	1.96441e+00		         0.12167	-1.00000e+02	
0.48934   	1.71995e+00		         0.12333	-9.80000e+01	
0.49541   	1.31048e+00		         0.12500	-9.60000e+01	
0.50179   	7.88756e-01		         0.12667	-9.40000e+01	
0.50816   	2.33313e-01		         0.12833	-9.20000e+01	
0.51454   	-4.28638e-01		         0.13000	-9.00000e+01	
0.52091   	-1.13248e+00		         0.13167	-8.80000e+01	
0.52728   	-1.70982e+00		         0.13333	-8.60000e+01	
0.53366   	-2.29936e+00		         0.13500	-8.40000e+01	
0.54003   	-2.82778e+00		         0.13667	-8.20000e+01	
0.54641   	-3.23529e+00		         0.13833	-8.00000e+01	
0.55278   	-3.59803e+00		         0.14000	-7.80000e+01	
0.55916   	-3.90979e+00		         0.14167	-7.60000e+01	
0.56553   	-4.08724e+00		         0.14333	-7.30000e+01	
0.57191   	-4.18155e+00		         0.14500	-7.10000e+01	
0.57828   	-4.20937e+00		         0.14667	-6.80000e+01	
0.58466   	-4.12080e+00		         0.14833	-6.50000e+01	
0.59103   	-3.99466e+00		         0.15000	-6.20000e+01	
0.59741   	-3.84521e+00		         0.15167	-5.90000e+01	
0.60378   	-3.71605e+00		         0.15333	-5.60000e+01	
0.61016   	-3.54475e+00		         0.15500	-5.30000e+01	
0.61653   	-3.36186e+00		         0.15667	-5.10000e+01	
0.62291   	-3.16251e+00		         0.15833	-4.80000e+01	
0.62928   	-2.95519e+00		         0.16000	-4.60000e+01	
0.63565   	-2.71298e+00		         0.16167	-4.40000e+01	
0.64203   	-2.47710e+00		         0.16333	-4.20000e+01	
0.64840   	-2.22206e+00		         0.16500	-4.00000e+01	
0.65478   	-1.96195e+00		         0.16667	-3.90000e+01	
0.66116   	-1.70561e+00		         0.16833	-3.80000e+01	
0.66753   	-1.45245e+00		         0.17000	-3.60000e+01	
0.67390   	-1.18310e+00		         0.17167	-3.50000e+01	
0.68028   	-9.56762e-01		         0.17333	-3.40000e+01	
0.68665   	-7.36631e-01		         0.17500	-3.30000e+01	
0.69303   	-4.95851e-01		         0.17667	-3.10000e+01	
0.69940   	-3.07638e-01		         0.17833	-3.00000e+01	
0.70578   	-1.38901e-01		         0.18000	-2.80000e+01	
0.71215   	2.79071e-02		         0.18167	-2.60000e+01	
0.71853   	1.48711e-01		         0.18333	-2.50000e+01	
0.72500   	2.36221e-01		         0.18500	-2.30000e+01	
0.73128   	3.08479e-01		         0.18667	-2.10000e+01	
0.73765   	3.39062e-01		         0.18833	-2.00000e+01	
0.74403   	3.47070e-01		         0.19000	-1.80000e+01	
0.75040   	3.47271e-01		         0.19167	-1.60000e+01	
0.75677   	3.04861e-01		         0.19333	-1.50000e+01	
0.76315   	2.68640e-01		         0.19500	-1.40000e+01	
0.76952   	2.23570e-01		         0.19667	-1.20000e+01	
0.77590   	1.58806e-01		         0.19833	-1.10000e+01	
0.78227   	6.41159e-02		         0.20000	-1.00000e+01	
0.78865   	-4.64717e-03		         0.20167	-9.00000e+00	
0.79502   	-1.01054e-01		         0.20333	-8.00000e+00	
0.80140   	-2.02279e-01		         0.20500	-7.00000e+00	
0.80777   	-3.44435e-01		         0.20667	-6.00000e+00	
0.81415   	-5.49038e-01		         0.20833	-5.00000e+00	
0.82052   	-9.09654e-01		         0.21000	-4.00000e+00	
0.82690   	-1.40788e+00		         0.21167	-2.00000e+00	
0.83327   	-2.03263e+00		         0.21333	0.00000e+00	
0.83964   	-2.76238e+00		         0.21500	2.00000e+00	
0.84602   	-3.48087e+00		         0.21667	4.00000e+00	
0.85239   	-4.20499e+00		         0.21833	6.00000e+00	
0.85877   	-4.84575e+00		         0.22000	9.00000e+00	
0.86514   	-5.41891e+00		         0.22167	1.10000e+01	
0.87152   	-5.91031e+00		         0.22333	1.30000e+01	
0.87789   	-6.44109e+00		         0.22500	1.50000e+01	
0.88427   	-6.88880e+00		         0.22667	1.70000e+01	
0.89064   	-7.34708e+00		         0.22833	1.90000e+01	
0.89702   	-7.70610e+00		         0.23000	2.00000e+01	
0.90339   	-7.99895e+00		         0.23167	2.20000e+01	
0.90977   	-8.26357e+00		         0.23333	2.30000e+01	
0.91614   	-8.27336e+00		         0.23500	2.40000e+01	
0.92252   	-7.97631e+00		         0.23667	2.50000e+01	
0.92889   	-7.54527e+00		         0.23833	2.60000e+01	
0.93526   	-6.72839e+00		         0.24000	2.70000e+01	
0.94164   	-5.49756e+00		         0.24167	2.90000e+01	
0.94802   	-4.12844e+00		         0.24333	3.10000e+01	
0.95439   	-2.83384e+00		         0.24500	3.30000e+01	
0.96076   	-1.57933e+00		         0.24667	3.60000e+01	
0.96714   	-5.29571e-01		         0.24833	3.90000e+01	
0.97351   	3.97432e-01		         0.25000	4.30000e+01	
0.97989   	1.29354e+00		         0.25167	4.60000e+01	
0.98626   	2.29114e+00		         0.25333	5.00000e+01	
0.99264   	3.27903e+00		         0.25500	5.40000e+01	
0.99901   	4.06157e+00		         0.25667	5.90000e+01	
1.00538   	4.18290e+00		         0.25833	6.30000e+01	
1.01176   	2.80411e+00		         0.26000	6.80000e+01	
1.01814   	1.19785e+00		         0.26167	7.20000e+01	
1.02451   	1.70970e-01		         0.26333	7.70000e+01	
1.03088   	-2.37593e-01		         0.26500	8.10000e+01	
1.03739   	-4.58135e-02		         0.26667	8.50000e+01	
1.04363   	1.51065e+00		         0.26833	8.80000e+01	
1.05001   	3.23387e+00		         0.27000	9.20000e+01	
1.05638   	4.38085e+00		         0.27167	9.50000e+01	
1.06276   	4.94315e+00		         0.27333	9.80000e+01	
1.06914   	5.33434e+00		         0.27500	1.01000e+02	
1.07551   	5.55877e+00		         0.27667	1.04000e+02	
1.08188   	5.55230e+00		         0.27833	1.06000e+02	
1.08826   	5.42224e+00		         0.28000	1.09000e+02	
1.09463   	5.26951e+00		         0.28167	1.12000e+02	
1.10101   	5.18355e+00		         0.28333	1.14000e+02	
1.10738   	5.09586e+00		         0.28500	1.17000e+02	
1.11376   	5.06323e+00		         0.28667	1.20000e+02	
1.12040   	5.04066e+00		         0.28833	1.24000e+02	
1.12651   	5.04635e+00		         0.29000	1.27000e+02	
1.13288   	5.02933e+00		         0.29167	1.30000e+02	
1.13925   	5.07354e+00		         0.29333	1.33000e+02	
1.14563   	5.11153e+00		         0.29500	1.37000e+02	
1.15200   	5.15646e+00		         0.29667	1.39000e+02	
1.15838   	5.19265e+00		         0.29833	1.42000e+02	
1.16475   	5.23369e+00		         0.30000	1.44000e+02	
1.17113   	5.22505e+00		         0.30167	1.46000e+02	
1.17750   	5.17965e+00		         0.30333	1.48000e+02	
1.18388   	5.12056e+00		         0.30500	1.49000e+02	
1.19025   	5.06524e+00		         0.30667	1.49000e+02	
1.19663   	4.98871e+00		         0.30833	1.49000e+02	
1.20321   	4.89355e+00		         0.31000	1.49000e+02	
1.20938   	4.77313e+00		         0.31167	1.48000e+02	
1.21575   	4.59606e+00		         0.31333	1.47000e+02	
1.22213   	4.42382e+00		         0.31500	1.46000e+02	
1.22850   	4.20181e+00		         0.31667	1.44000e+02	
1.23487   	3.95115e+00		         0.31833	1.42000e+02	
1.24125   	3.72526e+00		         0.32000	1.39000e+02	
1.24762   	3.51520e+00		         0.32167	1.37000e+02	
1.25400   	3.26745e+00		         0.32333	1.35000e+02	
1.26037   	3.04339e+00		         0.32500	1.32000e+02	
1.26675   	2.87257e+00		         0.32667	1.29000e+02	
1.27312   	2.69180e+00		         0.32833	1.26000e+02	
1.27950   	2.49773e+00		         0.33000	1.23000e+02	
1.28587   	2.31581e+00		         0.33167	1.19000e+02	
1.29225   	2.13741e+00		         0.33333	1.15000e+02	
1.29862   	1.92986e+00		         0.33500	1.10000e+02	
1.30500   	1.72325e+00		         0.33667	1.05000e+02	
1.31137   	1.52894e+00		         0.33833	9.90000e+01	
1.31774   	1.34536e+00		         0.34000	9.30000e+01	
1.32413   	1.13316e+00		         0.34167	8.60000e+01	
1.33050   	8.56264e-01		         0.34333	7.90000e+01	
1.33687   	5.52914e-01		         0.34500	7.10000e+01	
1.34324   	1.78252e-01		         0.34667	6.30000e+01	
1.34962   	-2.50711e-01		         0.34833	5.40000e+01	
1.35599   	-5.32757e-01		         0.35000	4.60000e+01	
1.36237   	-3.79811e-01		         0.35167	3.70000e+01	
1.36874   	7.08623e-02		         0.35333	2.80000e+01	
1.37512   	6.23493e-01		         0.35500	2.00000e+01	
1.38149   	1.25532e+00		         0.35667	1.10000e+01	
1.38786   	1.81751e+00		         0.35833	3.00000e+00	
1.39424   	2.01613e+00		         0.36000	-6.00000e+00	
1.40061   	2.02176e+00		         0.36167	-1.40000e+01	
1.40699   	2.08126e+00		         0.36333	-2.20000e+01	
1.41337   	2.15629e+00		         0.36500	-3.00000e+01	
1.41974   	2.20639e+00		         0.36667	-3.80000e+01	
1.42612   	2.07151e+00		         0.36833	-4.60000e+01	
1.43249   	1.71973e+00		         0.37000	-5.30000e+01	
1.43901   	1.31985e+00		         0.37167	-6.00000e+01	
1.44524   	6.95565e-01		         0.37333	-6.70000e+01	
1.45161   	-1.64929e-01		         0.37500	-7.30000e+01	
1.45799   	-8.70340e-01		         0.37667	-7.80000e+01	
1.46436   	-1.48174e+00		         0.37833	-8.30000e+01	
1.47074   	-2.22691e+00		         0.38000	-8.70000e+01	
1.47711   	-2.82435e+00		         0.38167	-9.10000e+01	
1.48349   	-3.25507e+00		         0.38333	-9.40000e+01	
1.48986   	-3.74130e+00		         0.38500	-9.70000e+01	
1.49624   	-4.13713e+00		         0.38667	-1.00000e+02	
1.50261   	-4.43001e+00		         0.38833	-1.02000e+02	
1.50899   	-4.65013e+00		         0.39000	-1.03000e+02	
1.51536   	-4.80337e+00		         0.39167	-1.04000e+02	
1.52173   	-4.79394e+00		         0.39333	-1.05000e+02	
1.52811   	-4.74493e+00		         0.39500	-1.06000e+02	
1.53448   	-4.61344e+00		         0.39667	-1.06000e+02	
1.54086   	-4.44465e+00		         0.39833	-1.06000e+02	
1.54723   	-4.23353e+00		         0.40000	-1.07000e+02	
1.55361   	-4.02302e+00		         0.40167	-1.07000e+02	
1.55998   	-3.79500e+00		         0.40333	-1.07000e+02	
1.56636   	-3.52631e+00		         0.40500	-1.06000e+02	
1.57273   	-3.22996e+00		         0.40667	-1.06000e+02	
1.57911   	-2.91016e+00		         0.40833	-1.05000e+02	
1.58548   	-2.58693e+00		         0.41000	-1.03000e+02	
1.59186   	-2.25441e+00		         0.41167	-1.02000e+02	
1.59823   	-1.93711e+00		         0.41333	-1.00000e+02	
1.60460   	-1.63837e+00		         0.41500	-9.80000e+01	
1.61098   	-1.35741e+00		         0.41667	-9.60000e+01	
1.61735   	-1.06059e+00		         0.41833	-9.40000e+01	
1.62373   	-7.86551e-01		         0.42000	-9.20000e+01	
1.63010   	-5.24806e-01		         0.42167	-8.90000e+01	
1.63648   	-2.92349e-01		         0.42333	-8.70000e+01	
1.64285   	-9.05452e-02		         0.42500	-8.60000e+01	
1.64923   	6.24241e-02		         0.42667	-8.40000e+01	
1.65560   	1.83810e-01		         0.42833	-8.30000e+01	
1.66198   	2.62409e-01		         0.43000	-8.20000e+01	
1.66862   	3.08488e-01		         0.43167	-8.10000e+01	
1.67473   	3.39951e-01		         0.43333	-8.10000e+01	
1.68110   	3.53517e-01		         0.43500	-8.00000e+01	
1.68747   	3.49951e-01		         0.43667	-7.90000e+01	
1.69385   	3.29936e-01		         0.43833	-7.90000e+01	
1.70022   	2.87961e-01		         0.44000	-7.80000e+01	
1.70660   	2.31459e-01		         0.44167	-7.60000e+01	
1.71297   	1.69860e-01		         0.44333	-7.50000e+01	
1.71935   	1.02396e-01		         0.44500	-7.30000e+01	
1.72572   	2.45886e-02		         0.44667	-7.10000e+01	
1.73210   	-3.51747e-02		         0.44833	-6.90000e+01	
1.73848   	-1.24520e-01		         0.45000	-6.60000e+01	
1.74485   	-2.46559e-01		         0.45167	-6.40000e+01	
1.75134   	-4.40808e-01		         0.45333	-6.20000e+01	
1.75760   	-7.59206e-01		         0.45500	-6.00000e+01	
1.76397   	-1.25720e+00		         0.45667	-5.70000e+01	
1.77034   	-1.89609e+00		         0.45833	-5.50000e+01	
1.77672   	-2.66012e+00		         0.46000	-5.30000e+01	
1.78309   	-3.47073e+00		         0.46167	-5.10000e+01	
1.78947   	-4.28281e+00		         0.46333	-5.00000e+01	
1.79584   	-5.02736e+00		         0.46500	-4.80000e+01	
1.80222   	-5.63472e+00		         0.46667	-4.60000e+01	
1.80859   	-6.13779e+00		         0.46833	-4.50000e+01	
1.81497   	-6.61579e+00		         0.47000	-4.30000e+01	
1.82134   	-7.10170e+00		         0.47167	-4.20000e+01	
1.82772   	-7.45880e+00		         0.47333	-4.00000e+01	
1.83419   	-7.89598e+00		         0.47500	-3.90000e+01	
1.84047   	-8.29866e+00		         0.47667	-3.80000e+01	
1.84684   	-8.56675e+00		         0.47833	-3.70000e+01	
1.85321   	-8.46271e+00		         0.48000	-3.60000e+01	
1.85959   	-8.37793e+00		         0.48167	-3.50000e+01	
1.86597   	-7.89026e+00		         0.48333	-3.40000e+01	
1.87234   	-7.07129e+00		         0.48500	-3.20000e+01	
1.87872   	-5.88589e+00		         0.48667	-3.10000e+01	
1.88509   	-4.59570e+00		         0.48833	-3.00000e+01	
1.89147   	-3.09311e+00		         0.49000	-2.90000e+01	
1.89784   	-1.74527e+00		         0.49167	-2.80000e+01	
1.90421   	-6.04714e-01		         0.49333	-2.60000e+01	
1.91059   	3.73591e-01		         0.49500	-2.50000e+01	
1.91705   	1.29035e+00		         0.49667	-2.30000e+01	
1.92334   	2.26897e+00		         0.49833	-2.20000e+01	
1.92971   	3.28393e+00		         0.50000	-2.00000e+01	
1.93609   	4.13578e+00		         0.50167	-1.90000e+01	
1.94246   	4.18577e+00		         0.50333	-1.80000e+01	
1.94884   	2.82765e+00		         0.50500	-1.70000e+01	
1.95521   	1.18023e+00		         0.50667	-1.60000e+01	
1.96159   	1.33403e-01		         0.50833	-1.60000e+01	
1.96796   	-3.96725e-01		         0.51000	-1.50000e+01	
1.97434   	-1.85153e-01		         0.51167	-1.50000e+01	
1.98071   	1.36178e+00		         0.51333	-1.50000e+01	
1.98708   	3.11462e+00		         0.51500	-1.50000e+01	
1.99346   	4.19383e+00		         0.51667	-1.50000e+01	
1.99983   	4.77216e+00		         0.51833	-1.50000e+01	
2.00621   	5.15636e+00		         0.52000	-1.40000e+01	
2.01258   	5.34036e+00		         0.52167	-1.40000e+01	
2.01896   	5.31261e+00		         0.52333	-1.30000e+01	
2.02534   	5.15596e+00		         0.52500	-1.30000e+01	
2.03171   	5.06843e+00		         0.52667	-1.20000e+01	
2.03809   	5.01273e+00		         0.52833	-1.10000e+01	
2.04446   	4.99785e+00		         0.53000	-1.00000e+01	
2.05083   	4.97828e+00		         0.53167	-9.00000e+00	
2.05721   	4.99504e+00		         0.53333	-9.00000e+00	
2.06358   	5.02182e+00		         0.53500	-8.00000e+00	
2.06995   	5.06070e+00		         0.53667	-7.00000e+00	
2.07633   	5.06877e+00		         0.53833	-7.00000e+00	
2.08270   	5.10296e+00		         0.54000	-7.00000e+00	
2.08908   	5.16519e+00		         0.54167	-7.00000e+00	
2.09545   	5.17432e+00		         0.54333	-8.00000e+00	
2.10183   	5.15710e+00		         0.54500	-8.00000e+00	
2.10820   	5.11745e+00		         0.54667	-9.00000e+00	
2.11458   	5.11663e+00		         0.54833	-1.00000e+01	
2.12096   	5.09877e+00		         0.55000	-1.10000e+01	
2.12733   	5.05649e+00		         0.55167	-1.20000e+01	
2.13370   	4.99466e+00		         0.55333	-1.30000e+01	
2.14007   	4.94475e+00		         0.55500	-1.40000e+01	
2.14645   	4.82599e+00		         0.55667	-1.50000e+01	
2.15284   	4.67844e+00		         0.55833	-1.50000e+01	
2.15920   	4.52089e+00		         0.56000	-1.60000e+01	
2.16557   	4.34813e+00		         0.56167	-1.60000e+01	
2.17195   	4.11028e+00		         0.56333	-1.60000e+01	
2.17832   	3.87381e+00		         0.56500	-1.60000e+01	
2.18470   	3.63945e+00		         0.56667	-1.50000e+01	
2.19107   	3.40857e+00		         0.56833	-1.50000e+01	
2.19745   	3.18810e+00		         0.57000	-1.40000e+01	
2.20382   	2.96952e+00		         0.57167	-1.30000e+01	
2.21020   	2.77124e+00		         0.57333	-1.20000e+01	
2.21657   	2.55787e+00		         0.57500	-1.20000e+01	
2.22295   	2.38242e+00		         0.57667	-1.20000e+01	
2.22932   	2.14760e+00		         0.57833	-1.20000e+01	
2.23569   	1.96936e+00		         0.58000	-1.30000e+01	
2.24207   	1.74736e+00		         0.58167	-1.40000e+01	
2.24844   	1.53628e+00		         0.58333	-1.60000e+01	
2.25482   	1.28669e+00		         0.58500	-1.80000e+01	
2.26119   	1.05899e+00		         0.58667	-2.00000e+01	
2.26757   	7.65216e-01		         0.58833	-2.10000e+01	
2.27395   	4.83347e-01		         0.59000	-2.30000e+01	
2.28032   	1.49246e-01		         0.59167	-2.40000e+01	
2.28669   	-2.22860e-01		         0.59333	-2.50000e+01	
2.29307   	-4.22214e-01		         0.59500	-2.60000e+01	
2.29962   	-2.23265e-01		         0.59667	-2.60000e+01	
2.30582   	2.58256e-01		         0.59833	-2.60000e+01	
2.31219   	7.99655e-01		         0.60000	-2.50000e+01	
2.31857   	1.41947e+00		         0.60167	-2.40000e+01	
2.32494   	1.93347e+00		         0.60333	-2.20000e+01	
2.33132   	2.14694e+00		         0.60500	-2.10000e+01	
2.33769   	2.15682e+00		         0.60667	-1.90000e+01	
2.34407   	2.16257e+00		         0.60833	-1.80000e+01	
2.35044   	2.15069e+00		         0.61000	-1.70000e+01	
2.35682   	2.11848e+00		         0.61167	-1.60000e+01	
2.36319   	2.01972e+00		         0.61333	-1.60000e+01	
2.36957   	1.84084e+00		         0.61500	-1.50000e+01	
2.37594   	1.34072e+00		         0.61667	-1.50000e+01	
2.38231   	8.31510e-01		         0.61833	-1.50000e+01	
2.38869   	-2.17847e-02		         0.62000	-1.40000e+01	
2.39506   	-9.21516e-01		         0.62167	-1.40000e+01	
2.40144   	-1.80931e+00		         0.62333	-1.40000e+01	
2.40781   	-2.46111e+00		         0.62500	-1.30000e+01	
2.41418   	-3.13983e+00		         0.62667	-1.20000e+01	
2.42056   	-3.49908e+00		         0.62833	-1.20000e+01	
2.42694   	-3.74622e+00		         0.63000	-1.10000e+01	
2.43331   	-4.05406e+00		         0.63167	-1.00000e+01	
2.43969   	-4.33283e+00		         0.63333	-1.00000e+01	
2.44606   	-4.50322e+00		         0.63500	-1.00000e+01	
2.45244   	-4.65988e+00		         0.63667	-1.00000e+01	
2.45881   	-4.80671e+00		         0.63833	-1.00000e+01	
2.46518   	-4.80541e+00		         0.64000	-1.10000e+01	
2.47156   	-4.67106e+00		         0.64167	-1.20000e+01	
2.47794   	-4.52462e+00		         0.64333	-1.30000e+01	
2.48431   	-4.30145e+00		         0.64500	-1.30000e+01	
2.49068   	-4.05372e+00		         0.64667	-1.40000e+01	
2.49706   	-3.80639e+00		         0.64833	-1.50000e+01	
2.50343   	-3.53377e+00		         0.65000	-1.60000e+01	
2.50981   	-3.26979e+00		         0.65167	-1.70000e+01	
2.51618   	-2.97468e+00		         0.65333	-1.80000e+01	
2.52255   	-2.67141e+00		         0.65500	-1.80000e+01	
2.52893   	-2.35451e+00		         0.65667	-1.90000e+01	
2.53531   	-2.02869e+00		         0.65833	-1.90000e+01	
2.54168   	-1.70719e+00		         0.66000	-1.90000e+01	
2.54809   	-1.43280e+00		         0.66167	-1.90000e+01	
2.55443   	-1.16704e+00		         0.66333	-1.90000e+01	
2.56080   	-9.15812e-01		         0.66500	-1.80000e+01	
2.56718   	-7.15555e-01		         0.66667	-1.80000e+01	
2.57355   	-5.11497e-01		         0.66833	-1.70000e+01	
2.57993   	-3.19461e-01		         0.67000	-1.60000e+01	
2.58630   	-1.46824e-01		         0.67167	-1.50000e+01	
2.59268   	7.98767e-03		         0.67333	-1.40000e+01	
2.59905   	1.53754e-01		         0.67500	-1.20000e+01	
2.60543   	2.54775e-01		         0.67667	-1.10000e+01	
2.61180   	3.37237e-01		         0.67833	-1.00000e+01	
2.61818   	3.53567e-01		         0.68000	-9.00000e+00	
2.62455   	3.24931e-01		         0.68167	-8.00000e+00	
2.63101   	2.64720e-01		         0.68333	-7.00000e+00	
2.63730   	1.84296e-01		         0.68500	-7.00000e+00	
2.64367   	8.80550e-02		         0.68667	-7.00000e+00	
2.65005   	2.21877e-02		         0.68833	-7.00000e+00	
2.65643   	-5.27938e-02		         0.69000	-7.00000e+00	
2.66280   	-1.35956e-01		         0.69167	-7.00000e+00	
2.66918   	-2.26555e-01		         0.69333	-7.00000e+00	
2.67555   	-3.69747e-01		         0.69500	-7.00000e+00	
2.68192   	-6.13009e-01		         0.69667	-6.00000e+00	
2.68830   	-9.67043e-01		         0.69833	-6.00000e+00	
2.69467   	-1.43936e+00		         0.70000	-6.00000e+00	
2.70105   	-2.04978e+00		         0.70167	-6.00000e+00	
2.70742   	-2.78949e+00		         0.70333	-6.00000e+00	
2.71379   	-3.46461e+00		         0.70500	-6.00000e+00	
2.72018   	-4.16157e+00		         0.70667	-5.00000e+00	
2.72655   	-4.89454e+00		         0.70833	-6.00000e+00	
2.73292   	-5.50217e+00		         0.71000	-6.00000e+00	
2.73929   	-5.96908e+00		         0.71167	-6.00000e+00	
2.74567   	-6.53456e+00		         0.71333	-7.00000e+00	
2.75205   	-7.09039e+00		         0.71500	-7.00000e+00	
2.75842   	-7.53415e+00		         0.71667	-8.00000e+00	
2.76479   	-8.03021e+00		         0.71833	-8.00000e+00	
2.77117   	-8.40906e+00		         0.72000	-9.00000e+00	
2.77754   	-8.60720e+00		         0.72167	-9.00000e+00	
2.78392   	-8.52179e+00		         0.72333	-1.00000e+01	
2.79029   	-8.22980e+00		         0.72500	-1.00000e+01	
2.79667   	-7.57072e+00		         0.72667	-1.00000e+01	
2.80304   	-6.59878e+00		         0.72833	-1.00000e+01	
2.80942   	-5.36493e+00		         0.73000	-9.00000e+00	
2.81579   	-4.01926e+00		         0.73167	-9.00000e+00	
2.82217   	-2.74072e+00		         0.73333	-8.00000e+00	
2.82854   	-1.61510e+00		         0.73500	-7.00000e+00	
2.83492   	-6.84871e-01		         0.73667	-6.00000e+00	
2.84129   	1.89497e-01		         0.73833	-6.00000e+00	
2.84766   	1.04331e+00		         0.74000	-5.00000e+00	
2.85404   	2.10664e+00		         0.74167	-4.00000e+00	
2.86041   	2.65423e+00		         0.74333	-3.00000e+00	
2.86679   	3.27297e+00		         0.74500	-2.00000e+00	
			         0.74667	-2.00000e+00	
			         0.74833	-1.00000e+00	
			         0.75000	0.00000e+00	
			         0.75167	0.00000e+00	
			         0.75333	0.00000e+00	
			         0.75500	1.00000e+00	
			         0.75667	1.00000e+00	
			         0.75833	1.00000e+00	
			         0.76000	1.00000e+00	
			         0.76167	2.00000e+00	
			         0.76333	2.00000e+00	
			         0.76500	2.00000e+00	
			         0.76667	2.00000e+00	
			         0.76833	3.00000e+00	
			         0.77000	4.00000e+00	
			         0.77167	5.00000e+00	
			         0.77333	7.00000e+00	
			         0.77500	9.00000e+00	
			         0.77667	1.20000e+01	
			         0.77833	1.50000e+01	
			         0.78000	1.90000e+01	
			         0.78167	2.30000e+01	
			         0.78333	2.80000e+01	
			         0.78500	3.40000e+01	
			         0.78667	3.90000e+01	
			         0.78833	4.40000e+01	
			         0.79000	4.90000e+01	
			         0.79167	5.40000e+01	
			         0.79333	5.90000e+01	
			         0.79500	6.40000e+01	
			         0.79667	6.80000e+01	
			         0.79833	7.20000e+01	
			         0.80000	7.50000e+01	
			         0.80167	7.80000e+01	
			         0.80333	8.00000e+01	
			         0.80500	8.10000e+01	
			         0.80667	8.10000e+01	
			         0.80833	8.10000e+01	
			         0.81000	8.00000e+01	
			         0.81167	7.90000e+01	
			         0.81333	7.70000e+01	
			         0.81500	7.40000e+01	
			         0.81667	7.10000e+01	
			         0.81833	6.70000e+01	
			         0.82000	6.30000e+01	
			         0.82167	5.90000e+01	
			         0.82333	5.40000e+01	
			         0.82500	5.00000e+01	
			         0.82667	4.60000e+01	
			         0.82833	4.20000e+01	
			         0.83000	3.80000e+01	
			         0.83167	3.50000e+01	
			         0.83333	3.10000e+01	
			         0.83500	2.80000e+01	
			         0.83667	2.50000e+01	
			         0.83833	2.20000e+01	
			         0.84000	1.90000e+01	
			         0.84167	1.50000e+01	
			         0.84333	1.20000e+01	
			         0.84500	9.00000e+00	
			         0.84667	7.00000e+00	
			         0.84833	4.00000e+00	
			         0.85000	1.00000e+00	
			         0.85167	-1.00000e+00	
			         0.85333	-3.00000e+00	
			         0.85500	-5.00000e+00	
			         0.85667	-6.00000e+00	
			         0.85833	-7.00000e+00	
			         0.86000	-9.00000e+00	
			         0.86167	-1.00000e+01	
			         0.86333	-1.10000e+01	
			         0.86500	-1.20000e+01	
			         0.86667	-1.40000e+01	
			         0.86833	-1.50000e+01	
			         0.87000	-1.70000e+01	
			         0.87167	-2.00000e+01	
			         0.87333	-2.30000e+01	
			         0.87500	-2.60000e+01	
			         0.87667	-3.00000e+01	
			         0.87833	-3.30000e+01	
			         0.88000	-3.70000e+01	
			         0.88167	-4.00000e+01	
			         0.88333	-4.30000e+01	
			         0.88500	-4.60000e+01	
			         0.88667	-4.90000e+01	
			         0.88833	-5.20000e+01	
			         0.89000	-5.40000e+01	
			         0.89167	-5.60000e+01	
			         0.89333	-5.80000e+01	
			         0.89500	-5.90000e+01	
			         0.89667	-6.00000e+01	
			         0.89833	-6.10000e+01	
			         0.90000	-6.10000e+01	
			         0.90167	-6.10000e+01	
			         0.90333	-6.10000e+01	
			         0.90500	-6.00000e+01	
			         0.90667	-5.90000e+01	
			         0.90833	-5.80000e+01	
			         0.91000	-5.60000e+01	
			         0.91167	-5.40000e+01	
			         0.91333	-5.30000e+01	
			         0.91500	-5.10000e+01	
			         0.91667	-5.00000e+01	
			         0.91833	-4.80000e+01	
			         0.92000	-4.60000e+01	
			         0.92167	-4.50000e+01	
			         0.92333	-4.40000e+01	
			         0.92500	-4.20000e+01	
			         0.92667	-4.10000e+01	
			         0.92833	-3.90000e+01	
			         0.93000	-3.80000e+01	
			         0.93167	-3.60000e+01	
			         0.93333	-3.40000e+01	
			         0.93500	-3.30000e+01	
			         0.93667	-3.20000e+01	
			         0.93833	-3.00000e+01	
			         0.94000	-3.00000e+01	
			         0.94167	-2.90000e+01	
			         0.94333	-2.80000e+01	
			         0.94500	-2.80000e+01	
			         0.94667	-2.60000e+01	
			         0.94833	-2.40000e+01	
			         0.95000	-1.90000e+01	
			         0.95167	-1.20000e+01	
			         0.95333	-2.00000e+00	
			         0.95500	1.30000e+01	
			         0.95667	3.40000e+01	
			         0.95833	6.10000e+01	
			         0.96000	9.60000e+01	
			         0.96167	1.38000e+02	
			         0.96333	1.88000e+02	
			         0.96500	2.45000e+02	
			         0.96667	3.07000e+02	
			         0.96833	3.75000e+02	
			         0.97000	4.45000e+02	
			         0.97167	5.16000e+02	
			         0.97333	5.84000e+02	
			         0.97500	6.48000e+02	
			         0.97667	7.03000e+02	
			         0.97833	7.46000e+02	
			         0.98000	7.75000e+02	
			         0.98167	7.88000e+02	
			         0.98333	7.83000e+02	
			         0.98500	7.60000e+02	
			         0.98667	7.20000e+02	
			         0.98833	6.64000e+02	
			         0.99000	5.95000e+02	
			         0.99167	5.14000e+02	
			         0.99333	4.25000e+02	
			         0.99500	3.32000e+02	
			         0.99667	2.37000e+02	
			         0.99833	1.45000e+02	
			         1.00000	5.80000e+01	
			         1.00167	-2.10000e+01	
			         1.00333	-9.00000e+01	
			         1.00500	-1.49000e+02	
			         1.00667	-1.96000e+02	
			         1.00833	-2.33000e+02	
			         1.01000	-2.59000e+02	
			         1.01167	-2.76000e+02	
			         1.01333	-2.85000e+02	
			         1.01500	-2.87000e+02	
			         1.01667	-2.84000e+02	
			         1.01833	-2.78000e+02	
			         1.02000	-2.69000e+02	
			         1.02167	-2.58000e+02	
			         1.02333	-2.47000e+02	
			         1.02500	-2.35000e+02	
			         1.02667	-2.24000e+02	
			         1.02833	-2.14000e+02	
			         1.03000	-2.04000e+02	
			         1.03167	-1.96000e+02	
			         1.03333	-1.88000e+02	
			         1.03500	-1.81000e+02	
			         1.03667	-1.75000e+02	
			         1.03833	-1.69000e+02	
			         1.04000	-1.63000e+02	
			         1.04167	-1.58000e+02	
			         1.04333	-1.53000e+02	
			         1.04500	-1.48000e+02	
			         1.04667	-1.43000e+02	
			         1.04833	-1.39000e+02	
			         1.05000	-1.34000e+02	
			         1.05167	-1.30000e+02	
			         1.05333	-1.27000e+02	
			         1.05500	-1.23000e+02	
			         1.05667	-1.21000e+02	
			         1.05833	-1.18000e+02	
			         1.06000	-1.16000e+02	
			         1.06167	-1.14000e+02	
			         1.06333	-1.13000e+02	
			         1.06500	-1.12000e+02	
			         1.06667	-1.11000e+02	
			         1.06833	-1.10000e+02	
			         1.07000	-1.08000e+02	
			         1.07167	-1.07000e+02	
			         1.07333	-1.04000e+02	
			         1.07500	-1.02000e+02	
			         1.07667	-9.90000e+01	
			         1.07833	-9.60000e+01	
			         1.08000	-9.30000e+01	
			         1.08167	-9.00000e+01	
			         1.08333	-8.60000e+01	
			         1.08500	-8.30000e+01	
			         1.08667	-7.90000e+01	
			         1.08833	-7.50000e+01	
			         1.09000	-7.20000e+01	
			         1.09167	-6.90000e+01	
			         1.09333	-6.60000e+01	
			         1.09500	-6.30000e+01	
			         1.09667	-6.10000e+01	
			         1.09833	-5.90000e+01	
			         1.10000	-5.70000e+01	
			         1.10167	-5.50000e+01	
			         1.10333	-5.40000e+01	
			         1.10500	-5.30000e+01	
			         1.10667	-5.10000e+01	
			         1.10833	-5.10000e+01	
			         1.11000	-5.00000e+01	
			         1.11167	-5.00000e+01	
			         1.11333	-4.90000e+01	
			         1.11500	-4.90000e+01	
			         1.11667	-4.70000e+01	
			         1.11833	-4.60000e+01	
			         1.12000	-4.40000e+01	
			         1.12167	-4.20000e+01	
			         1.12333	-3.90000e+01	
			         1.12500	-3.70000e+01	
			         1.12667	-3.40000e+01	
			         1.12833	-3.10000e+01	
			         1.13000	-2.80000e+01	
			         1.13167	-2.50000e+01	
			         1.13333	-2.30000e+01	
			         1.13500	-2.00000e+01	
			         1.13667	-1.80000e+01	
			         1.13833	-1.70000e+01	
			         1.14000	-1.50000e+01	
			         1.14167	-1.50000e+01	
			         1.14333	-1.40000e+01	
			         1.14500	-1.30000e+01	
			         1.14667	-1.20000e+01	
			         1.14833	-1.10000e+01	
			         1.15000	-1.00000e+01	
			         1.15167	-9.00000e+00	
			         1.15333	-8.00000e+00	
			         1.15500	-6.00000e+00	
			         1.15667	-5.00000e+00	
			         1.15833	-3.00000e+00	
			         1.16000	-2.00000e+00	
			         1.16167	-1.00000e+00	
			         1.16333	1.00000e+00	
			         1.16500	2.00000e+00	
			         1.16667	4.00000e+00	
			         1.16833	6.00000e+00	
			         1.17000	8.00000e+00	
			         1.17167	1.00000e+01	
			         1.17333	1.20000e+01	
			         1.17500	1.50000e+01	
			         1.17667	1.80000e+01	
			         1.17833	2.10000e+01	
			         1.18000	2.40000e+01	
			         1.18167	2.70000e+01	
			         1.18333	3.10000e+01	
			         1.18500	3.40000e+01	
			         1.18667	3.70000e+01	
			         1.18833	4.00000e+01	
			         1.19000	4.30000e+01	
			         1.19167	4.60000e+01	
			         1.19333	4.80000e+01	
			         1.19500	5.10000e+01	
			         1.19667	5.30000e+01	
			         1.19833	5.60000e+01	
			         1.20000	5.80000e+01	
			         1.20167	6.10000e+01	
			         1.20333	6.30000e+01	
			         1.20500	6.60000e+01	
			         1.20667	6.80000e+01	
			         1.20833	7.10000e+01	
			         1.21000	7.40000e+01	
			         1.21167	7.70000e+01	
			         1.21333	8.10000e+01	
			         1.21500	8.50000e+01	
			         1.21667	8.90000e+01	
			         1.21833	9.30000e+01	
			         1.22000	9.70000e+01	
			         1.22167	1.01000e+02	
			         1.22333	1.05000e+02	
			         1.22500	1.09000e+02	
			         1.22667	1.13000e+02	
			         1.22833	1.17000e+02	
			         1.23000	1.20000e+02	
			         1.23167	1.24000e+02	
			         1.23333	1.26000e+02	
			         1.23500	1.28000e+02	
			         1.23667	1.30000e+02	
			         1.23833	1.31000e+02	
			         1.24000	1.32000e+02	
			         1.24167	1.33000e+02	
			         1.24333	1.34000e+02	
			         1.24500	1.34000e+02	
			         1.24667	1.35000e+02	
			         1.24833	1.35000e+02	
			         1.25000	1.36000e+02	
			         1.25167	1.36000e+02	
			         1.25333	1.37000e+02	
			         1.25500	1.37000e+02	
			         1.25667	1.37000e+02	
			         1.25833	1.37000e+02	
			         1.26000	1.37000e+02	
			         1.26167	1.36000e+02	
			         1.26333	1.35000e+02	
			         1.26500	1.33000e+02	
			         1.26667	1.31000e+02	
			         1.26833	1.28000e+02	
			         1.27000	1.25000e+02	
			         1.27167	1.21000e+02	
			         1.27333	1.17000e+02	
			         1.27500	1.12000e+02	
			         1.27667	1.08000e+02	
			         1.27833	1.02000e+02	
			         1.28000	9.70000e+01	
			         1.28167	9.10000e+01	
			         1.28333	8.50000e+01	
			         1.28500	7.90000e+01	
			         1.28667	7.20000e+01	
			         1.28833	6.50000e+01	
			         1.29000	5.80000e+01	
			         1.29167	5.00000e+01	
			         1.29333	4.20000e+01	
			         1.29500	3.40000e+01	
			         1.29667	2.60000e+01	
			         1.29833	1.70000e+01	
			         1.30000	8.00000e+00	
			         1.30167	0.00000e+00	
			         1.30333	-9.00000e+00	
			         1.30500	-1.70000e+01	
			         1.30667	-2.50000e+01	
			         1.30833	-3.40000e+01	
			         1.31000	-4.10000e+01	
			         1.31167	-4.90000e+01	
			         1.31333	-5.60000e+01	
			         1.31500	-6.30000e+01	
			         1.31667	-6.90000e+01	
			         1.31833	-7.60000e+01	
			         1.32000	-8.20000e+01	
			         1.32167	-8.70000e+01	
			         1.32333	-9.20000e+01	
			         1.32500	-9.60000e+01	
			         1.32667	-1.00000e+02	
			         1.32833	-1.02000e+02	
			         1.33000	-1.05000e+02	
			         1.33167	-1.06000e+02	
			         1.33333	-1.07000e+02	
			         1.33500	-1.07000e+02	
			         1.33667	-1.07000e+02	
			         1.33833	-1.06000e+02	
			         1.34000	-1.05000e+02	
			         1.34167	-1.04000e+02	
			         1.34333	-1.02000e+02	
			         1.34500	-1.01000e+02	
			         1.34667	-9.90000e+01	
			         1.34833	-9.80000e+01	
			         1.35000	-9.70000e+01	
			         1.35167	-9.60000e+01	
			         1.35333	-9.50000e+01	
			         1.35500	-9.50000e+01	
			         1.35667	-9.40000e+01	
			         1.35833	-9.30000e+01	
			         1.36000	-9.20000e+01	
			         1.36167	-9.10000e+01	
			         1.36333	-9.00000e+01	
			         1.36500	-8.90000e+01	
			         1.36667	-8.70000e+01	
			         1.36833	-8.60000e+01	
			         1.37000	-8.40000e+01	
			         1.37167	-8.30000e+01	
			         1.37333	-8.10000e+01	
			         1.37500	-7.90000e+01	
			         1.37667	-7.70000e+01	
			         1.37833	-7.50000e+01	
			         1.38000	-7.40000e+01	
			         1.38167	-7.20000e+01	
			         1.38333	-7.00000e+01	
			         1.38500	-6.80000e+01	
			         1.38667	-6.50000e+01	
			         1.38833	-6.30000e+01	
			         1.39000	-6.00000e+01	
			         1.39167	-5.80000e+01	
			         1.39333	-5.50000e+01	
			         1.39500	-5.30000e+01	
			         1.39667	-5.10000e+01	
			         1.39833	-4.90000e+01	
			         1.40000	-4.70000e+01	
			         1.40167	-4.60000e+01	
			         1.40333	-4.40000e+01	
			         1.40500	-4.30000e+01	
			         1.40667	-4.20000e+01	
			         1.40833	-4.10000e+01	
			         1.41000	-4.00000e+01	
			         1.41167	-3.90000e+01	
			         1.41333	-3.90000e+01	
			         1.41500	-3.70000e+01	
			         1.41667	-3.60000e+01	
			         1.41833	-3.50000e+01	
			         1.42000	-3.30000e+01	
			         1.42167	-3.20000e+01	
			         1.42333	-3.10000e+01	
			         1.42500	-2.90000e+01	
			         1.42667	-2.80000e+01	
			         1.42833	-2.70000e+01	
			         1.43000	-2.60000e+01	
			         1.43167	-2.40000e+01	
			         1.43333	-2.30000e+01	
			         1.43500	-2.10000e+01	
			         1.43667	-2.00000e+01	
			         1.43833	-1.80000e+01	
			         1.44000	-1.70000e+01	
			         1.44167	-1.60000e+01	
			         1.44333	-1.50000e+01	
			         1.44500	-1.30000e+01	
			         1.44667	-1.20000e+01	
			         1.44833	-1.10000e+01	
			         1.45000	-1.00000e+01	
			         1.45167	-9.00000e+00	
			         1.45333	-9.00000e+00	
			         1.45500	-9.00000e+00	
			         1.45667	-9.00000e+00	
			         1.45833	-9.00000e+00	
			         1.46000	-9.00000e+00	
			         1.46167	-9.00000e+00	
			         1.46333	-1.00000e+01	
			         1.46500	-1.00000e+01	
			         1.46667	-1.10000e+01	
			         1.46833	-1.10000e+01	
			         1.47000	-1.10000e+01	
			         1.47167	-1.20000e+01	
			         1.47333	-1.20000e+01	
			         1.47500	-1.10000e+01	
			         1.47667	-1.10000e+01	
			         1.47833	-1.00000e+01	
			         1.48000	-9.00000e+00	
			         1.48167	-7.00000e+00	
			         1.48333	-6.00000e+00	
			         1.48500	-4.00000e+00	
			         1.48667	-3.00000e+00	
			         1.48833	-2.00000e+00	
			         1.49000	-1.00000e+00	
			         1.49167	0.00000e+00	
			         1.49333	0.00000e+00	
			         1.49500	0.00000e+00	
			         1.49667	0.00000e+00	
			         1.49833	-1.00000e+00	
			         1.50000	-2.00000e+00	
			         1.50167	-3.00000e+00	
			         1.50333	-5.00000e+00	
			         1.50500	-6.00000e+00	
			         1.50667	-7.00000e+00	
			         1.50833	-8.00000e+00	
			         1.51000	-9.00000e+00	
			         1.51167	-1.00000e+01	
			         1.51333	-1.10000e+01	
			         1.51500	-1.10000e+01	
			         1.51667	-1.20000e+01	
			         1.51833	-1.30000e+01	
			         1.52000	-1.40000e+01	
			         1.52167	-1.50000e+01	
			         1.52333	-1.60000e+01	
			         1.52500	-1.70000e+01	
			         1.52667	-1.80000e+01	
			         1.52833	-1.80000e+01	
			         1.53000	-1.80000e+01	
			         1.53167	-1.80000e+01	
			         1.53333	-1.70000e+01	
			         1.53500	-1.70000e+01	
			         1.53667	-1.60000e+01	
			         1.53833	-1.60000e+01	
			         1.54000	-1.50000e+01	
			         1.54167	-1.50000e+01	
			         1.54333	-1.50000e+01	
			         1.54500	-1.50000e+01	
			         1.54667	-1.50000e+01	
			         1.54833	-1.50000e+01	
			         1.55000	-1.50000e+01	
			         1.55167	-1.60000e+01	
			         1.55333	-1.70000e+01	
			         1.55500	-1.80000e+01	
			         1.55667	-1.90000e+01	
			         1.55833	-1.90000e+01	
			         1.56000	-2.00000e+01	
			         1.56167	-2.00000e+01	
			         1.56333	-2.00000e+01	
			         1.56500	-2.00000e+01	
			         1.56667	-2.00000e+01	
			         1.56833	-1.90000e+01	
			         1.57000	-1.90000e+01	
			         1.57167	-1.80000e+01	
			         1.57333	-1.70000e+01	
			         1.57500	-1.50000e+01	
			         1.57667	-1.40000e+01	
			         1.57833	-1.30000e+01	
			         1.58000	-1.20000e+01	
			         1.58167	-1.10000e+01	
			         1.58333	-1.00000e+01	
			         1.58500	-9.00000e+00	
			         1.58667	-9.00000e+00	
			         1.58833	-9.00000e+00	
			         1.59000	-9.00000e+00	
			         1.59167	-1.00000e+01	
			         1.59333	-1.00000e+01	
			         1.59500	-1.10000e+01	
			         1.59667	-1.10000e+01	
			         1.59833	-1.10000e+01	
			         1.60000	-1.20000e+01	
			         1.60167	-1.20000e+01	
			         1.60333	-1.20000e+01	
			         1.60500	-1.20000e+01	
			         1.60667	-1.20000e+01	
			         1.60833	-1.20000e+01	
			         1.61000	-1.20000e+01	
			         1.61167	-1.20000e+01	
			         1.61333	-1.20000e+01	
			         1.61500	-1.20000e+01	
			         1.61667	-1.20000e+01	
			         1.61833	-1.20000e+01	
			         1.62000	-1.20000e+01	
			         1.62167	-1.20000e+01	
			         1.62333	-1.20000e+01	
			         1.62500	-1.20000e+01	
			         1.62667	-1.20000e+01	
			         1.62833	-1.20000e+01	
			         1.63000	-1.10000e+01	
			         1.63167	-1.10000e+01	
			         1.63333	-1.00000e+01	
			         1.63500	-1.00000e+01	
			         1.63667	-9.00000e+00	
			         1.63833	-9.00000e+00	
			         1.64000	-8.00000e+00	
			         1.64167	-8.00000e+00	
			         1.64333	-7.00000e+00	
			         1.64500	-7.00000e+00	
			         1.64667	-7.00000e+00	
			         1.64833	-7.00000e+00	
			         1.65000	-7.00000e+00	
			         1.65167	-7.00000e+00	
			         1.65333	-7.00000e+00	
			         1.65500	-7.00000e+00	
			         1.65667	-6.00000e+00	
			         1.65833	-6.00000e+00	
			         1.66000	-7.00000e+00	
			         1.66167	-7.00000e+00	
			         1.66333	-7.00000e+00	
			         1.66500	-7.00000e+00	
			         1.66667	-8.00000e+00	
			         1.66833	-8.00000e+00	
			         1.67000	-9.00000e+00	
			         1.67167	-9.00000e+00	
			         1.67333	-9.00000e+00	
			         1.67500	-9.00000e+00	
			         1.67667	-9.00000e+00	
			         1.67833	-9.00000e+00	
			         1.68000	-9.00000e+00	
			         1.68167	-9.00000e+00	
			         1.68333	-1.00000e+01	
			         1.68500	-1.00000e+01	
			         1.68667	-1.00000e+01	
			         1.68833	-1.00000e+01	
			         1.69000	-1.10000e+01	
			         1.69167	-1.10000e+01	
			         1.69333	-1.10000e+01	
			         1.69500	-1.10000e+01	
			         1.69667	-1.10000e+01	
			         1.69833	-1.10000e+01	
			         1.70000	-1.10000e+01	
			         1.70167	-1.00000e+01	
			         1.70333	-9.00000e+00	
			         1.70500	-8.00000e+00	
			         1.70667	-6.00000e+00	
			         1.70833	-3.00000e+00	
			         1.71000	0.00000e+00	
			         1.71167	3.00000e+00	
			         1.71333	7.00000e+00	
			         1.71500	1.10000e+01	
			         1.71667	1.50000e+01	
			         1.71833	2.00000e+01	
			         1.72000	2.50000e+01	
			         1.72167	3.00000e+01	
			         1.72333	3.40000e+01	
			         1.72500	3.90000e+01	
			         1.72667	4.40000e+01	
			         1.72833	4.80000e+01	
			         1.73000	5.20000e+01	
			         1.73167	5.60000e+01	
			         1.73333	5.90000e+01	
			         1.73500	6.20000e+01	
			         1.73667	6.40000e+01	
			         1.73833	6.60000e+01	
			         1.74000	6.80000e+01	
			         1.74167	6.90000e+01	
			         1.74333	7.00000e+01	
			         1.74500	7.00000e+01	
			         1.74667	7.00000e+01	
			         1.74833	6.90000e+01	
			         1.75000	6.80000e+01	
			         1.75167	6.70000e+01	
			         1.75333	6.50000e+01	
			         1.75500	6.20000e+01	
			         1.75667	6.00000e+01	
			         1.75833	5.70000e+01	
			         1.76000	5.40000e+01	
			         1.76167	5.20000e+01	
			         1.76333	4.90000e+01	
			         1.76500	4.70000e+01	
			         1.76667	4.40000e+01	
			         1.76833	4.20000e+01	
			         1.77000	4.00000e+01	
			         1.77167	3.80000e+01	
			         1.77333	3.50000e+01	
			         1.77500	3.20000e+01	
			         1.77667	3.00000e+01	
			         1.77833	2.60000e+01	
			         1.78000	2.30000e+01	
			         1.78167	1.90000e+01	
			         1.78333	1.50000e+01	
			         1.78500	1.10000e+01	
			         1.78667	7.00000e+00	
			         1.78833	2.00000e+00	
			         1.79000	-2.00000e+00	
			         1.79167	-6.00000e+00	
			         1.79333	-9.00000e+00	
			         1.79500	-1.20000e+01	
			         1.79667	-1.40000e+01	
			         1.79833	-1.60000e+01	
			         1.80000	-1.80000e+01	
			         1.80167	-1.90000e+01	
			         1.80333	-2.00000e+01	
			         1.80500	-2.10000e+01	
			         1.80667	-2.20000e+01	
			         1.80833	-2.40000e+01	
			         1.81000	-2.60000e+01	
			         1.81167	-2.80000e+01	
			         1.81333	-3.00000e+01	
			         1.81500	-3.30000e+01	
			         1.81667	-3.60000e+01	
			         1.81833	-3.90000e+01	
			         1.82000	-4.30000e+01	
			         1.82167	-4.70000e+01	
			         1.82333	-5.00000e+01	
			         1.82500	-5.40000e+01	
			         1.82667	-5.70000e+01	
			         1.82833	-5.90000e+01	
			         1.83000	-6.10000e+01	
			         1.83167	-6.30000e+01	
			         1.83333	-6.40000e+01	
			         1.83500	-6.50000e+01	
			         1.83667	-6.50000e+01	
			         1.83833	-6.50000e+01	
			         1.84000	-6.50000e+01	
			         1.84167	-6.50000e+01	
			         1.84333	-6.40000e+01	
			         1.84500	-6.30000e+01	
			         1.84667	-6.20000e+01	
			         1.84833	-6.10000e+01	
			         1.85000	-5.90000e+01	
			         1.85167	-5.80000e+01	
			         1.85333	-5.70000e+01	
			         1.85500	-5.50000e+01	
			         1.85667	-5.40000e+01	
			         1.85833	-5.30000e+01	
			         1.86000	-5.10000e+01	
			         1.86167	-5.00000e+01	
			         1.86333	-4.90000e+01	
			         1.86500	-4.70000e+01	
			         1.86667	-4.60000e+01	
			         1.86833	-4.40000e+01	
			         1.87000	-4.20000e+01	
			         1.87167	-4.10000e+01	
			         1.87333	-3.90000e+01	
			         1.87500	-3.80000e+01	
			         1.87667	-3.70000e+01	
			         1.87833	-3.50000e+01	
			         1.88000	-3.40000e+01	
			         1.88167	-3.20000e+01	
			         1.88333	-3.10000e+01	
			         1.88500	-2.80000e+01	
			         1.88667	-2.40000e+01	
			         1.88833	-1.90000e+01	
			         1.89000	-1.00000e+01	
			         1.89167	2.00000e+00	
			         1.89333	1.90000e+01	
			         1.89500	4.30000e+01	
			         1.89667	7.40000e+01	
			         1.89833	1.12000e+02	
			         1.90000	1.57000e+02	
			         1.90167	2.11000e+02	
			         1.90333	2.71000e+02	
			         1.90500	3.37000e+02	
			         1.90667	4.06000e+02	
			         1.90833	4.78000e+02	
			         1.91000	5.49000e+02	
			         1.91167	6.17000e+02	
			         1.91333	6.78000e+02	
			         1.91500	7.29000e+02	
			         1.91667	7.67000e+02	
			         1.91833	7.89000e+02	
			         1.92000	7.95000e+02	
			         1.92167	7.83000e+02	
			         1.92333	7.54000e+02	
			         1.92500	7.07000e+02	
			         1.92667	6.46000e+02	
			         1.92833	5.71000e+02	
			         1.93000	4.87000e+02	
			         1.93167	3.96000e+02	
			         1.93333	3.02000e+02	
			         1.93500	2.08000e+02	
			         1.93667	1.17000e+02	
			         1.93833	3.40000e+01	
			         1.94000	-4.10000e+01	
			         1.94167	-1.06000e+02	
			         1.94333	-1.61000e+02	
			         1.94500	-2.04000e+02	
			         1.94667	-2.36000e+02	
			         1.94833	-2.59000e+02	
			         1.95000	-2.72000e+02	
			         1.95167	-2.78000e+02	
			         1.95333	-2.79000e+02	
			         1.95500	-2.74000e+02	
			         1.95667	-2.67000e+02	
			         1.95833	-2.57000e+02	
			         1.96000	-2.46000e+02	
			         1.96167	-2.34000e+02	
			         1.96333	-2.22000e+02	
			         1.96500	-2.11000e+02	
			         1.96667	-2.00000e+02	
			         1.96833	-1.90000e+02	
			         1.97000	-1.81000e+02	
			         1.97167	-1.74000e+02	
			         1.97333	-1.67000e+02	
			         1.97500	-1.62000e+02	
			         1.97667	-1.57000e+02	
			         1.97833	-1.53000e+02	
			         1.98000	-1.50000e+02	
			         1.98167	-1.47000e+02	
			         1.98333	-1.45000e+02	
			         1.98500	-1.43000e+02	
			         1.98667	-1.41000e+02	
			         1.98833	-1.39000e+02	
			         1.99000	-1.36000e+02	
			         1.99167	-1.34000e+02	
			         1.99333	-1.31000e+02	
			         1.99500	-1.28000e+02	
			         1.99667	-1.25000e+02	
			         1.99833	-1.22000e+02	
			         2.00000	-1.19000e+02	
			         2.00167	-1.17000e+02	
			         2.00333	-1.14000e+02	
			         2.00500	-1.12000e+02	
			         2.00667	-1.10000e+02	
			         2.00833	-1.08000e+02	
			         2.01000	-1.05000e+02	
			         2.01167	-1.03000e+02	
			         2.01333	-1.01000e+02	
			         2.01500	-9.90000e+01	
			         2.01667	-9.70000e+01	
			         2.01833	-9.50000e+01	
			         2.02000	-9.20000e+01	
			         2.02167	-9.00000e+01	
			         2.02333	-8.80000e+01	
			         2.02500	-8.50000e+01	
			         2.02667	-8.30000e+01	
			         2.02833	-8.00000e+01	
			         2.03000	-7.70000e+01	
			         2.03167	-7.50000e+01	
			         2.03333	-7.20000e+01	
			         2.03500	-7.00000e+01	
			         2.03667	-6.70000e+01	
			         2.03833	-6.50000e+01	
			         2.04000	-6.30000e+01	
			         2.04167	-6.10000e+01	
			         2.04333	-5.90000e+01	
			         2.04500	-5.80000e+01	
			         2.04667	-5.70000e+01	
			         2.04833	-5.50000e+01	
			         2.05000	-5.40000e+01	
			         2.05167	-5.30000e+01	
			         2.05333	-5.10000e+01	
			         2.05500	-5.00000e+01	
			         2.05667	-4.80000e+01	
			         2.05833	-4.60000e+01	
			         2.06000	-4.30000e+01	
			         2.06167	-4.10000e+01	
			         2.06333	-3.80000e+01	
			         2.06500	-3.50000e+01	
			         2.06667	-3.10000e+01	
			         2.06833	-2.80000e+01	
			         2.07000	-2.50000e+01	
			         2.07167	-2.20000e+01	
			         2.07333	-2.00000e+01	
			         2.07500	-1.80000e+01	
			         2.07667	-1.60000e+01	
			         2.07833	-1.40000e+01	
			         2.08000	-1.30000e+01	
			         2.08167	-1.20000e+01	
			         2.08333	-1.10000e+01	
			         2.08500	-1.00000e+01	
			         2.08667	-1.00000e+01	
			         2.08833	-1.00000e+01	
			         2.09000	-9.00000e+00	
			         2.09167	-8.00000e+00	
			         2.09333	-7.00000e+00	
			         2.09500	-6.00000e+00	
			         2.09667	-5.00000e+00	
			         2.09833	-3.00000e+00	
			         2.10000	-1.00000e+00	
			         2.10167	0.00000e+00	
			         2.10333	2.00000e+00	
			         2.10500	5.00000e+00	
			         2.10667	7.00000e+00	
			         2.10833	9.00000e+00	
			         2.11000	1.20000e+01	
			         2.11167	1.40000e+01	
			         2.11333	1.60000e+01	
			         2.11500	1.90000e+01	
			         2.11667	2.10000e+01	
			         2.11833	2.30000e+01	
			         2.12000	2.60000e+01	
			         2.12167	2.80000e+01	
			         2.12333	3.00000e+01	
			         2.12500	3.30000e+01	
			         2.12667	3.50000e+01	
			         2.12833	3.80000e+01	
			         2.13000	4.10000e+01	
			         2.13167	4.40000e+01	
			         2.13333	4.70000e+01	
			         2.13500	5.10000e+01	
			         2.13667	5.40000e+01	
			         2.13833	5.80000e+01	
			         2.14000	6.10000e+01	
			         2.14167	6.50000e+01	
			         2.14333	6.90000e+01	
			         2.14500	7.30000e+01	
			         2.14667	7.60000e+01	
			         2.14833	8.00000e+01	
			         2.15000	8.40000e+01	
			         2.15167	8.80000e+01	
			         2.15333	9.10000e+01	
			         2.15500	9.40000e+01	
			         2.15667	9.70000e+01	
			         2.15833	1.00000e+02	
			         2.16000	1.03000e+02	
			         2.16167	1.06000e+02	
			         2.16333	1.08000e+02	
			         2.16500	1.10000e+02	
			         2.16667	1.13000e+02	
			         2.16833	1.15000e+02	
			         2.17000	1.17000e+02	
			         2.17167	1.19000e+02	
			         2.17333	1.20000e+02	
			         2.17500	1.22000e+02	
			         2.17667	1.23000e+02	
			         2.17833	1.24000e+02	
			         2.18000	1.25000e+02	
			         2.18167	1.26000e+02	
			         2.18333	1.27000e+02	
			         2.18500	1.28000e+02	
			         2.18667	1.29000e+02	
			         2.18833	1.29000e+02	
			         2.19000	1.30000e+02	
			         2.19167	1.30000e+02	
			         2.19333	1.30000e+02	
			         2.19500	1.30000e+02	
			         2.19667	1.30000e+02	
			         2.19833	1.30000e+02	
			         2.20000	1.29000e+02	
			         2.20167	1.28000e+02	
			         2.20333	1.27000e+02	
			         2.20500	1.25000e+02	
			         2.20667	1.23000e+02	
			         2.20833	1.20000e+02	
			         2.21000	1.16000e+02	
			         2.21167	1.12000e+02	
			         2.21333	1.07000e+02	
			         2.21500	1.02000e+02	
			         2.21667	9.70000e+01	
			         2.21833	9.00000e+01	
			         2.22000	8.40000e+01	
			         2.22167	7.70000e+01	
			         2.22333	6.90000e+01	
			         2.22500	6.10000e+01	
			         2.22667	5.20000e+01	
			         2.22833	4.40000e+01	
			         2.23000	3.50000e+01	
			         2.23167	2.70000e+01	
			         2.23333	1.80000e+01	
			         2.23500	9.00000e+00	
			         2.23667	1.00000e+00	
			         2.23833	-8.00000e+00	
			         2.24000	-1.60000e+01	
			         2.24167	-2.40000e+01	
			         2.24333	-3.20000e+01	
			         2.24500	-3.90000e+01	
			         2.24667	-4.60000e+01	
			         2.24833	-5.20000e+01	
			         2.25000	-5.80000e+01	
			         2.25167	-6.40000e+01	
			         2.25333	-7.00000e+01	
			         2.25500	-7.50000e+01	
			         2.25667	-8.00000e+01	
			         2.25833	-8.40000e+01	
			         2.26000	-8.90000e+01	
			         2.26167	-9.20000e+01	
			         2.26333	-9.60000e+01	
			         2.26500	-9.90000e+01	
			         2.26667	-1.02000e+02	
			         2.26833	-1.04000e+02	
			         2.27000	-1.06000e+02	
			         2.27167	-1.07000e+02	
			         2.27333	-1.08000e+02	
			         2.27500	-1.08000e+02	
			         2.27667	-1.08000e+02	
			         2.27833	-1.08000e+02	
			         2.28000	-1.07000e+02	
			         2.28167	-1.06000e+02	
			         2.28333	-1.06000e+02	
			         2.28500	-1.05000e+02	
			         2.28667	-1.04000e+02	
			         2.28833	-1.04000e+02	
			         2.29000	-1.03000e+02	
			         2.29167	-1.03000e+02	
			         2.29333	-1.03000e+02	
			         2.29500	-1.03000e+02	
			         2.29667	-1.02000e+02	
			         2.29833	-1.02000e+02	
			         2.30000	-1.00000e+02	
			         2.30167	-9.90000e+01	
			         2.30333	-9.80000e+01	
			         2.30500	-9.60000e+01	
			         2.30667	-9.40000e+01	
			         2.30833	-9.10000e+01	
			         2.31000	-8.90000e+01	
			         2.31167	-8.60000e+01	
			         2.31333	-8.40000e+01	
			         2.31500	-8.20000e+01	
			         2.31667	-8.00000e+01	
			         2.31833	-7.80000e+01	
			         2.32000	-7.60000e+01	
			         2.32167	-7.50000e+01	
			         2.32333	-7.40000e+01	
			         2.32500	-7.30000e+01	
			         2.32667	-7.20000e+01	
			         2.32833	-7.00000e+01	
			         2.33000	-6.90000e+01	
			         2.33167	-6.70000e+01	
			         2.33333	-6.60000e+01	
			         2.33500	-6.40000e+01	
			         2.33667	-6.20000e+01	
			         2.33833	-5.90000e+01	
			         2.34000	-5.70000e+01	
			         2.34167	-5.40000e+01	
			         2.34333	-5.20000e+01	
			         2.34500	-4.90000e+01	
			         2.34667	-4.70000e+01	
			         2.34833	-4.50000e+01	
			         2.35000	-4.30000e+01	
			         2.35167	-4.00000e+01	
			         2.35333	-3.90000e+01	
			         2.35500	-3.70000e+01	
			         2.35667	-3.50000e+01	
			         2.35833	-3.40000e+01	
			         2.36000	-3.30000e+01	
			         2.36167	-3.30000e+01	
			         2.36333	-3.20000e+01	
			         2.36500	-3.10000e+01	
			         2.36667	-3.00000e+01	
			         2.36833	-3.00000e+01	
			         2.37000	-2.90000e+01	
			         2.37167	-2.80000e+01	
			         2.37333	-2.70000e+01	
			         2.37500	-2.70000e+01	
			         2.37667	-2.60000e+01	
			         2.37833	-2.50000e+01	
			         2.38000	-2.50000e+01	
			         2.38167	-2.40000e+01	
			         2.38333	-2.30000e+01	
			         2.38500	-2.30000e+01	
			         2.38667	-2.30000e+01	
			         2.38833	-2.30000e+01	
			         2.39000	-2.20000e+01	
			         2.39167	-2.20000e+01	
			         2.39333	-2.20000e+01	
			         2.39500	-2.20000e+01	
			         2.39667	-2.10000e+01	
			         2.39833	-2.10000e+01	
			         2.40000	-2.10000e+01	
			         2.40167	-2.00000e+01	
			         2.40333	-2.00000e+01	
			         2.40500	-1.90000e+01	
			         2.40667	-1.90000e+01	
			         2.40833	-1.90000e+01	
			         2.41000	-1.80000e+01	
			         2.41167	-1.80000e+01	
			         2.41333	-1.80000e+01	
			         2.41500	-1.70000e+01	
			         2.41667	-1.70000e+01	
			         2.41833	-1.70000e+01	
			         2.42000	-1.60000e+01	
			         2.42167	-1.60000e+01	
			         2.42333	-1.50000e+01	
			         2.42500	-1.50000e+01	
			         2.42667	-1.50000e+01	
			         2.42833	-1.40000e+01	
			         2.43000	-1.50000e+01	
			         2.43167	-1.50000e+01	
			         2.43333	-1.60000e+01	
			         2.43500	-1.70000e+01	
			         2.43667	-1.80000e+01	
			         2.43833	-1.90000e+01	
			         2.44000	-2.00000e+01	
			         2.44167	-2.10000e+01	
			         2.44333	-2.20000e+01	
			         2.44500	-2.30000e+01	
			         2.44667	-2.30000e+01	
			         2.44833	-2.40000e+01	
			         2.45000	-2.30000e+01	
			         2.45167	-2.30000e+01	
			         2.45333	-2.20000e+01	
			         2.45500	-2.10000e+01	
			         2.45667	-1.90000e+01	
			         2.45833	-1.80000e+01	
			         2.46000	-1.70000e+01	
			         2.46167	-1.60000e+01	
			         2.46333	-1.50000e+01	
			         2.46500	-1.40000e+01	
			         2.46667	-1.40000e+01	
			         2.46833	-1.40000e+01	
			         2.47000	-1.50000e+01	
			         2.47167	-1.50000e+01	
			         2.47333	-1.60000e+01	
			         2.47500	-1.70000e+01	
			         2.47667	-1.80000e+01	
			         2.47833	-1.80000e+01	
			         2.48000	-1.90000e+01	
			         2.48167	-1.90000e+01	
			         2.48333	-1.90000e+01	
			         2.48500	-1.80000e+01	
			         2.48667	-1.80000e+01	
			         2.48833	-1.70000e+01	
			         2.49000	-1.70000e+01	
			         2.49167	-1.70000e+01	
			         2.49333	-1.60000e+01	
			         2.49500	-1.70000e+01	
			         2.49667	-1.70000e+01	
			         2.49833	-1.80000e+01	
			         2.50000	-1.90000e+01	
			         2.50167	-2.00000e+01	
			         2.50333	-2.10000e+01	
			         2.50500	-2.20000e+01	
			         2.50667	-2.30000e+01	
			         2.50833	-2.30000e+01	
			         2.51000	-2.40000e+01	
			         2.51167	-2.30000e+01	
			         2.51333	-2.30000e+01	
			         2.51500	-2.20000e+01	
			         2.51667	-2.10000e+01	
			         2.51833	-1.90000e+01	
			         2.52000	-1.80000e+01	
			         2.52167	-1.70000e+01	
			         2.52333	-1.60000e+01	
			         2.52500	-1.60000e+01	
			         2.52667	-1.50000e+01	
			         2.52833	-1.60000e+01	
			         2.53000	-1.60000e+01	
			         2.53167	-1.70000e+01	
			         2.53333	-1.80000e+01	
			         2.53500	-1.90000e+01	
			         2.53667	-2.00000e+01	
			         2.53833	-2.10000e+01	
			         2.54000	-2.30000e+01	
			         2.54167	-2.40000e+01	
			         2.54333	-2.40000e+01	
			         2.54500	-2.50000e+01	
			         2.54667	-2.50000e+01	
			         2.54833	-2.50000e+01	
			         2.55000	-2.50000e+01	
			         2.55167	-2.50000e+01	
			         2.55333	-2.40000e+01	
			         2.55500	-2.40000e+01	
			         2.55667	-2.40000e+01	
			         2.55833	-2.40000e+01	
			         2.56000	-2.40000e+01	
			         2.56167	-2.40000e+01	
			         2.56333	-2.30000e+01	
			         2.56500	-2.30000e+01	
			         2.56667	-2.20000e+01	
			         2.56833	-2.20000e+01	
			         2.57000	-2.10000e+01	
			         2.57167	-2.10000e+01	
			         2.57333	-2.00000e+01	
			         2.57500	-1.90000e+01	
			         2.57667	-1.90000e+01	
			         2.57833	-1.80000e+01	
			         2.58000	-1.80000e+01	
			         2.58167	-1.80000e+01	
			         2.58333	-1.80000e+01	
			         2.58500	-1.80000e+01	
			         2.58667	-1.80000e+01	
			         2.58833	-1.80000e+01	
			         2.59000	-1.80000e+01	
			         2.59167	-1.80000e+01	
			         2.59333	-1.80000e+01	
			         2.59500	-1.80000e+01	
			         2.59667	-1.80000e+01	
			         2.59833	-1.70000e+01	
			         2.60000	-1.70000e+01	
			         2.60167	-1.70000e+01	
			         2.60333	-1.60000e+01	
			         2.60500	-1.60000e+01	
			         2.60667	-1.60000e+01	
			         2.60833	-1.60000e+01	
			         2.61000	-1.60000e+01	
			         2.61167	-1.70000e+01	
			         2.61333	-1.70000e+01	
			         2.61500	-1.70000e+01	
			         2.61667	-1.70000e+01	
			         2.61833	-1.70000e+01	
			         2.62000	-1.70000e+01	
			         2.62167	-1.70000e+01	
			         2.62333	-1.60000e+01	
			         2.62500	-1.50000e+01	
			         2.62667	-1.50000e+01	
			         2.62833	-1.30000e+01	
			         2.63000	-1.20000e+01	
			         2.63167	-1.00000e+01	
			         2.63333	-8.00000e+00	
			         2.63500	-5.00000e+00	
			         2.63667	-3.00000e+00	
			         2.63833	0.00000e+00	
			         2.64000	3.00000e+00	
			         2.64167	6.00000e+00	
			         2.64333	1.00000e+01	
			         2.64500	1.40000e+01	
			         2.64667	1.80000e+01	
			         2.64833	2.20000e+01	
			         2.65000	2.60000e+01	
			         2.65167	3.00000e+01	
			         2.65333	3.40000e+01	
			         2.65500	3.80000e+01	
			         2.65667	4.10000e+01	
			         2.65833	4.40000e+01	
			         2.66000	4.70000e+01	
			         2.66167	4.90000e+01	
			         2.66333	5.20000e+01	
			         2.66500	5.40000e+01	
			         2.66667	5.60000e+01	
			         2.66833	5.80000e+01	
			         2.67000	6.00000e+01	
			         2.67167	6.20000e+01	
			         2.67333	6.30000e+01	
			         2.67500	6.50000e+01	
			         2.67667	6.60000e+01	
			         2.67833	6.70000e+01	
			         2.68000	6.70000e+01	
			         2.68167	6.70000e+01	
			         2.68333	6.60000e+01	
			         2.68500	6.40000e+01	
			         2.68667	6.20000e+01	
			         2.68833	5.90000e+01	
			         2.69000	5.50000e+01	
			         2.69167	5.10000e+01	
			         2.69333	4.70000e+01	
			         2.69500	4.30000e+01	
			         2.69667	3.80000e+01	
			         2.69833	3.40000e+01	
			         2.70000	2.90000e+01	
			         2.70167	2.50000e+01	
			         2.70333	2.00000e+01	
			         2.70500	1.60000e+01	
			         2.70667	1.20000e+01	
			         2.70833	7.00000e+00	
			         2.71000	3.00000e+00	
			         2.71167	-1.00000e+00	
			         2.71333	-5.00000e+00	
			         2.71500	-1.00000e+01	
			         2.71667	-1.40000e+01	
			         2.71833	-1.80000e+01	
			         2.72000	-2.10000e+01	
			         2.72167	-2.40000e+01	
			         2.72333	-2.60000e+01	
			         2.72500	-2.70000e+01	
			         2.72667	-2.90000e+01	
			         2.72833	-3.00000e+01	
			         2.73000	-3.10000e+01	
			         2.73167	-3.20000e+01	
			         2.73333	-3.30000e+01	
			         2.73500	-3.40000e+01	
			         2.73667	-3.50000e+01	
			         2.73833	-3.70000e+01	
			         2.74000	-4.00000e+01	
			         2.74167	-4.30000e+01	
			         2.74333	-4.60000e+01	
			         2.74500	-5.00000e+01	
			         2.74667	-5.40000e+01	
			         2.74833	-5.80000e+01	
			         2.75000	-6.10000e+01	
			         2.75167	-6.40000e+01	
			         2.75333	-6.70000e+01	
			         2.75500	-6.90000e+01	
			         2.75667	-7.00000e+01	
			         2.75833	-7.10000e+01	
			         2.76000	-7.10000e+01	
			         2.76167	-7.10000e+01	
			         2.76333	-7.10000e+01	
			         2.76500	-7.00000e+01	
			         2.76667	-7.00000e+01	
			         2.76833	-6.90000e+01	
			         2.77000	-6.80000e+01	
			         2.77167	-6.70000e+01	
			         2.77333	-6.60000e+01	
			         2.77500	-6.50000e+01	
			         2.77667	-6.40000e+01	
			         2.77833	-6.30000e+01	
			         2.78000	-6.20000e+01	
			         2.78167	-6.10000e+01	
			         2.78333	-6.10000e+01	
			         2.78500	-6.00000e+01	
			         2.78667	-5.90000e+01	
			         2.78833	-5.70000e+01	
			         2.79000	-5.60000e+01	
			         2.79167	-5.40000e+01	
			         2.79333	-5.30000e+01	
			         2.79500	-5.10000e+01	
			         2.79667	-4.90000e+01	
			         2.79833	-4.70000e+01	
			         2.80000	-4.50000e+01	
			         2.80167	-4.30000e+01	
			         2.80333	-4.10000e+01	
			         2.80500	-3.90000e+01	
			         2.80667	-3.70000e+01	
			         2.80833	-3.60000e+01	
			         2.81000	-3.50000e+01	
			         2.81167	-3.40000e+01	
			         2.81333	-3.20000e+01	
			         2.81500	-3.00000e+01	
			         2.81667	-2.70000e+01	
			         2.81833	-2.10000e+01	
			         2.82000	-1.30000e+01	
			         2.82167	0.00000e+00	
			         2.82333	1.80000e+01	
			         2.82500	4.30000e+01	
			         2.82667	7.40000e+01	
			         2.82833	1.13000e+02	
			         2.83000	1.60000e+02	
			         2.83167	2.15000e+02	
			         2.83333	2.75000e+02	
			         2.83500	3.41000e+02	
			         2.83667	4.11000e+02	
			         2.83833	4.82000e+02	
			         2.84000	5.52000e+02	
			         2.84167	6.18000e+02	
			         2.84333	6.76000e+02	
			         2.84500	7.24000e+02	
			         2.84667	7.59000e+02	
			         2.84833	7.78000e+02	
			         2.85000	7.79000e+02	
			         2.85167	7.64000e+02	
			         2.85333	7.30000e+02	
			         2.85500	6.81000e+02	
			         2.85667	6.16000e+02	
			         2.85833	5.40000e+02	
			         2.86000	4.54000e+02	
			         2.86167	3.62000e+02	
			         2.86333	2.68000e+02	
			         2.86500	1.75000e+02	
			         2.86667	8.50000e+01	
			         2.86833	3.00000e+00	
			         2.87000	-7.00000e+01	
			         2.87167	-1.32000e+02	
			         2.87333	-1.84000e+02	
			         2.87500	-2.24000e+02	
			         2.87667	-2.54000e+02	
			         2.87833	-2.75000e+02	
			         2.88000	-2.87000e+02	
			         2.88167	-2.92000e+02	
			         2.88333	-2.92000e+02	
			         2.88500	-2.87000e+02	
			         2.88667	-2.79000e+02	
			         2.88833	-2.69000e+02	
			         2.89000	-2.57000e+02	
			         2.89167	-2.46000e+02	
			         2.89333	-2.34000e+02	
			         2.89500	-2.23000e+02	
			         2.89667	-2.12000e+02	
			         2.89833	-2.03000e+02	
			         2.90000	-1.94000e+02	
			         2.90167	-1.87000e+02	
			         2.90333	-1.80000e+02	
			         2.90500	-1.75000e+02	
			         2.90667	-1.70000e+02	
			         2.90833	-1.66000e+02	
