Velocity (TVI), in cm/s

Time (s) :	Trace 1 : 		Ecg : 		
0.01921   	-3.18105e+00		         0.00000	1.40000e+01	
0.02585   	-3.61859e+00		         0.00167	1.70000e+01	
0.03277   	-4.36198e+00		         0.00333	2.00000e+01	
0.03941   	-3.44565e+00		         0.00500	2.30000e+01	
0.04606   	-2.84060e+00		         0.00667	2.50000e+01	
0.05270   	-2.52856e+00		         0.00833	2.70000e+01	
0.05961   	1.15551e+00		         0.01000	2.90000e+01	
0.06626   	2.01804e+00		         0.01167	2.90000e+01	
0.07290   	1.21948e+00		         0.01333	2.80000e+01	
0.07954   	1.12697e+00		         0.01500	2.60000e+01	
0.08646   	7.84792e-01		         0.01667	2.20000e+01	
0.09311   	-2.33494e+00		         0.01833	1.70000e+01	
0.09975   	-1.76516e+00		         0.02000	1.10000e+01	
0.10639   	-7.49247e-01		         0.02167	3.00000e+00	
0.11331   	-1.56383e-01		         0.02333	-6.00000e+00	
0.11995   	9.59914e-01		         0.02500	-1.50000e+01	
0.12659   	1.94448e+00		         0.02667	-2.50000e+01	
0.13324   	2.53588e+00		         0.02833	-3.60000e+01	
0.14016   	2.69593e+00		         0.03000	-4.60000e+01	
0.14680   	2.86554e+00		         0.03167	-5.60000e+01	
0.15344   	3.05590e+00		         0.03333	-6.40000e+01	
0.16009   	3.17935e+00		         0.03500	-7.20000e+01	
0.16700   	3.34441e+00		         0.03667	-7.80000e+01	
0.17364   	3.46299e+00		         0.03833	-8.20000e+01	
0.18044   	3.56053e+00		         0.04000	-8.40000e+01	
0.18693   	3.54169e+00		         0.04167	-8.40000e+01	
0.19385   	3.47416e+00		         0.04333	-8.20000e+01	
0.20049   	3.49646e+00		         0.04500	-7.80000e+01	
0.20713   	3.46220e+00		         0.04667	-7.30000e+01	
0.21378   	3.41698e+00		         0.04833	-6.60000e+01	
0.22069   	3.41638e+00		         0.05000	-5.90000e+01	
0.22733   	3.47524e+00		         0.05167	-5.00000e+01	
0.23398   	3.40550e+00		         0.05333	-4.20000e+01	
0.24062   	3.38586e+00		         0.05500	-3.30000e+01	
0.24754   	3.36839e+00		         0.05667	-2.40000e+01	
0.25419   	3.37593e+00		         0.05833	-1.60000e+01	
0.26083   	3.30275e+00		         0.06000	-9.00000e+00	
0.26747   	3.26458e+00		         0.06167	-2.00000e+00	
0.27439   	3.13191e+00		         0.06333	4.00000e+00	
0.28103   	3.02461e+00		         0.06500	9.00000e+00	
0.28767   	2.91487e+00		         0.06667	1.30000e+01	
0.29432   	2.82443e+00		         0.06833	1.60000e+01	
0.30123   	2.72886e+00		         0.07000	1.90000e+01	
0.30788   	2.72272e+00		         0.07167	2.10000e+01	
0.31452   	2.69635e+00		         0.07333	2.20000e+01	
0.32116   	2.60566e+00		         0.07500	2.30000e+01	
0.32808   	2.58540e+00		         0.07667	2.40000e+01	
0.33472   	2.54531e+00		         0.07833	2.40000e+01	
0.34137   	2.51900e+00		         0.08000	2.40000e+01	
0.34801   	2.46289e+00		         0.08167	2.40000e+01	
0.35492   	2.47756e+00		         0.08333	2.30000e+01	
0.36157   	2.48148e+00		         0.08500	2.20000e+01	
0.36821   	2.42807e+00		         0.08667	2.10000e+01	
0.37486   	2.35712e+00		         0.08833	2.00000e+01	
0.38177   	2.29572e+00		         0.09000	1.90000e+01	
0.38841   	2.20965e+00		         0.09167	1.80000e+01	
0.39506   	2.08679e+00		         0.09333	1.70000e+01	
0.40170   	1.99970e+00		         0.09500	1.70000e+01	
0.40862   	1.86777e+00		         0.09667	1.60000e+01	
0.41526   	1.70633e+00		         0.09833	1.50000e+01	
0.42190   	1.51188e+00		         0.10000	1.40000e+01	
0.42855   	1.24062e+00		         0.10167	1.40000e+01	
0.43547   	8.36751e-01		         0.10333	1.30000e+01	
0.44211   	3.77819e-01		         0.10500	1.30000e+01	
0.44875   	-1.62781e-01		         0.10667	1.20000e+01	
0.45540   	-7.75132e-01		         0.10833	1.20000e+01	
0.46253   	-1.17817e+00		         0.11000	1.20000e+01	
0.46895   	-8.49949e-01		         0.11167	1.20000e+01	
0.47560   	-4.57901e-01		         0.11333	1.20000e+01	
0.48224   	8.96600e-02		         0.11500	1.20000e+01	
0.48916   	8.10316e-01		         0.11667	1.20000e+01	
0.49585   	1.52506e+00		         0.11833	1.30000e+01	
0.50244   	1.76813e+00		         0.12000	1.30000e+01	
0.50909   	2.10741e+00		         0.12167	1.30000e+01	
0.51600   	2.40506e+00		         0.12333	1.30000e+01	
0.52265   	2.71245e+00		         0.12500	1.20000e+01	
0.52929   	2.86604e+00		         0.12667	1.20000e+01	
0.53594   	2.88305e+00		         0.12833	1.20000e+01	
0.54285   	2.79004e+00		         0.13000	1.20000e+01	
0.54949   	2.67428e+00		         0.13167	1.10000e+01	
0.55614   	2.35782e+00		         0.13333	1.10000e+01	
0.56278   	1.81964e+00		         0.13500	1.00000e+01	
0.56970   	1.08087e+00		         0.13667	1.00000e+01	
0.57634   	1.37665e-01		         0.13833	1.00000e+01	
0.58298   	-7.88376e-01		         0.14000	9.00000e+00	
0.58963   	-1.51621e+00		         0.14167	9.00000e+00	
0.59654   	-2.10956e+00		         0.14333	9.00000e+00	
0.60319   	-2.43213e+00		         0.14500	9.00000e+00	
0.60983   	-2.51595e+00		         0.14667	9.00000e+00	
0.61647   	-2.59102e+00		         0.14833	9.00000e+00	
0.62339   	-2.74209e+00		         0.15000	9.00000e+00	
0.63003   	-2.72583e+00		         0.15167	9.00000e+00	
0.63667   	-2.78497e+00		         0.15333	9.00000e+00	
0.64332   	-2.79809e+00		         0.15500	8.00000e+00	
0.65024   	-2.77598e+00		         0.15667	8.00000e+00	
0.65688   	-2.67674e+00		         0.15833	8.00000e+00	
0.66352   	-2.63172e+00		         0.16000	8.00000e+00	
0.67017   	-2.49546e+00		         0.16167	7.00000e+00	
0.67708   	-2.37608e+00		         0.16333	6.00000e+00	
0.68373   	-2.30446e+00		         0.16500	6.00000e+00	
0.69037   	-2.27603e+00		         0.16667	5.00000e+00	
0.69701   	-2.16276e+00		         0.16833	5.00000e+00	
0.70393   	-2.09476e+00		         0.17000	5.00000e+00	
0.71057   	-2.03260e+00		         0.17167	4.00000e+00	
0.71722   	-1.91347e+00		         0.17333	4.00000e+00	
0.72386   	-1.75734e+00		         0.17500	4.00000e+00	
0.73077   	-1.60467e+00		         0.17667	4.00000e+00	
0.73742   	-1.38895e+00		         0.17833	4.00000e+00	
0.74406   	-1.16963e+00		         0.18000	4.00000e+00	
0.75070   	-9.59079e-01		         0.18167	4.00000e+00	
0.75762   	-7.91975e-01		         0.18333	4.00000e+00	
0.76426   	-6.54218e-01		         0.18500	4.00000e+00	
0.77091   	-6.15844e-01		         0.18667	4.00000e+00	
0.77755   	-5.60307e-01		         0.18833	4.00000e+00	
0.78447   	-5.30351e-01		         0.19000	4.00000e+00	
0.79111   	-4.97681e-01		         0.19167	3.00000e+00	
0.79775   	-4.53515e-01		         0.19333	3.00000e+00	
0.80440   	-4.02090e-01		         0.19500	2.00000e+00	
0.81131   	-3.61656e-01		         0.19667	2.00000e+00	
0.81796   	-3.34315e-01		         0.19833	1.00000e+00	
0.82460   	-3.28706e-01		         0.20000	1.00000e+00	
0.83124   	-3.49698e-01		         0.20167	0.00000e+00	
0.83816   	-3.49255e-01		         0.20333	0.00000e+00	
0.84489   	-3.61278e-01		         0.20500	0.00000e+00	
0.85144   	-3.59016e-01		         0.20667	0.00000e+00	
0.85809   	-3.59361e-01		         0.20833	0.00000e+00	
0.86501   	-3.72597e-01		         0.21000	0.00000e+00	
0.87165   	-4.06230e-01		         0.21167	0.00000e+00	
0.87829   	-4.16153e-01		         0.21333	1.00000e+00	
0.88494   	-4.38101e-01		         0.21500	1.00000e+00	
0.89185   	-4.49826e-01		         0.21667	1.00000e+00	
0.89849   	-4.51968e-01		         0.21833	1.00000e+00	
0.90514   	-4.38521e-01		         0.22000	2.00000e+00	
0.91178   	-4.37717e-01		         0.22167	2.00000e+00	
0.91870   	-4.10356e-01		         0.22333	2.00000e+00	
0.92534   	-4.05954e-01		         0.22500	2.00000e+00	
0.93199   	-3.85873e-01		         0.22667	1.00000e+00	
0.93863   	-3.87956e-01		         0.22833	1.00000e+00	
0.94554   	-3.95619e-01		         0.23000	1.00000e+00	
0.95219   	-4.03136e-01		         0.23167	0.00000e+00	
0.95883   	-3.95410e-01		         0.23333	0.00000e+00	
0.96547   	-3.81789e-01		         0.23500	0.00000e+00	
0.97239   	-3.81714e-01		         0.23667	-1.00000e+00	
0.97903   	-3.58291e-01		         0.23833	-1.00000e+00	
0.98568   	-3.51486e-01		         0.24000	-1.00000e+00	
0.99232   	-3.53202e-01		         0.24167	-2.00000e+00	
0.99924   	-4.00855e-01		         0.24333	-2.00000e+00	
1.00588   	-4.38715e-01		         0.24500	-2.00000e+00	
1.01252   	-5.40686e-01		         0.24667	-2.00000e+00	
1.01917   	-7.15450e-01		         0.24833	-2.00000e+00	
1.02608   	-1.11129e+00		         0.25000	-2.00000e+00	
1.03273   	-1.31925e+00		         0.25167	-2.00000e+00	
1.03937   	-1.60308e+00		         0.25333	-2.00000e+00	
1.04601   	-1.90575e+00		         0.25500	-2.00000e+00	
1.05293   	-2.87394e+00		         0.25667	-2.00000e+00	
1.05957   	-3.36647e+00		         0.25833	-2.00000e+00	
1.06622   	-4.33210e+00		         0.26000	-2.00000e+00	
1.07286   	-5.18746e+00		         0.26167	-2.00000e+00	
1.07977   	-6.13016e+00		         0.26333	-2.00000e+00	
1.08642   	-6.36946e+00		         0.26500	-2.00000e+00	
1.09306   	-6.79738e+00		         0.26667	-2.00000e+00	
1.09971   	-6.84177e+00		         0.26833	-2.00000e+00	
1.10662   	-6.81963e+00		         0.27000	-2.00000e+00	
1.11326   	-6.51773e+00		         0.27167	-2.00000e+00	
1.11991   	-6.06120e+00		         0.27333	-2.00000e+00	
1.12674   	-5.68888e+00		         0.27500	-2.00000e+00	
1.13347   	-5.15242e+00		         0.27667	-3.00000e+00	
1.14011   	-4.72442e+00		         0.27833	-3.00000e+00	
1.14675   	-4.42032e+00		         0.28000	-3.00000e+00	
1.15340   	-4.16328e+00		         0.28167	-3.00000e+00	
1.16031   	-4.03999e+00		         0.28333	-3.00000e+00	
1.16696   	-4.49041e+00		         0.28500	-4.00000e+00	
1.17360   	-5.21388e+00		         0.28667	-4.00000e+00	
1.18025   	-4.99352e+00		         0.28833	-5.00000e+00	
1.18716   	-4.79013e+00		         0.29000	-5.00000e+00	
1.19380   	-4.05434e+00		         0.29167	-5.00000e+00	
1.20044   	-3.51172e+00		         0.29333	-6.00000e+00	
1.20709   	-2.51154e+00		         0.29500	-6.00000e+00	
1.21401   	-2.30918e+00		         0.29667	-6.00000e+00	
1.22065   	-2.28227e+00		         0.29833	-6.00000e+00	
1.22729   	-2.70840e+00		         0.30000	-7.00000e+00	
1.23394   	-2.38830e+00		         0.30167	-7.00000e+00	
1.24085   	-1.53562e+00		         0.30333	-6.00000e+00	
1.24749   	-7.33053e-01		         0.30500	-6.00000e+00	
1.25414   	7.31931e-02		         0.30667	-6.00000e+00	
1.26078   	1.31979e+00		         0.30833	-6.00000e+00	
1.26770   	2.36470e+00		         0.31000	-6.00000e+00	
1.27434   	2.87987e+00		         0.31167	-6.00000e+00	
1.28099   	3.20273e+00		         0.31333	-6.00000e+00	
1.28763   	3.72943e+00		         0.31500	-6.00000e+00	
1.29454   	3.76132e+00		         0.31667	-6.00000e+00	
1.30119   	3.80712e+00		         0.31833	-6.00000e+00	
1.30783   	3.69729e+00		         0.32000	-6.00000e+00	
1.31448   	3.69998e+00		         0.32167	-7.00000e+00	
1.32139   	3.66125e+00		         0.32333	-7.00000e+00	
1.32803   	3.75593e+00		         0.32500	-7.00000e+00	
1.33468   	3.83910e+00		         0.32667	-8.00000e+00	
1.34132   	3.95104e+00		         0.32833	-8.00000e+00	
1.34824   	4.01603e+00		         0.33000	-8.00000e+00	
1.35488   	4.03149e+00		         0.33167	-9.00000e+00	
1.36152   	4.07083e+00		         0.33333	-9.00000e+00	
1.36817   	4.11646e+00		         0.33500	-9.00000e+00	
1.37508   	4.09228e+00		         0.33667	-9.00000e+00	
1.38173   	4.10339e+00		         0.33833	-9.00000e+00	
1.38837   	4.06356e+00		         0.34000	-8.00000e+00	
1.39501   	3.97423e+00		         0.34167	-8.00000e+00	
1.40193   	3.84629e+00		         0.34333	-8.00000e+00	
1.40893   	3.74176e+00		         0.34500	-8.00000e+00	
1.41522   	3.60859e+00		         0.34667	-8.00000e+00	
1.42186   	3.52546e+00		         0.34833	-7.00000e+00	
1.42878   	3.44962e+00		         0.35000	-7.00000e+00	
1.43542   	3.39851e+00		         0.35167	-7.00000e+00	
1.44210   	3.32898e+00		         0.35333	-6.00000e+00	
1.44871   	3.26427e+00		         0.35500	-6.00000e+00	
1.45562   	3.18684e+00		         0.35667	-6.00000e+00	
1.46226   	3.14111e+00		         0.35833	-5.00000e+00	
1.46891   	3.09014e+00		         0.36000	-4.00000e+00	
1.47555   	3.07111e+00		         0.36167	-4.00000e+00	
1.48247   	3.02283e+00		         0.36333	-3.00000e+00	
1.48911   	2.99932e+00		         0.36500	-2.00000e+00	
1.49576   	2.94191e+00		         0.36667	-2.00000e+00	
1.50240   	2.85753e+00		         0.36833	-1.00000e+00	
1.50931   	2.73309e+00		         0.37000	-1.00000e+00	
1.51596   	2.65301e+00		         0.37167	0.00000e+00	
1.52260   	2.55775e+00		         0.37333	0.00000e+00	
1.52925   	2.47731e+00		         0.37500	0.00000e+00	
1.53616   	2.37777e+00		         0.37667	-1.00000e+00	
1.54280   	2.25523e+00		         0.37833	-1.00000e+00	
1.54944   	2.08327e+00		         0.38000	-1.00000e+00	
1.55609   	1.85229e+00		         0.38167	-2.00000e+00	
1.56301   	1.56597e+00		         0.38333	-2.00000e+00	
1.56966   	1.20107e+00		         0.38500	-2.00000e+00	
1.57629   	7.35926e-01		         0.38667	-2.00000e+00	
1.58294   	1.62851e-01		         0.38833	-2.00000e+00	
1.58985   	-4.84572e-01		         0.39000	-2.00000e+00	
1.59650   	-1.00553e+00		         0.39167	-1.00000e+00	
1.60314   	-8.90970e-01		         0.39333	-1.00000e+00	
1.60978   	-4.86821e-01		         0.39500	0.00000e+00	
1.61670   	1.09553e-01		         0.39667	1.00000e+00	
1.62334   	1.02321e+00		         0.39833	2.00000e+00	
1.62999   	1.95355e+00		         0.40000	3.00000e+00	
1.63663   	2.33556e+00		         0.40167	4.00000e+00	
1.64354   	2.67742e+00		         0.40333	5.00000e+00	
1.65019   	2.99094e+00		         0.40500	5.00000e+00	
1.65683   	3.18591e+00		         0.40667	6.00000e+00	
1.66348   	3.39288e+00		         0.40833	6.00000e+00	
1.67039   	3.48461e+00		         0.41000	6.00000e+00	
1.67704   	3.45789e+00		         0.41167	6.00000e+00	
1.68368   	3.27183e+00		         0.41333	6.00000e+00	
1.69032   	3.01111e+00		         0.41500	5.00000e+00	
1.69724   	2.32941e+00		         0.41667	5.00000e+00	
1.70388   	1.92290e+00		         0.41833	4.00000e+00	
1.71052   	1.06993e+00		         0.42000	4.00000e+00	
1.71717   	5.39967e-02		         0.42167	3.00000e+00	
1.72416   	-9.36259e-01		         0.42333	2.00000e+00	
1.73073   	-1.71045e+00		         0.42500	1.00000e+00	
1.73737   	-2.50833e+00		         0.42667	1.00000e+00	
1.74402   	-2.93649e+00		         0.42833	0.00000e+00	
1.75093   	-3.03058e+00		         0.43000	0.00000e+00	
1.75791   	-3.17468e+00		         0.43167	0.00000e+00	
1.76422   	-3.23283e+00		         0.43333	0.00000e+00	
1.77086   	-3.27091e+00		         0.43500	0.00000e+00	
1.77778   	-3.26145e+00		         0.43667	0.00000e+00	
1.78442   	-3.20244e+00		         0.43833	0.00000e+00	
1.79106   	-2.93249e+00		         0.44000	0.00000e+00	
1.79771   	-2.71844e+00		         0.44167	0.00000e+00	
1.80462   	-2.58089e+00		         0.44333	0.00000e+00	
1.81127   	-2.36441e+00		         0.44500	0.00000e+00	
1.81791   	-2.17215e+00		         0.44667	0.00000e+00	
1.82455   	-2.18540e+00		         0.44833	0.00000e+00	
1.83147   	-2.05352e+00		         0.45000	0.00000e+00	
1.83811   	-1.98760e+00		         0.45167	0.00000e+00	
1.84476   	-1.90362e+00		         0.45333	0.00000e+00	
1.85140   	-1.79713e+00		         0.45500	0.00000e+00	
1.85832   	-1.60571e+00		         0.45667	0.00000e+00	
1.86496   	-1.46274e+00		         0.45833	0.00000e+00	
1.87160   	-1.32174e+00		         0.46000	0.00000e+00	
1.87825   	-1.16598e+00		         0.46167	0.00000e+00	
1.88517   	-1.06106e+00		         0.46333	0.00000e+00	
1.89181   	-9.49426e-01		         0.46500	0.00000e+00	
1.89844   	-8.62106e-01		         0.46667	0.00000e+00	
1.90509   	-7.28623e-01		         0.46833	0.00000e+00	
1.91201   	-6.14404e-01		         0.47000	0.00000e+00	
1.91865   	-5.00350e-01		         0.47167	-1.00000e+00	
1.92530   	-4.15192e-01		         0.47333	-1.00000e+00	
1.93194   	-3.21146e-01		         0.47500	-1.00000e+00	
1.93885   	-2.48090e-01		         0.47667	-1.00000e+00	
1.94550   	-1.97333e-01		         0.47833	-1.00000e+00	
1.95214   	-1.57607e-01		         0.48000	-2.00000e+00	
1.95879   	-1.79800e-01		         0.48167	-2.00000e+00	
1.96570   	-1.97733e-01		         0.48333	-2.00000e+00	
1.97234   	-2.12996e-01		         0.48500	-2.00000e+00	
1.97899   	-2.44145e-01		         0.48667	-1.00000e+00	
1.98563   	-3.01071e-01		         0.48833	-1.00000e+00	
1.99255   	-2.97770e-01		         0.49000	-1.00000e+00	
1.99919   	-3.17695e-01		         0.49167	0.00000e+00	
2.00583   	-3.27727e-01		         0.49333	0.00000e+00	
2.01248   	-3.30827e-01		         0.49500	0.00000e+00	
2.01939   	-3.07172e-01		         0.49667	1.00000e+00	
2.02604   	-3.16995e-01		         0.49833	1.00000e+00	
2.03268   	-3.19065e-01		         0.50000	2.00000e+00	
2.03932   	-3.18667e-01		         0.50167	2.00000e+00	
2.04624   	-3.13721e-01		         0.50333	2.00000e+00	
2.05289   	-3.27693e-01		         0.50500	2.00000e+00	
2.05953   	-3.10304e-01		         0.50667	3.00000e+00	
2.06618   	-2.82194e-01		         0.50833	3.00000e+00	
2.07309   	-2.89051e-01		         0.51000	3.00000e+00	
2.07973   	-2.97791e-01		         0.51167	3.00000e+00	
2.08637   	-2.82404e-01		         0.51333	3.00000e+00	
2.09302   	-2.92148e-01		         0.51500	3.00000e+00	
2.09994   	-2.96754e-01		         0.51667	3.00000e+00	
2.10658   	-2.75233e-01		         0.51833	3.00000e+00	
2.11322   	-2.55010e-01		         0.52000	2.00000e+00	
2.11986   	-2.40331e-01		         0.52167	2.00000e+00	
2.12678   	-2.23160e-01		         0.52333	2.00000e+00	
2.13342   	-2.47820e-01		         0.52500	1.00000e+00	
2.14007   	-2.79339e-01		         0.52667	1.00000e+00	
2.14671   	-2.86975e-01		         0.52833	1.00000e+00	
2.15363   	-4.82494e-01		         0.53000	1.00000e+00	
2.16027   	-6.87741e-01		         0.53167	0.00000e+00	
2.16691   	-1.47858e+00		         0.53333	0.00000e+00	
2.17356   	-1.43175e+00		         0.53500	0.00000e+00	
2.18047   	-2.13052e+00		         0.53667	0.00000e+00	
2.18711   	-2.96580e+00		         0.53833	0.00000e+00	
2.19376   	-3.69541e+00		         0.54000	0.00000e+00	
2.20040   	-4.09242e+00		         0.54167	0.00000e+00	
2.20732   	-5.46029e+00		         0.54333	0.00000e+00	
2.21396   	-6.11106e+00		         0.54500	0.00000e+00	
2.22061   	-6.48095e+00		         0.54667	0.00000e+00	
2.22725   	-6.83206e+00		         0.54833	-1.00000e+00	
2.23417   	-6.84216e+00		         0.55000	-1.00000e+00	
2.24081   	-6.64273e+00		         0.55167	-1.00000e+00	
2.24746   	-6.27197e+00		         0.55333	-1.00000e+00	
2.25410   	-5.69765e+00		         0.55500	-1.00000e+00	
2.26101   	-5.15813e+00		         0.55667	-1.00000e+00	
2.26765   	-4.76994e+00		         0.55833	-1.00000e+00	
2.27430   	-4.42766e+00		         0.56000	-1.00000e+00	
2.28095   	-4.14816e+00		         0.56167	-1.00000e+00	
2.28786   	-4.03258e+00		         0.56333	0.00000e+00	
2.29450   	-4.12734e+00		         0.56500	0.00000e+00	
2.30115   	-4.25398e+00		         0.56667	1.00000e+00	
2.30779   	-4.53405e+00		         0.56833	1.00000e+00	
2.31471   	-3.23006e+00		         0.57000	1.00000e+00	
2.32135   	-2.27618e+00		         0.57167	2.00000e+00	
2.32799   	-1.06238e+00		         0.57333	2.00000e+00	
2.33463   	-2.17467e-01		         0.57500	3.00000e+00	
2.34155   	2.83503e-01		         0.57667	3.00000e+00	
2.34819   	-7.13391e-01		         0.57833	4.00000e+00	
2.35484   	-1.27949e+00		         0.58000	4.00000e+00	
2.36148   	-1.76529e+00		         0.58167	4.00000e+00	
2.36840   	-1.34944e+00		         0.58333	4.00000e+00	
2.37523   	-4.34125e-01		         0.58500	5.00000e+00	
2.38168   	5.39543e-01		         0.58667	5.00000e+00	
2.38852   	1.47642e+00		         0.58833	5.00000e+00	
2.39524   	2.33608e+00		         0.59000	5.00000e+00	
2.40188   	2.67849e+00		         0.59167	4.00000e+00	
2.40853   	3.10466e+00		         0.59333	4.00000e+00	
2.41517   	3.36077e+00		         0.59500	4.00000e+00	
2.42209   	3.60813e+00		         0.59667	3.00000e+00	
2.42873   	3.66774e+00		         0.59833	3.00000e+00	
2.43538   	3.96296e+00		         0.60000	3.00000e+00	
2.44202   	4.13216e+00		         0.60167	2.00000e+00	
2.44894   	4.23699e+00		         0.60333	2.00000e+00	
2.45558   	4.21169e+00		         0.60500	2.00000e+00	
2.46222   	4.25754e+00		         0.60667	2.00000e+00	
2.46887   	4.24311e+00		         0.60833	3.00000e+00	
2.47578   	4.20304e+00		         0.61000	3.00000e+00	
2.48243   	4.12888e+00		         0.61167	3.00000e+00	
2.48907   	4.11906e+00		         0.61333	3.00000e+00	
2.49571   	4.11382e+00		         0.61500	3.00000e+00	
2.50263   	4.03819e+00		         0.61667	4.00000e+00	
2.50927   	3.97831e+00		         0.61833	3.00000e+00	
2.51592   	3.92553e+00		         0.62000	3.00000e+00	
2.52256   	3.87596e+00		         0.62167	3.00000e+00	
2.52947   	3.80799e+00		         0.62333	2.00000e+00	
2.53612   	3.72021e+00		         0.62500	2.00000e+00	
2.54276   	3.56737e+00		         0.62667	1.00000e+00	
2.54941   	3.42841e+00		         0.62833	1.00000e+00	
2.55632   	3.29652e+00		         0.63000	1.00000e+00	
2.56297   	3.19184e+00		         0.63167	0.00000e+00	
2.56961   	3.06841e+00		         0.63333	0.00000e+00	
2.57625   	3.05928e+00		         0.63500	0.00000e+00	
2.58317   	3.00811e+00		         0.63667	0.00000e+00	
2.58981   	2.96393e+00		         0.63833	0.00000e+00	
2.59646   	2.87216e+00		         0.64000	0.00000e+00	
2.60310   	2.83318e+00		         0.64167	0.00000e+00	
2.61001   	2.75760e+00		         0.64333	0.00000e+00	
2.61666   	2.69741e+00		         0.64500	1.00000e+00	
2.62330   	2.60934e+00		         0.64667	1.00000e+00	
2.62994   	2.56058e+00		         0.64833	1.00000e+00	
2.63686   	2.45601e+00		         0.65000	1.00000e+00	
2.64350   	2.36695e+00		         0.65167	1.00000e+00	
2.65015   	2.30805e+00		         0.65333	1.00000e+00	
2.65679   	2.26117e+00		         0.65500	1.00000e+00	
2.66371   	2.14559e+00		         0.65667	1.00000e+00	
2.67035   	2.01128e+00		         0.65833	1.00000e+00	
2.67699   	1.81510e+00		         0.66000	1.00000e+00	
2.68364   	1.59880e+00		         0.66167	1.00000e+00	
2.69055   	1.28979e+00		         0.66333	1.00000e+00	
2.69720   	9.53602e-01		         0.66500	1.00000e+00	
2.70384   	6.28912e-01		         0.66667	1.00000e+00	
2.71048   	2.82935e-01		         0.66833	1.00000e+00	
2.71740   	-7.77273e-02		         0.67000	0.00000e+00	
2.72404   	-3.01201e-01		         0.67167	0.00000e+00	
2.73069   	-6.95950e-02		         0.67333	0.00000e+00	
2.73733   	3.21737e-01		         0.67500	0.00000e+00	
2.74425   	7.25260e-01		         0.67667	0.00000e+00	
2.75089   	1.24225e+00		         0.67833	0.00000e+00	
2.75754   	1.71743e+00		         0.68000	0.00000e+00	
2.76418   	1.86551e+00		         0.68167	0.00000e+00	
2.77109   	2.01814e+00		         0.68333	0.00000e+00	
2.77773   	2.23881e+00		         0.68500	0.00000e+00	
2.78438   	2.34018e+00		         0.68667	0.00000e+00	
2.79103   	2.39747e+00		         0.68833	1.00000e+00	
2.79794   	2.33070e+00		         0.69000	1.00000e+00	
2.80458   	2.13049e+00		         0.69167	1.00000e+00	
2.81123   	1.72588e+00		         0.69333	2.00000e+00	
2.81787   	1.20496e+00		         0.69500	2.00000e+00	
2.82479   	6.81298e-01		         0.69667	3.00000e+00	
2.83143   	-1.58945e-01		         0.69833	3.00000e+00	
2.83807   	-1.16332e+00		         0.70000	3.00000e+00	
2.84472   	-2.01817e+00		         0.70167	4.00000e+00	
2.85163   	-2.98264e+00		         0.70333	4.00000e+00	
2.85827   	-3.59077e+00		         0.70500	4.00000e+00	
2.86492   	-3.81634e+00		         0.70667	3.00000e+00	
2.87156   	-3.95978e+00		         0.70833	3.00000e+00	
2.87848   	-4.03203e+00		         0.71000	2.00000e+00	
2.88512   	-3.79296e+00		         0.71167	2.00000e+00	
2.89177   	-3.84543e+00		         0.71333	1.00000e+00	
2.89841   	-3.83218e+00		         0.71500	1.00000e+00	
2.90532   	-3.60785e+00		         0.71667	0.00000e+00	
2.91197   	-3.47918e+00		         0.71833	-1.00000e+00	
2.91861   	-3.24947e+00		         0.72000	-1.00000e+00	
2.92526   	-2.89694e+00		         0.72167	-2.00000e+00	
2.93217   	-2.62459e+00		         0.72333	-2.00000e+00	
2.93881   	-2.41734e+00		         0.72500	-2.00000e+00	
2.94546   	-2.09587e+00		         0.72667	-2.00000e+00	
2.95210   	-1.86624e+00		         0.72833	-2.00000e+00	
2.95902   	-1.79516e+00		         0.73000	-2.00000e+00	
2.96566   	-1.65781e+00		         0.73167	-2.00000e+00	
2.97230   	-1.61385e+00		         0.73333	-2.00000e+00	
2.97895   	-1.58999e+00		         0.73500	-2.00000e+00	
2.98600   	-1.56999e+00		         0.73667	-2.00000e+00	
2.99251   	-1.51096e+00		         0.73833	-2.00000e+00	
2.99915   	-1.45273e+00		         0.74000	-1.00000e+00	
3.00579   	-1.29717e+00		         0.74167	-1.00000e+00	
3.01271   	-1.12665e+00		         0.74333	-1.00000e+00	
3.01945   	-1.01339e+00		         0.74500	-1.00000e+00	
3.02599   	-9.02013e-01		         0.74667	-1.00000e+00	
3.03264   	-7.87886e-01		         0.74833	-1.00000e+00	
3.03955   	-6.98212e-01		         0.75000	-1.00000e+00	
3.04620   	-6.27782e-01		         0.75167	-1.00000e+00	
3.05284   	-5.25338e-01		         0.75333	0.00000e+00	
3.05949   	-4.21475e-01		         0.75500	0.00000e+00	
3.06640   	-3.75346e-01		         0.75667	0.00000e+00	
3.07305   	-3.44334e-01		         0.75833	0.00000e+00	
3.07969   	-2.88292e-01		         0.76000	-1.00000e+00	
3.08633   	-3.00083e-01		         0.76167	-1.00000e+00	
3.09325   	-3.42797e-01		         0.76333	-1.00000e+00	
3.09989   	-3.24439e-01		         0.76500	-1.00000e+00	
3.10654   	-3.26048e-01		         0.76667	-1.00000e+00	
3.11318   	-3.67476e-01		         0.76833	-1.00000e+00	
3.12009   	-4.02014e-01		         0.77000	-1.00000e+00	
3.12674   	-3.97935e-01		         0.77167	-1.00000e+00	
3.13338   	-4.40703e-01		         0.77333	-2.00000e+00	
3.14002   	-4.47609e-01		         0.77500	-2.00000e+00	
3.14694   	-4.49574e-01		         0.77667	-2.00000e+00	
3.15358   	-4.26961e-01		         0.77833	-2.00000e+00	
3.16023   	-3.93760e-01		         0.78000	-2.00000e+00	
3.16687   	-3.66078e-01		         0.78167	-2.00000e+00	
3.17379   	-3.52926e-01		         0.78333	-2.00000e+00	
3.18043   	-3.26402e-01		         0.78500	-2.00000e+00	
3.18707   	-2.99204e-01		         0.78667	-1.00000e+00	
3.19372   	-3.01430e-01		         0.78833	-1.00000e+00	
3.20063   	-2.64907e-01		         0.79000	0.00000e+00	
3.20728   	-2.61470e-01		         0.79167	0.00000e+00	
3.21392   	-2.61493e-01		         0.79333	1.00000e+00	
3.22056   	-2.62003e-01		         0.79500	2.00000e+00	
3.22748   	-2.48164e-01		         0.79667	2.00000e+00	
3.23412   	-2.96223e-01		         0.79833	3.00000e+00	
3.24077   	-3.25111e-01		         0.80000	3.00000e+00	
3.24741   	-3.99565e-01		         0.80167	4.00000e+00	
3.25432   	-4.87488e-01		         0.80333	4.00000e+00	
3.26097   	-4.19931e-01		         0.80500	4.00000e+00	
3.26761   	-4.76822e-01		         0.80667	4.00000e+00	
3.27426   	-6.85991e-01		         0.80833	4.00000e+00	
3.28117   	-1.08997e+00		         0.81000	4.00000e+00	
3.28781   	-1.80721e+00		         0.81167	4.00000e+00	
3.29446   	-2.71956e+00		         0.81333	4.00000e+00	
3.30110   	-3.59366e+00		         0.81500	3.00000e+00	
3.30802   	-4.39977e+00		         0.81667	3.00000e+00	
3.31466   	-5.22521e+00		         0.81833	3.00000e+00	
3.32130   	-5.65994e+00		         0.82000	3.00000e+00	
3.32795   	-6.14104e+00		         0.82167	3.00000e+00	
3.33486   	-6.49145e+00		         0.82333	3.00000e+00	
3.34151   	-6.65154e+00		         0.82500	3.00000e+00	
3.34815   	-6.54555e+00		         0.82667	3.00000e+00	
3.35479   	-6.36344e+00		         0.82833	3.00000e+00	
3.36171   	-6.00919e+00		         0.83000	3.00000e+00	
3.36835   	-5.26243e+00		         0.83167	3.00000e+00	
3.37500   	-4.68830e+00		         0.83333	3.00000e+00	
3.38164   	-3.95097e+00		         0.83500	3.00000e+00	
3.38856   	-3.75922e+00		         0.83667	3.00000e+00	
3.39520   	-3.67957e+00		         0.83833	3.00000e+00	
3.40184   	-4.10804e+00		         0.84000	3.00000e+00	
3.40849   	-4.54733e+00		         0.84167	3.00000e+00	
3.41540   	-4.52355e+00		         0.84333	3.00000e+00	
3.42204   	-4.50313e+00		         0.84500	2.00000e+00	
3.42869   	-4.43167e+00		         0.84667	2.00000e+00	
			         0.84833	1.00000e+00	
			         0.85000	1.00000e+00	
			         0.85167	1.00000e+00	
			         0.85333	0.00000e+00	
			         0.85500	0.00000e+00	
			         0.85667	0.00000e+00	
			         0.85833	0.00000e+00	
			         0.86000	0.00000e+00	
			         0.86167	0.00000e+00	
			         0.86333	-1.00000e+00	
			         0.86500	-1.00000e+00	
			         0.86667	-1.00000e+00	
			         0.86833	-1.00000e+00	
			         0.87000	-1.00000e+00	
			         0.87167	-1.00000e+00	
			         0.87333	-1.00000e+00	
			         0.87500	-1.00000e+00	
			         0.87667	-1.00000e+00	
			         0.87833	-1.00000e+00	
			         0.88000	-1.00000e+00	
			         0.88167	-1.00000e+00	
			         0.88333	-1.00000e+00	
			         0.88500	-2.00000e+00	
			         0.88667	-2.00000e+00	
			         0.88833	-2.00000e+00	
			         0.89000	-3.00000e+00	
			         0.89167	-3.00000e+00	
			         0.89333	-3.00000e+00	
			         0.89500	-3.00000e+00	
			         0.89667	-3.00000e+00	
			         0.89833	-3.00000e+00	
			         0.90000	-3.00000e+00	
			         0.90167	-3.00000e+00	
			         0.90333	-3.00000e+00	
			         0.90500	-3.00000e+00	
			         0.90667	-3.00000e+00	
			         0.90833	-2.00000e+00	
			         0.91000	-2.00000e+00	
			         0.91167	-2.00000e+00	
			         0.91333	-1.00000e+00	
			         0.91500	-1.00000e+00	
			         0.91667	-1.00000e+00	
			         0.91833	-1.00000e+00	
			         0.92000	-1.00000e+00	
			         0.92167	-1.00000e+00	
			         0.92333	-1.00000e+00	
			         0.92500	-1.00000e+00	
			         0.92667	-1.00000e+00	
			         0.92833	-1.00000e+00	
			         0.93000	-2.00000e+00	
			         0.93167	-2.00000e+00	
			         0.93333	-2.00000e+00	
			         0.93500	-2.00000e+00	
			         0.93667	-2.00000e+00	
			         0.93833	-2.00000e+00	
			         0.94000	-2.00000e+00	
			         0.94167	-2.00000e+00	
			         0.94333	-1.00000e+00	
			         0.94500	-1.00000e+00	
			         0.94667	0.00000e+00	
			         0.94833	0.00000e+00	
			         0.95000	0.00000e+00	
			         0.95167	0.00000e+00	
			         0.95333	0.00000e+00	
			         0.95500	0.00000e+00	
			         0.95667	0.00000e+00	
			         0.95833	0.00000e+00	
			         0.96000	-1.00000e+00	
			         0.96167	-1.00000e+00	
			         0.96333	-1.00000e+00	
			         0.96500	-1.00000e+00	
			         0.96667	-1.00000e+00	
			         0.96833	-1.00000e+00	
			         0.97000	-1.00000e+00	
			         0.97167	-1.00000e+00	
			         0.97333	0.00000e+00	
			         0.97500	0.00000e+00	
			         0.97667	0.00000e+00	
			         0.97833	0.00000e+00	
			         0.98000	1.00000e+00	
			         0.98167	1.00000e+00	
			         0.98333	1.00000e+00	
			         0.98500	1.00000e+00	
			         0.98667	1.00000e+00	
			         0.98833	0.00000e+00	
			         0.99000	0.00000e+00	
			         0.99167	0.00000e+00	
			         0.99333	0.00000e+00	
			         0.99500	-1.00000e+00	
			         0.99667	-1.00000e+00	
			         0.99833	-2.00000e+00	
			         1.00000	-3.00000e+00	
			         1.00167	-3.00000e+00	
			         1.00333	-4.00000e+00	
			         1.00500	-5.00000e+00	
			         1.00667	-6.00000e+00	
			         1.00833	-6.00000e+00	
			         1.01000	-7.00000e+00	
			         1.01167	-7.00000e+00	
			         1.01333	-8.00000e+00	
			         1.01500	-8.00000e+00	
			         1.01667	-9.00000e+00	
			         1.01833	-9.00000e+00	
			         1.02000	-9.00000e+00	
			         1.02167	-9.00000e+00	
			         1.02333	-9.00000e+00	
			         1.02500	-9.00000e+00	
			         1.02667	-9.00000e+00	
			         1.02833	-9.00000e+00	
			         1.03000	-9.00000e+00	
			         1.03167	-9.00000e+00	
			         1.03333	-9.00000e+00	
			         1.03500	-8.00000e+00	
			         1.03667	-8.00000e+00	
			         1.03833	-8.00000e+00	
			         1.04000	-7.00000e+00	
			         1.04167	-7.00000e+00	
			         1.04333	-6.00000e+00	
			         1.04500	-6.00000e+00	
			         1.04667	-5.00000e+00	
			         1.04833	-4.00000e+00	
			         1.05000	-4.00000e+00	
			         1.05167	-3.00000e+00	
			         1.05333	-2.00000e+00	
			         1.05500	-1.00000e+00	
			         1.05667	-1.00000e+00	
			         1.05833	0.00000e+00	
			         1.06000	0.00000e+00	
			         1.06167	0.00000e+00	
			         1.06333	0.00000e+00	
			         1.06500	0.00000e+00	
			         1.06667	0.00000e+00	
			         1.06833	0.00000e+00	
			         1.07000	0.00000e+00	
			         1.07167	0.00000e+00	
			         1.07333	0.00000e+00	
			         1.07500	1.00000e+00	
			         1.07667	1.00000e+00	
			         1.07833	1.00000e+00	
			         1.08000	1.00000e+00	
			         1.08167	1.00000e+00	
			         1.08333	1.00000e+00	
			         1.08500	1.00000e+00	
			         1.08667	1.00000e+00	
			         1.08833	1.00000e+00	
			         1.09000	2.00000e+00	
			         1.09167	2.00000e+00	
			         1.09333	2.00000e+00	
			         1.09500	2.00000e+00	
			         1.09667	2.00000e+00	
			         1.09833	1.00000e+00	
			         1.10000	1.00000e+00	
			         1.10167	1.00000e+00	
			         1.10333	1.00000e+00	
			         1.10500	1.00000e+00	
			         1.10667	1.00000e+00	
			         1.10833	0.00000e+00	
			         1.11000	0.00000e+00	
			         1.11167	0.00000e+00	
			         1.11333	0.00000e+00	
			         1.11500	0.00000e+00	
			         1.11667	0.00000e+00	
			         1.11833	1.00000e+00	
			         1.12000	1.00000e+00	
			         1.12167	2.00000e+00	
			         1.12333	3.00000e+00	
			         1.12500	4.00000e+00	
			         1.12667	5.00000e+00	
			         1.12833	7.00000e+00	
			         1.13000	9.00000e+00	
			         1.13167	1.10000e+01	
			         1.13333	1.30000e+01	
			         1.13500	1.60000e+01	
			         1.13667	1.80000e+01	
			         1.13833	2.10000e+01	
			         1.14000	2.40000e+01	
			         1.14167	2.60000e+01	
			         1.14333	2.80000e+01	
			         1.14500	2.90000e+01	
			         1.14667	2.80000e+01	
			         1.14833	2.70000e+01	
			         1.15000	2.50000e+01	
			         1.15167	2.10000e+01	
			         1.15333	1.50000e+01	
			         1.15500	9.00000e+00	
			         1.15667	1.00000e+00	
			         1.15833	-8.00000e+00	
			         1.16000	-1.80000e+01	
			         1.16167	-2.80000e+01	
			         1.16333	-3.90000e+01	
			         1.16500	-4.90000e+01	
			         1.16667	-5.90000e+01	
			         1.16833	-6.80000e+01	
			         1.17000	-7.50000e+01	
			         1.17167	-8.10000e+01	
			         1.17333	-8.50000e+01	
			         1.17500	-8.70000e+01	
			         1.17667	-8.70000e+01	
			         1.17833	-8.50000e+01	
			         1.18000	-8.20000e+01	
			         1.18167	-7.60000e+01	
			         1.18333	-7.00000e+01	
			         1.18500	-6.20000e+01	
			         1.18667	-5.30000e+01	
			         1.18833	-4.40000e+01	
			         1.19000	-3.50000e+01	
			         1.19167	-2.70000e+01	
			         1.19333	-1.80000e+01	
			         1.19500	-1.10000e+01	
			         1.19667	-4.00000e+00	
			         1.19833	2.00000e+00	
			         1.20000	7.00000e+00	
			         1.20167	1.20000e+01	
			         1.20333	1.50000e+01	
			         1.20500	1.80000e+01	
			         1.20667	2.10000e+01	
			         1.20833	2.30000e+01	
			         1.21000	2.40000e+01	
			         1.21167	2.50000e+01	
			         1.21333	2.60000e+01	
			         1.21500	2.60000e+01	
			         1.21667	2.60000e+01	
			         1.21833	2.60000e+01	
			         1.22000	2.60000e+01	
			         1.22167	2.50000e+01	
			         1.22333	2.40000e+01	
			         1.22500	2.30000e+01	
			         1.22667	2.30000e+01	
			         1.22833	2.20000e+01	
			         1.23000	2.10000e+01	
			         1.23167	2.00000e+01	
			         1.23333	2.00000e+01	
			         1.23500	1.90000e+01	
			         1.23667	1.90000e+01	
			         1.23833	1.90000e+01	
			         1.24000	1.90000e+01	
			         1.24167	1.90000e+01	
			         1.24333	1.90000e+01	
			         1.24500	1.90000e+01	
			         1.24667	1.90000e+01	
			         1.24833	1.80000e+01	
			         1.25000	1.80000e+01	
			         1.25167	1.80000e+01	
			         1.25333	1.80000e+01	
			         1.25500	1.70000e+01	
			         1.25667	1.70000e+01	
			         1.25833	1.70000e+01	
			         1.26000	1.60000e+01	
			         1.26167	1.60000e+01	
			         1.26333	1.50000e+01	
			         1.26500	1.50000e+01	
			         1.26667	1.40000e+01	
			         1.26833	1.40000e+01	
			         1.27000	1.30000e+01	
			         1.27167	1.20000e+01	
			         1.27333	1.10000e+01	
			         1.27500	1.00000e+01	
			         1.27667	9.00000e+00	
			         1.27833	8.00000e+00	
			         1.28000	7.00000e+00	
			         1.28167	7.00000e+00	
			         1.28333	6.00000e+00	
			         1.28500	5.00000e+00	
			         1.28667	5.00000e+00	
			         1.28833	5.00000e+00	
			         1.29000	4.00000e+00	
			         1.29167	4.00000e+00	
			         1.29333	4.00000e+00	
			         1.29500	4.00000e+00	
			         1.29667	4.00000e+00	
			         1.29833	4.00000e+00	
			         1.30000	3.00000e+00	
			         1.30167	3.00000e+00	
			         1.30333	2.00000e+00	
			         1.30500	2.00000e+00	
			         1.30667	2.00000e+00	
			         1.30833	1.00000e+00	
			         1.31000	1.00000e+00	
			         1.31167	1.00000e+00	
			         1.31333	1.00000e+00	
			         1.31500	1.00000e+00	
			         1.31667	1.00000e+00	
			         1.31833	1.00000e+00	
			         1.32000	2.00000e+00	
			         1.32167	2.00000e+00	
			         1.32333	2.00000e+00	
			         1.32500	2.00000e+00	
			         1.32667	3.00000e+00	
			         1.32833	3.00000e+00	
			         1.33000	3.00000e+00	
			         1.33167	3.00000e+00	
			         1.33333	4.00000e+00	
			         1.33500	4.00000e+00	
			         1.33667	3.00000e+00	
			         1.33833	3.00000e+00	
			         1.34000	3.00000e+00	
			         1.34167	3.00000e+00	
			         1.34333	3.00000e+00	
			         1.34500	3.00000e+00	
			         1.34667	2.00000e+00	
			         1.34833	2.00000e+00	
			         1.35000	2.00000e+00	
			         1.35167	1.00000e+00	
			         1.35333	1.00000e+00	
			         1.35500	1.00000e+00	
			         1.35667	1.00000e+00	
			         1.35833	1.00000e+00	
			         1.36000	1.00000e+00	
			         1.36167	1.00000e+00	
			         1.36333	1.00000e+00	
			         1.36500	1.00000e+00	
			         1.36667	1.00000e+00	
			         1.36833	1.00000e+00	
			         1.37000	0.00000e+00	
			         1.37167	0.00000e+00	
			         1.37333	-1.00000e+00	
			         1.37500	-1.00000e+00	
			         1.37667	-2.00000e+00	
			         1.37833	-2.00000e+00	
			         1.38000	-3.00000e+00	
			         1.38167	-3.00000e+00	
			         1.38333	-4.00000e+00	
			         1.38500	-4.00000e+00	
			         1.38667	-5.00000e+00	
			         1.38833	-5.00000e+00	
			         1.39000	-5.00000e+00	
			         1.39167	-5.00000e+00	
			         1.39333	-5.00000e+00	
			         1.39500	-6.00000e+00	
			         1.39667	-6.00000e+00	
			         1.39833	-6.00000e+00	
			         1.40000	-7.00000e+00	
			         1.40167	-7.00000e+00	
			         1.40333	-8.00000e+00	
			         1.40500	-8.00000e+00	
			         1.40667	-8.00000e+00	
			         1.40833	-9.00000e+00	
			         1.41000	-9.00000e+00	
			         1.41167	-9.00000e+00	
			         1.41333	-1.00000e+01	
			         1.41500	-1.00000e+01	
			         1.41667	-1.10000e+01	
			         1.41833	-1.10000e+01	
			         1.42000	-1.10000e+01	
			         1.42167	-1.10000e+01	
			         1.42333	-1.10000e+01	
			         1.42500	-1.10000e+01	
			         1.42667	-1.10000e+01	
			         1.42833	-1.00000e+01	
			         1.43000	-1.00000e+01	
			         1.43167	-1.00000e+01	
			         1.43333	-9.00000e+00	
			         1.43500	-9.00000e+00	
			         1.43667	-8.00000e+00	
			         1.43833	-8.00000e+00	
			         1.44000	-7.00000e+00	
			         1.44167	-7.00000e+00	
			         1.44333	-7.00000e+00	
			         1.44500	-7.00000e+00	
			         1.44667	-7.00000e+00	
			         1.44833	-7.00000e+00	
			         1.45000	-7.00000e+00	
			         1.45167	-8.00000e+00	
			         1.45333	-8.00000e+00	
			         1.45500	-8.00000e+00	
			         1.45667	-9.00000e+00	
			         1.45833	-9.00000e+00	
			         1.46000	-9.00000e+00	
			         1.46167	-1.00000e+01	
			         1.46333	-1.00000e+01	
			         1.46500	-1.00000e+01	
			         1.46667	-1.00000e+01	
			         1.46833	-1.00000e+01	
			         1.47000	-1.00000e+01	
			         1.47167	-1.00000e+01	
			         1.47333	-1.00000e+01	
			         1.47500	-1.00000e+01	
			         1.47667	-9.00000e+00	
			         1.47833	-9.00000e+00	
			         1.48000	-9.00000e+00	
			         1.48167	-9.00000e+00	
			         1.48333	-9.00000e+00	
			         1.48500	-8.00000e+00	
			         1.48667	-8.00000e+00	
			         1.48833	-8.00000e+00	
			         1.49000	-7.00000e+00	
			         1.49167	-7.00000e+00	
			         1.49333	-7.00000e+00	
			         1.49500	-6.00000e+00	
			         1.49667	-5.00000e+00	
			         1.49833	-5.00000e+00	
			         1.50000	-4.00000e+00	
			         1.50167	-3.00000e+00	
			         1.50333	-3.00000e+00	
			         1.50500	-3.00000e+00	
			         1.50667	-2.00000e+00	
			         1.50833	-2.00000e+00	
			         1.51000	-1.00000e+00	
			         1.51167	-1.00000e+00	
			         1.51333	-1.00000e+00	
			         1.51500	-1.00000e+00	
			         1.51667	-1.00000e+00	
			         1.51833	-2.00000e+00	
			         1.52000	-2.00000e+00	
			         1.52167	-2.00000e+00	
			         1.52333	-2.00000e+00	
			         1.52500	-2.00000e+00	
			         1.52667	-2.00000e+00	
			         1.52833	-2.00000e+00	
			         1.53000	-2.00000e+00	
			         1.53167	-1.00000e+00	
			         1.53333	-1.00000e+00	
			         1.53500	-1.00000e+00	
			         1.53667	0.00000e+00	
			         1.53833	0.00000e+00	
			         1.54000	1.00000e+00	
			         1.54167	2.00000e+00	
			         1.54333	3.00000e+00	
			         1.54500	3.00000e+00	
			         1.54667	4.00000e+00	
			         1.54833	5.00000e+00	
			         1.55000	5.00000e+00	
			         1.55167	6.00000e+00	
			         1.55333	7.00000e+00	
			         1.55500	7.00000e+00	
			         1.55667	7.00000e+00	
			         1.55833	8.00000e+00	
			         1.56000	8.00000e+00	
			         1.56167	7.00000e+00	
			         1.56333	7.00000e+00	
			         1.56500	7.00000e+00	
			         1.56667	6.00000e+00	
			         1.56833	6.00000e+00	
			         1.57000	5.00000e+00	
			         1.57167	5.00000e+00	
			         1.57333	4.00000e+00	
			         1.57500	4.00000e+00	
			         1.57667	4.00000e+00	
			         1.57833	3.00000e+00	
			         1.58000	3.00000e+00	
			         1.58167	3.00000e+00	
			         1.58333	3.00000e+00	
			         1.58500	3.00000e+00	
			         1.58667	3.00000e+00	
			         1.58833	3.00000e+00	
			         1.59000	3.00000e+00	
			         1.59167	3.00000e+00	
			         1.59333	3.00000e+00	
			         1.59500	3.00000e+00	
			         1.59667	3.00000e+00	
			         1.59833	3.00000e+00	
			         1.60000	3.00000e+00	
			         1.60167	3.00000e+00	
			         1.60333	3.00000e+00	
			         1.60500	3.00000e+00	
			         1.60667	3.00000e+00	
			         1.60833	3.00000e+00	
			         1.61000	3.00000e+00	
			         1.61167	3.00000e+00	
			         1.61333	2.00000e+00	
			         1.61500	2.00000e+00	
			         1.61667	2.00000e+00	
			         1.61833	2.00000e+00	
			         1.62000	2.00000e+00	
			         1.62167	2.00000e+00	
			         1.62333	2.00000e+00	
			         1.62500	2.00000e+00	
			         1.62667	2.00000e+00	
			         1.62833	2.00000e+00	
			         1.63000	2.00000e+00	
			         1.63167	1.00000e+00	
			         1.63333	1.00000e+00	
			         1.63500	1.00000e+00	
			         1.63667	1.00000e+00	
			         1.63833	1.00000e+00	
			         1.64000	1.00000e+00	
			         1.64167	2.00000e+00	
			         1.64333	2.00000e+00	
			         1.64500	2.00000e+00	
			         1.64667	3.00000e+00	
			         1.64833	3.00000e+00	
			         1.65000	3.00000e+00	
			         1.65167	3.00000e+00	
			         1.65333	4.00000e+00	
			         1.65500	4.00000e+00	
			         1.65667	4.00000e+00	
			         1.65833	4.00000e+00	
			         1.66000	4.00000e+00	
			         1.66167	3.00000e+00	
			         1.66333	3.00000e+00	
			         1.66500	3.00000e+00	
			         1.66667	2.00000e+00	
			         1.66833	2.00000e+00	
			         1.67000	1.00000e+00	
			         1.67167	1.00000e+00	
			         1.67333	1.00000e+00	
			         1.67500	1.00000e+00	
			         1.67667	1.00000e+00	
			         1.67833	1.00000e+00	
			         1.68000	1.00000e+00	
			         1.68167	1.00000e+00	
			         1.68333	2.00000e+00	
			         1.68500	2.00000e+00	
			         1.68667	2.00000e+00	
			         1.68833	2.00000e+00	
			         1.69000	1.00000e+00	
			         1.69167	1.00000e+00	
			         1.69333	1.00000e+00	
			         1.69500	0.00000e+00	
			         1.69667	0.00000e+00	
			         1.69833	-1.00000e+00	
			         1.70000	-1.00000e+00	
			         1.70167	-1.00000e+00	
			         1.70333	-2.00000e+00	
			         1.70500	-2.00000e+00	
			         1.70667	-2.00000e+00	
			         1.70833	-2.00000e+00	
			         1.71000	-3.00000e+00	
			         1.71167	-3.00000e+00	
			         1.71333	-3.00000e+00	
			         1.71500	-3.00000e+00	
			         1.71667	-3.00000e+00	
			         1.71833	-3.00000e+00	
			         1.72000	-3.00000e+00	
			         1.72167	-3.00000e+00	
			         1.72333	-3.00000e+00	
			         1.72500	-3.00000e+00	
			         1.72667	-3.00000e+00	
			         1.72833	-3.00000e+00	
			         1.73000	-3.00000e+00	
			         1.73167	-3.00000e+00	
			         1.73333	-3.00000e+00	
			         1.73500	-3.00000e+00	
			         1.73667	-2.00000e+00	
			         1.73833	-2.00000e+00	
			         1.74000	-2.00000e+00	
			         1.74167	-1.00000e+00	
			         1.74333	-1.00000e+00	
			         1.74500	-1.00000e+00	
			         1.74667	0.00000e+00	
			         1.74833	0.00000e+00	
			         1.75000	0.00000e+00	
			         1.75167	0.00000e+00	
			         1.75333	0.00000e+00	
			         1.75500	0.00000e+00	
			         1.75667	0.00000e+00	
			         1.75833	0.00000e+00	
			         1.76000	0.00000e+00	
			         1.76167	0.00000e+00	
			         1.76333	0.00000e+00	
			         1.76500	-1.00000e+00	
			         1.76667	-1.00000e+00	
			         1.76833	-1.00000e+00	
			         1.77000	-1.00000e+00	
			         1.77167	-1.00000e+00	
			         1.77333	-1.00000e+00	
			         1.77500	-1.00000e+00	
			         1.77667	0.00000e+00	
			         1.77833	0.00000e+00	
			         1.78000	0.00000e+00	
			         1.78167	0.00000e+00	
			         1.78333	1.00000e+00	
			         1.78500	1.00000e+00	
			         1.78667	1.00000e+00	
			         1.78833	2.00000e+00	
			         1.79000	2.00000e+00	
			         1.79167	2.00000e+00	
			         1.79333	2.00000e+00	
			         1.79500	2.00000e+00	
			         1.79667	1.00000e+00	
			         1.79833	1.00000e+00	
			         1.80000	1.00000e+00	
			         1.80167	1.00000e+00	
			         1.80333	1.00000e+00	
			         1.80500	0.00000e+00	
			         1.80667	0.00000e+00	
			         1.80833	0.00000e+00	
			         1.81000	0.00000e+00	
			         1.81167	0.00000e+00	
			         1.81333	0.00000e+00	
			         1.81500	0.00000e+00	
			         1.81667	0.00000e+00	
			         1.81833	0.00000e+00	
			         1.82000	0.00000e+00	
			         1.82167	0.00000e+00	
			         1.82333	0.00000e+00	
			         1.82500	0.00000e+00	
			         1.82667	0.00000e+00	
			         1.82833	1.00000e+00	
			         1.83000	1.00000e+00	
			         1.83167	1.00000e+00	
			         1.83333	1.00000e+00	
			         1.83500	1.00000e+00	
			         1.83667	2.00000e+00	
			         1.83833	2.00000e+00	
			         1.84000	2.00000e+00	
			         1.84167	2.00000e+00	
			         1.84333	2.00000e+00	
			         1.84500	2.00000e+00	
			         1.84667	2.00000e+00	
			         1.84833	2.00000e+00	
			         1.85000	2.00000e+00	
			         1.85167	2.00000e+00	
			         1.85333	2.00000e+00	
			         1.85500	2.00000e+00	
			         1.85667	2.00000e+00	
			         1.85833	2.00000e+00	
			         1.86000	2.00000e+00	
			         1.86167	2.00000e+00	
			         1.86333	2.00000e+00	
			         1.86500	1.00000e+00	
			         1.86667	1.00000e+00	
			         1.86833	1.00000e+00	
			         1.87000	1.00000e+00	
			         1.87167	0.00000e+00	
			         1.87333	0.00000e+00	
			         1.87500	0.00000e+00	
			         1.87667	-1.00000e+00	
			         1.87833	-1.00000e+00	
			         1.88000	-2.00000e+00	
			         1.88167	-2.00000e+00	
			         1.88333	-3.00000e+00	
			         1.88500	-3.00000e+00	
			         1.88667	-3.00000e+00	
			         1.88833	-4.00000e+00	
			         1.89000	-4.00000e+00	
			         1.89167	-4.00000e+00	
			         1.89333	-4.00000e+00	
			         1.89500	-4.00000e+00	
			         1.89667	-4.00000e+00	
			         1.89833	-3.00000e+00	
			         1.90000	-3.00000e+00	
			         1.90167	-2.00000e+00	
			         1.90333	-2.00000e+00	
			         1.90500	-1.00000e+00	
			         1.90667	-1.00000e+00	
			         1.90833	0.00000e+00	
			         1.91000	1.00000e+00	
			         1.91167	1.00000e+00	
			         1.91333	2.00000e+00	
			         1.91500	2.00000e+00	
			         1.91667	3.00000e+00	
			         1.91833	3.00000e+00	
			         1.92000	3.00000e+00	
			         1.92167	2.00000e+00	
			         1.92333	2.00000e+00	
			         1.92500	2.00000e+00	
			         1.92667	2.00000e+00	
			         1.92833	1.00000e+00	
			         1.93000	1.00000e+00	
			         1.93167	1.00000e+00	
			         1.93333	1.00000e+00	
			         1.93500	1.00000e+00	
			         1.93667	1.00000e+00	
			         1.93833	1.00000e+00	
			         1.94000	1.00000e+00	
			         1.94167	1.00000e+00	
			         1.94333	1.00000e+00	
			         1.94500	1.00000e+00	
			         1.94667	1.00000e+00	
			         1.94833	1.00000e+00	
			         1.95000	1.00000e+00	
			         1.95167	1.00000e+00	
			         1.95333	1.00000e+00	
			         1.95500	1.00000e+00	
			         1.95667	1.00000e+00	
			         1.95833	1.00000e+00	
			         1.96000	1.00000e+00	
			         1.96167	1.00000e+00	
			         1.96333	2.00000e+00	
			         1.96500	3.00000e+00	
			         1.96667	3.00000e+00	
			         1.96833	4.00000e+00	
			         1.97000	4.00000e+00	
			         1.97167	5.00000e+00	
			         1.97333	5.00000e+00	
			         1.97500	6.00000e+00	
			         1.97667	6.00000e+00	
			         1.97833	6.00000e+00	
			         1.98000	6.00000e+00	
			         1.98167	6.00000e+00	
			         1.98333	6.00000e+00	
			         1.98500	6.00000e+00	
			         1.98667	6.00000e+00	
			         1.98833	6.00000e+00	
			         1.99000	6.00000e+00	
			         1.99167	5.00000e+00	
			         1.99333	5.00000e+00	
			         1.99500	5.00000e+00	
			         1.99667	5.00000e+00	
			         1.99833	5.00000e+00	
			         2.00000	4.00000e+00	
			         2.00167	4.00000e+00	
			         2.00333	4.00000e+00	
			         2.00500	4.00000e+00	
			         2.00667	4.00000e+00	
			         2.00833	4.00000e+00	
			         2.01000	4.00000e+00	
			         2.01167	4.00000e+00	
			         2.01333	4.00000e+00	
			         2.01500	4.00000e+00	
			         2.01667	4.00000e+00	
			         2.01833	4.00000e+00	
			         2.02000	4.00000e+00	
			         2.02167	3.00000e+00	
			         2.02333	3.00000e+00	
			         2.02500	3.00000e+00	
			         2.02667	3.00000e+00	
			         2.02833	2.00000e+00	
			         2.03000	2.00000e+00	
			         2.03167	1.00000e+00	
			         2.03333	0.00000e+00	
			         2.03500	0.00000e+00	
			         2.03667	-1.00000e+00	
			         2.03833	-2.00000e+00	
			         2.04000	-3.00000e+00	
			         2.04167	-3.00000e+00	
			         2.04333	-4.00000e+00	
			         2.04500	-4.00000e+00	
			         2.04667	-5.00000e+00	
			         2.04833	-5.00000e+00	
			         2.05000	-5.00000e+00	
			         2.05167	-4.00000e+00	
			         2.05333	-4.00000e+00	
			         2.05500	-4.00000e+00	
			         2.05667	-3.00000e+00	
			         2.05833	-3.00000e+00	
			         2.06000	-2.00000e+00	
			         2.06167	-1.00000e+00	
			         2.06333	-1.00000e+00	
			         2.06500	0.00000e+00	
			         2.06667	0.00000e+00	
			         2.06833	1.00000e+00	
			         2.07000	1.00000e+00	
			         2.07167	2.00000e+00	
			         2.07333	2.00000e+00	
			         2.07500	2.00000e+00	
			         2.07667	3.00000e+00	
			         2.07833	2.00000e+00	
			         2.08000	2.00000e+00	
			         2.08167	2.00000e+00	
			         2.08333	2.00000e+00	
			         2.08500	1.00000e+00	
			         2.08667	1.00000e+00	
			         2.08833	1.00000e+00	
			         2.09000	0.00000e+00	
			         2.09167	0.00000e+00	
			         2.09333	0.00000e+00	
			         2.09500	0.00000e+00	
			         2.09667	-1.00000e+00	
			         2.09833	0.00000e+00	
			         2.10000	0.00000e+00	
			         2.10167	0.00000e+00	
			         2.10333	0.00000e+00	
			         2.10500	1.00000e+00	
			         2.10667	1.00000e+00	
			         2.10833	1.00000e+00	
			         2.11000	2.00000e+00	
			         2.11167	2.00000e+00	
			         2.11333	2.00000e+00	
			         2.11500	2.00000e+00	
			         2.11667	3.00000e+00	
			         2.11833	3.00000e+00	
			         2.12000	3.00000e+00	
			         2.12167	3.00000e+00	
			         2.12333	3.00000e+00	
			         2.12500	3.00000e+00	
			         2.12667	3.00000e+00	
			         2.12833	2.00000e+00	
			         2.13000	2.00000e+00	
			         2.13167	1.00000e+00	
			         2.13333	0.00000e+00	
			         2.13500	0.00000e+00	
			         2.13667	-1.00000e+00	
			         2.13833	-2.00000e+00	
			         2.14000	-3.00000e+00	
			         2.14167	-4.00000e+00	
			         2.14333	-5.00000e+00	
			         2.14500	-6.00000e+00	
			         2.14667	-7.00000e+00	
			         2.14833	-8.00000e+00	
			         2.15000	-9.00000e+00	
			         2.15167	-9.00000e+00	
			         2.15333	-1.00000e+01	
			         2.15500	-1.00000e+01	
			         2.15667	-1.00000e+01	
			         2.15833	-1.00000e+01	
			         2.16000	-1.00000e+01	
			         2.16167	-1.00000e+01	
			         2.16333	-1.00000e+01	
			         2.16500	-1.00000e+01	
			         2.16667	-9.00000e+00	
			         2.16833	-9.00000e+00	
			         2.17000	-8.00000e+00	
			         2.17167	-7.00000e+00	
			         2.17333	-7.00000e+00	
			         2.17500	-6.00000e+00	
			         2.17667	-5.00000e+00	
			         2.17833	-4.00000e+00	
			         2.18000	-3.00000e+00	
			         2.18167	-3.00000e+00	
			         2.18333	-2.00000e+00	
			         2.18500	-1.00000e+00	
			         2.18667	-1.00000e+00	
			         2.18833	0.00000e+00	
			         2.19000	1.00000e+00	
			         2.19167	1.00000e+00	
			         2.19333	2.00000e+00	
			         2.19500	2.00000e+00	
			         2.19667	3.00000e+00	
			         2.19833	3.00000e+00	
			         2.20000	4.00000e+00	
			         2.20167	4.00000e+00	
			         2.20333	5.00000e+00	
			         2.20500	5.00000e+00	
			         2.20667	5.00000e+00	
			         2.20833	5.00000e+00	
			         2.21000	6.00000e+00	
			         2.21167	6.00000e+00	
			         2.21333	6.00000e+00	
			         2.21500	6.00000e+00	
			         2.21667	6.00000e+00	
			         2.21833	6.00000e+00	
			         2.22000	6.00000e+00	
			         2.22167	5.00000e+00	
			         2.22333	5.00000e+00	
			         2.22500	5.00000e+00	
			         2.22667	5.00000e+00	
			         2.22833	4.00000e+00	
			         2.23000	4.00000e+00	
			         2.23167	3.00000e+00	
			         2.23333	3.00000e+00	
			         2.23500	2.00000e+00	
			         2.23667	2.00000e+00	
			         2.23833	2.00000e+00	
			         2.24000	1.00000e+00	
			         2.24167	1.00000e+00	
			         2.24333	1.00000e+00	
			         2.24500	1.00000e+00	
			         2.24667	1.00000e+00	
			         2.24833	2.00000e+00	
			         2.25000	2.00000e+00	
			         2.25167	2.00000e+00	
			         2.25333	3.00000e+00	
			         2.25500	3.00000e+00	
			         2.25667	4.00000e+00	
			         2.25833	5.00000e+00	
			         2.26000	6.00000e+00	
			         2.26167	7.00000e+00	
			         2.26333	9.00000e+00	
			         2.26500	1.10000e+01	
			         2.26667	1.40000e+01	
			         2.26833	1.60000e+01	
			         2.27000	1.90000e+01	
			         2.27167	2.20000e+01	
			         2.27333	2.50000e+01	
			         2.27500	2.80000e+01	
			         2.27667	3.00000e+01	
			         2.27833	3.10000e+01	
			         2.28000	3.10000e+01	
			         2.28167	3.00000e+01	
			         2.28333	2.70000e+01	
			         2.28500	2.40000e+01	
			         2.28667	1.90000e+01	
			         2.28833	1.20000e+01	
			         2.29000	4.00000e+00	
			         2.29167	-4.00000e+00	
			         2.29333	-1.30000e+01	
			         2.29500	-2.30000e+01	
			         2.29667	-3.30000e+01	
			         2.29833	-4.20000e+01	
			         2.30000	-5.10000e+01	
			         2.30167	-5.90000e+01	
			         2.30333	-6.50000e+01	
			         2.30500	-7.00000e+01	
			         2.30667	-7.30000e+01	
			         2.30833	-7.40000e+01	
			         2.31000	-7.30000e+01	
			         2.31167	-7.00000e+01	
			         2.31333	-6.60000e+01	
			         2.31500	-6.00000e+01	
			         2.31667	-5.40000e+01	
			         2.31833	-4.60000e+01	
			         2.32000	-3.80000e+01	
			         2.32167	-2.90000e+01	
			         2.32333	-2.10000e+01	
			         2.32500	-1.30000e+01	
			         2.32667	-6.00000e+00	
			         2.32833	1.00000e+00	
			         2.33000	6.00000e+00	
			         2.33167	1.10000e+01	
			         2.33333	1.60000e+01	
			         2.33500	1.90000e+01	
			         2.33667	2.20000e+01	
			         2.33833	2.40000e+01	
			         2.34000	2.50000e+01	
			         2.34167	2.60000e+01	
			         2.34333	2.60000e+01	
			         2.34500	2.70000e+01	
			         2.34667	2.60000e+01	
			         2.34833	2.60000e+01	
			         2.35000	2.50000e+01	
			         2.35167	2.50000e+01	
			         2.35333	2.40000e+01	
			         2.35500	2.30000e+01	
			         2.35667	2.30000e+01	
			         2.35833	2.20000e+01	
			         2.36000	2.20000e+01	
			         2.36167	2.10000e+01	
			         2.36333	2.10000e+01	
			         2.36500	2.10000e+01	
			         2.36667	2.10000e+01	
			         2.36833	2.10000e+01	
			         2.37000	2.00000e+01	
			         2.37167	2.00000e+01	
			         2.37333	2.00000e+01	
			         2.37500	1.90000e+01	
			         2.37667	1.90000e+01	
			         2.37833	1.80000e+01	
			         2.38000	1.70000e+01	
			         2.38167	1.70000e+01	
			         2.38333	1.60000e+01	
			         2.38500	1.50000e+01	
			         2.38667	1.40000e+01	
			         2.38833	1.40000e+01	
			         2.39000	1.30000e+01	
			         2.39167	1.30000e+01	
			         2.39333	1.30000e+01	
			         2.39500	1.20000e+01	
			         2.39667	1.20000e+01	
			         2.39833	1.20000e+01	
			         2.40000	1.20000e+01	
			         2.40167	1.20000e+01	
			         2.40333	1.10000e+01	
			         2.40500	1.10000e+01	
			         2.40667	1.10000e+01	
			         2.40833	1.10000e+01	
			         2.41000	1.10000e+01	
			         2.41167	1.00000e+01	
			         2.41333	1.00000e+01	
			         2.41500	9.00000e+00	
			         2.41667	9.00000e+00	
			         2.41833	9.00000e+00	
			         2.42000	8.00000e+00	
			         2.42167	8.00000e+00	
			         2.42333	8.00000e+00	
			         2.42500	8.00000e+00	
			         2.42667	7.00000e+00	
			         2.42833	7.00000e+00	
			         2.43000	7.00000e+00	
			         2.43167	7.00000e+00	
			         2.43333	7.00000e+00	
			         2.43500	7.00000e+00	
			         2.43667	7.00000e+00	
			         2.43833	7.00000e+00	
			         2.44000	7.00000e+00	
			         2.44167	7.00000e+00	
			         2.44333	7.00000e+00	
			         2.44500	7.00000e+00	
			         2.44667	6.00000e+00	
			         2.44833	6.00000e+00	
			         2.45000	5.00000e+00	
			         2.45167	4.00000e+00	
			         2.45333	4.00000e+00	
			         2.45500	3.00000e+00	
			         2.45667	2.00000e+00	
			         2.45833	2.00000e+00	
			         2.46000	1.00000e+00	
			         2.46167	1.00000e+00	
			         2.46333	0.00000e+00	
			         2.46500	0.00000e+00	
			         2.46667	0.00000e+00	
			         2.46833	0.00000e+00	
			         2.47000	0.00000e+00	
			         2.47167	0.00000e+00	
			         2.47333	0.00000e+00	
			         2.47500	0.00000e+00	
			         2.47667	0.00000e+00	
			         2.47833	0.00000e+00	
			         2.48000	0.00000e+00	
			         2.48167	1.00000e+00	
			         2.48333	1.00000e+00	
			         2.48500	1.00000e+00	
			         2.48667	2.00000e+00	
			         2.48833	2.00000e+00	
			         2.49000	2.00000e+00	
			         2.49167	2.00000e+00	
			         2.49333	2.00000e+00	
			         2.49500	2.00000e+00	
			         2.49667	2.00000e+00	
			         2.49833	2.00000e+00	
			         2.50000	1.00000e+00	
			         2.50167	1.00000e+00	
			         2.50333	0.00000e+00	
			         2.50500	0.00000e+00	
			         2.50667	-1.00000e+00	
			         2.50833	-1.00000e+00	
			         2.51000	-2.00000e+00	
			         2.51167	-3.00000e+00	
			         2.51333	-3.00000e+00	
			         2.51500	-4.00000e+00	
			         2.51667	-4.00000e+00	
			         2.51833	-5.00000e+00	
			         2.52000	-5.00000e+00	
			         2.52167	-6.00000e+00	
			         2.52333	-6.00000e+00	
			         2.52500	-7.00000e+00	
			         2.52667	-7.00000e+00	
			         2.52833	-7.00000e+00	
			         2.53000	-7.00000e+00	
			         2.53167	-7.00000e+00	
			         2.53333	-7.00000e+00	
			         2.53500	-7.00000e+00	
			         2.53667	-7.00000e+00	
			         2.53833	-7.00000e+00	
			         2.54000	-7.00000e+00	
			         2.54167	-7.00000e+00	
			         2.54333	-7.00000e+00	
			         2.54500	-7.00000e+00	
			         2.54667	-7.00000e+00	
			         2.54833	-7.00000e+00	
			         2.55000	-7.00000e+00	
			         2.55167	-7.00000e+00	
			         2.55333	-7.00000e+00	
			         2.55500	-7.00000e+00	
			         2.55667	-7.00000e+00	
			         2.55833	-7.00000e+00	
			         2.56000	-7.00000e+00	
			         2.56167	-7.00000e+00	
			         2.56333	-7.00000e+00	
			         2.56500	-7.00000e+00	
			         2.56667	-7.00000e+00	
			         2.56833	-7.00000e+00	
			         2.57000	-7.00000e+00	
			         2.57167	-6.00000e+00	
			         2.57333	-6.00000e+00	
			         2.57500	-6.00000e+00	
			         2.57667	-6.00000e+00	
			         2.57833	-7.00000e+00	
			         2.58000	-7.00000e+00	
			         2.58167	-7.00000e+00	
			         2.58333	-7.00000e+00	
			         2.58500	-7.00000e+00	
			         2.58667	-7.00000e+00	
			         2.58833	-8.00000e+00	
			         2.59000	-8.00000e+00	
			         2.59167	-8.00000e+00	
			         2.59333	-9.00000e+00	
			         2.59500	-9.00000e+00	
			         2.59667	-9.00000e+00	
			         2.59833	-1.00000e+01	
			         2.60000	-1.00000e+01	
			         2.60167	-1.00000e+01	
			         2.60333	-1.00000e+01	
			         2.60500	-1.00000e+01	
			         2.60667	-1.00000e+01	
			         2.60833	-9.00000e+00	
			         2.61000	-9.00000e+00	
			         2.61167	-8.00000e+00	
			         2.61333	-7.00000e+00	
			         2.61500	-6.00000e+00	
			         2.61667	-5.00000e+00	
			         2.61833	-4.00000e+00	
			         2.62000	-3.00000e+00	
			         2.62167	-2.00000e+00	
			         2.62333	-1.00000e+00	
			         2.62500	0.00000e+00	
			         2.62667	0.00000e+00	
			         2.62833	1.00000e+00	
			         2.63000	1.00000e+00	
			         2.63167	1.00000e+00	
			         2.63333	1.00000e+00	
			         2.63500	1.00000e+00	
			         2.63667	1.00000e+00	
			         2.63833	1.00000e+00	
			         2.64000	1.00000e+00	
			         2.64167	1.00000e+00	
			         2.64333	1.00000e+00	
			         2.64500	1.00000e+00	
			         2.64667	2.00000e+00	
			         2.64833	2.00000e+00	
			         2.65000	2.00000e+00	
			         2.65167	3.00000e+00	
			         2.65333	3.00000e+00	
			         2.65500	4.00000e+00	
			         2.65667	4.00000e+00	
			         2.65833	5.00000e+00	
			         2.66000	5.00000e+00	
			         2.66167	5.00000e+00	
			         2.66333	6.00000e+00	
			         2.66500	6.00000e+00	
			         2.66667	6.00000e+00	
			         2.66833	6.00000e+00	
			         2.67000	6.00000e+00	
			         2.67167	6.00000e+00	
			         2.67333	6.00000e+00	
			         2.67500	6.00000e+00	
			         2.67667	6.00000e+00	
			         2.67833	6.00000e+00	
			         2.68000	6.00000e+00	
			         2.68167	6.00000e+00	
			         2.68333	6.00000e+00	
			         2.68500	6.00000e+00	
			         2.68667	6.00000e+00	
			         2.68833	7.00000e+00	
			         2.69000	7.00000e+00	
			         2.69167	7.00000e+00	
			         2.69333	8.00000e+00	
			         2.69500	8.00000e+00	
			         2.69667	8.00000e+00	
			         2.69833	8.00000e+00	
			         2.70000	7.00000e+00	
			         2.70167	7.00000e+00	
			         2.70333	7.00000e+00	
			         2.70500	6.00000e+00	
			         2.70667	6.00000e+00	
			         2.70833	5.00000e+00	
			         2.71000	5.00000e+00	
			         2.71167	4.00000e+00	
			         2.71333	4.00000e+00	
			         2.71500	4.00000e+00	
			         2.71667	3.00000e+00	
			         2.71833	3.00000e+00	
			         2.72000	3.00000e+00	
			         2.72167	3.00000e+00	
			         2.72333	3.00000e+00	
			         2.72500	3.00000e+00	
			         2.72667	3.00000e+00	
			         2.72833	3.00000e+00	
			         2.73000	3.00000e+00	
			         2.73167	3.00000e+00	
			         2.73333	3.00000e+00	
			         2.73500	3.00000e+00	
			         2.73667	4.00000e+00	
			         2.73833	3.00000e+00	
			         2.74000	3.00000e+00	
			         2.74167	3.00000e+00	
			         2.74333	3.00000e+00	
			         2.74500	2.00000e+00	
			         2.74667	2.00000e+00	
			         2.74833	1.00000e+00	
			         2.75000	1.00000e+00	
			         2.75167	0.00000e+00	
			         2.75333	-1.00000e+00	
			         2.75500	-1.00000e+00	
			         2.75667	-1.00000e+00	
			         2.75833	-1.00000e+00	
			         2.76000	-1.00000e+00	
			         2.76167	-1.00000e+00	
			         2.76333	0.00000e+00	
			         2.76500	0.00000e+00	
			         2.76667	0.00000e+00	
			         2.76833	1.00000e+00	
			         2.77000	1.00000e+00	
			         2.77167	1.00000e+00	
			         2.77333	2.00000e+00	
			         2.77500	2.00000e+00	
			         2.77667	2.00000e+00	
			         2.77833	2.00000e+00	
			         2.78000	2.00000e+00	
			         2.78167	1.00000e+00	
			         2.78333	1.00000e+00	
			         2.78500	1.00000e+00	
			         2.78667	1.00000e+00	
			         2.78833	1.00000e+00	
			         2.79000	1.00000e+00	
			         2.79167	1.00000e+00	
			         2.79333	1.00000e+00	
			         2.79500	1.00000e+00	
			         2.79667	1.00000e+00	
			         2.79833	1.00000e+00	
			         2.80000	2.00000e+00	
			         2.80167	2.00000e+00	
			         2.80333	2.00000e+00	
			         2.80500	2.00000e+00	
			         2.80667	3.00000e+00	
			         2.80833	3.00000e+00	
			         2.81000	3.00000e+00	
			         2.81167	3.00000e+00	
			         2.81333	3.00000e+00	
			         2.81500	3.00000e+00	
			         2.81667	2.00000e+00	
			         2.81833	2.00000e+00	
			         2.82000	2.00000e+00	
			         2.82167	1.00000e+00	
			         2.82333	1.00000e+00	
			         2.82500	0.00000e+00	
			         2.82667	0.00000e+00	
			         2.82833	0.00000e+00	
			         2.83000	-1.00000e+00	
			         2.83167	-1.00000e+00	
			         2.83333	-1.00000e+00	
			         2.83500	-2.00000e+00	
			         2.83667	-2.00000e+00	
			         2.83833	-2.00000e+00	
			         2.84000	-3.00000e+00	
			         2.84167	-3.00000e+00	
			         2.84333	-3.00000e+00	
			         2.84500	-3.00000e+00	
			         2.84667	-3.00000e+00	
			         2.84833	-3.00000e+00	
			         2.85000	-2.00000e+00	
			         2.85167	-2.00000e+00	
			         2.85333	-2.00000e+00	
			         2.85500	-1.00000e+00	
			         2.85667	-1.00000e+00	
			         2.85833	0.00000e+00	
			         2.86000	0.00000e+00	
			         2.86167	0.00000e+00	
			         2.86333	1.00000e+00	
			         2.86500	1.00000e+00	
			         2.86667	1.00000e+00	
			         2.86833	0.00000e+00	
			         2.87000	0.00000e+00	
			         2.87167	0.00000e+00	
			         2.87333	-1.00000e+00	
			         2.87500	-1.00000e+00	
			         2.87667	-1.00000e+00	
			         2.87833	-1.00000e+00	
			         2.88000	-2.00000e+00	
			         2.88167	-2.00000e+00	
			         2.88333	-2.00000e+00	
			         2.88500	-2.00000e+00	
			         2.88667	-2.00000e+00	
			         2.88833	-2.00000e+00	
			         2.89000	-2.00000e+00	
			         2.89167	-2.00000e+00	
			         2.89333	-2.00000e+00	
			         2.89500	-2.00000e+00	
			         2.89667	-2.00000e+00	
			         2.89833	-3.00000e+00	
			         2.90000	-3.00000e+00	
			         2.90167	-3.00000e+00	
			         2.90333	-4.00000e+00	
			         2.90500	-4.00000e+00	
			         2.90667	-4.00000e+00	
			         2.90833	-4.00000e+00	
			         2.91000	-4.00000e+00	
			         2.91167	-4.00000e+00	
			         2.91333	-3.00000e+00	
			         2.91500	-3.00000e+00	
			         2.91667	-2.00000e+00	
			         2.91833	-2.00000e+00	
			         2.92000	-1.00000e+00	
			         2.92167	0.00000e+00	
			         2.92333	1.00000e+00	
			         2.92500	2.00000e+00	
			         2.92667	2.00000e+00	
			         2.92833	3.00000e+00	
			         2.93000	3.00000e+00	
			         2.93167	3.00000e+00	
			         2.93333	3.00000e+00	
			         2.93500	3.00000e+00	
			         2.93667	2.00000e+00	
			         2.93833	2.00000e+00	
			         2.94000	1.00000e+00	
			         2.94167	0.00000e+00	
			         2.94333	0.00000e+00	
			         2.94500	-1.00000e+00	
			         2.94667	-1.00000e+00	
			         2.94833	-1.00000e+00	
			         2.95000	-1.00000e+00	
			         2.95167	-1.00000e+00	
			         2.95333	-1.00000e+00	
			         2.95500	0.00000e+00	
			         2.95667	1.00000e+00	
			         2.95833	2.00000e+00	
			         2.96000	2.00000e+00	
			         2.96167	3.00000e+00	
			         2.96333	4.00000e+00	
			         2.96500	5.00000e+00	
			         2.96667	6.00000e+00	
			         2.96833	7.00000e+00	
			         2.97000	7.00000e+00	
			         2.97167	7.00000e+00	
			         2.97333	8.00000e+00	
			         2.97500	8.00000e+00	
			         2.97667	8.00000e+00	
			         2.97833	8.00000e+00	
			         2.98000	7.00000e+00	
			         2.98167	7.00000e+00	
			         2.98333	7.00000e+00	
			         2.98500	6.00000e+00	
			         2.98667	6.00000e+00	
			         2.98833	6.00000e+00	
			         2.99000	6.00000e+00	
			         2.99167	5.00000e+00	
			         2.99333	5.00000e+00	
			         2.99500	5.00000e+00	
			         2.99667	5.00000e+00	
			         2.99833	5.00000e+00	
			         3.00000	5.00000e+00	
			         3.00167	5.00000e+00	
			         3.00333	5.00000e+00	
			         3.00500	5.00000e+00	
			         3.00667	5.00000e+00	
			         3.00833	5.00000e+00	
			         3.01000	5.00000e+00	
			         3.01167	4.00000e+00	
			         3.01333	4.00000e+00	
			         3.01500	3.00000e+00	
			         3.01667	3.00000e+00	
			         3.01833	2.00000e+00	
			         3.02000	2.00000e+00	
			         3.02167	1.00000e+00	
			         3.02333	1.00000e+00	
			         3.02500	0.00000e+00	
			         3.02667	-1.00000e+00	
			         3.02833	-1.00000e+00	
			         3.03000	-1.00000e+00	
			         3.03167	-2.00000e+00	
			         3.03333	-2.00000e+00	
			         3.03500	-2.00000e+00	
			         3.03667	-2.00000e+00	
			         3.03833	-2.00000e+00	
			         3.04000	-2.00000e+00	
			         3.04167	-2.00000e+00	
			         3.04333	-2.00000e+00	
			         3.04500	-2.00000e+00	
			         3.04667	-2.00000e+00	
			         3.04833	-2.00000e+00	
			         3.05000	-2.00000e+00	
			         3.05167	-1.00000e+00	
			         3.05333	-1.00000e+00	
			         3.05500	-1.00000e+00	
			         3.05667	-1.00000e+00	
			         3.05833	0.00000e+00	
			         3.06000	0.00000e+00	
			         3.06167	0.00000e+00	
			         3.06333	1.00000e+00	
			         3.06500	1.00000e+00	
			         3.06667	1.00000e+00	
			         3.06833	1.00000e+00	
			         3.07000	1.00000e+00	
			         3.07167	1.00000e+00	
			         3.07333	0.00000e+00	
			         3.07500	0.00000e+00	
			         3.07667	0.00000e+00	
			         3.07833	-1.00000e+00	
			         3.08000	-1.00000e+00	
			         3.08167	-1.00000e+00	
			         3.08333	-1.00000e+00	
			         3.08500	-1.00000e+00	
			         3.08667	-1.00000e+00	
			         3.08833	-1.00000e+00	
			         3.09000	-1.00000e+00	
			         3.09167	-1.00000e+00	
			         3.09333	-1.00000e+00	
			         3.09500	-1.00000e+00	
			         3.09667	-1.00000e+00	
			         3.09833	-1.00000e+00	
			         3.10000	-1.00000e+00	
			         3.10167	-2.00000e+00	
			         3.10333	-2.00000e+00	
			         3.10500	-2.00000e+00	
			         3.10667	-2.00000e+00	
			         3.10833	-2.00000e+00	
			         3.11000	-2.00000e+00	
			         3.11167	-2.00000e+00	
			         3.11333	-2.00000e+00	
			         3.11500	-2.00000e+00	
			         3.11667	-1.00000e+00	
			         3.11833	-1.00000e+00	
			         3.12000	-1.00000e+00	
			         3.12167	-1.00000e+00	
			         3.12333	-1.00000e+00	
			         3.12500	-1.00000e+00	
			         3.12667	-1.00000e+00	
			         3.12833	-1.00000e+00	
			         3.13000	-1.00000e+00	
			         3.13167	-1.00000e+00	
			         3.13333	-1.00000e+00	
			         3.13500	-1.00000e+00	
			         3.13667	-1.00000e+00	
			         3.13833	-1.00000e+00	
			         3.14000	-1.00000e+00	
			         3.14167	-1.00000e+00	
			         3.14333	0.00000e+00	
			         3.14500	0.00000e+00	
			         3.14667	0.00000e+00	
			         3.14833	0.00000e+00	
			         3.15000	-1.00000e+00	
			         3.15167	-1.00000e+00	
			         3.15333	-1.00000e+00	
			         3.15500	-2.00000e+00	
			         3.15667	-2.00000e+00	
			         3.15833	-3.00000e+00	
			         3.16000	-3.00000e+00	
			         3.16167	-4.00000e+00	
			         3.16333	-4.00000e+00	
			         3.16500	-5.00000e+00	
			         3.16667	-5.00000e+00	
			         3.16833	-5.00000e+00	
			         3.17000	-5.00000e+00	
			         3.17167	-5.00000e+00	
			         3.17333	-5.00000e+00	
			         3.17500	-4.00000e+00	
			         3.17667	-4.00000e+00	
			         3.17833	-3.00000e+00	
			         3.18000	-2.00000e+00	
			         3.18167	-2.00000e+00	
			         3.18333	-1.00000e+00	
			         3.18500	0.00000e+00	
			         3.18667	0.00000e+00	
			         3.18833	1.00000e+00	
			         3.19000	1.00000e+00	
			         3.19167	1.00000e+00	
			         3.19333	1.00000e+00	
			         3.19500	1.00000e+00	
			         3.19667	1.00000e+00	
			         3.19833	1.00000e+00	
			         3.20000	0.00000e+00	
			         3.20167	0.00000e+00	
			         3.20333	-1.00000e+00	
			         3.20500	-1.00000e+00	
			         3.20667	-1.00000e+00	
			         3.20833	-2.00000e+00	
			         3.21000	-2.00000e+00	
			         3.21167	-2.00000e+00	
			         3.21333	-2.00000e+00	
			         3.21500	-2.00000e+00	
			         3.21667	-2.00000e+00	
			         3.21833	-2.00000e+00	
			         3.22000	-2.00000e+00	
			         3.22167	-2.00000e+00	
			         3.22333	-1.00000e+00	
			         3.22500	-1.00000e+00	
			         3.22667	-1.00000e+00	
			         3.22833	0.00000e+00	
			         3.23000	0.00000e+00	
			         3.23167	0.00000e+00	
			         3.23333	0.00000e+00	
			         3.23500	0.00000e+00	
			         3.23667	-1.00000e+00	
			         3.23833	-1.00000e+00	
			         3.24000	-2.00000e+00	
			         3.24167	-3.00000e+00	
			         3.24333	-4.00000e+00	
			         3.24500	-5.00000e+00	
			         3.24667	-6.00000e+00	
			         3.24833	-7.00000e+00	
			         3.25000	-8.00000e+00	
			         3.25167	-8.00000e+00	
			         3.25333	-9.00000e+00	
			         3.25500	-9.00000e+00	
			         3.25667	-1.00000e+01	
			         3.25833	-1.00000e+01	
			         3.26000	-1.00000e+01	
			         3.26167	-1.10000e+01	
			         3.26333	-1.10000e+01	
			         3.26500	-1.10000e+01	
			         3.26667	-1.10000e+01	
			         3.26833	-1.10000e+01	
			         3.27000	-1.10000e+01	
			         3.27167	-1.20000e+01	
			         3.27333	-1.20000e+01	
			         3.27500	-1.20000e+01	
			         3.27667	-1.20000e+01	
			         3.27833	-1.20000e+01	
			         3.28000	-1.20000e+01	
			         3.28167	-1.10000e+01	
			         3.28333	-1.10000e+01	
			         3.28500	-1.00000e+01	
			         3.28667	-1.00000e+01	
			         3.28833	-9.00000e+00	
			         3.29000	-8.00000e+00	
			         3.29167	-7.00000e+00	
			         3.29333	-6.00000e+00	
			         3.29500	-5.00000e+00	
			         3.29667	-4.00000e+00	
			         3.29833	-3.00000e+00	
			         3.30000	-2.00000e+00	
			         3.30167	-1.00000e+00	
			         3.30333	-1.00000e+00	
			         3.30500	0.00000e+00	
			         3.30667	1.00000e+00	
			         3.30833	1.00000e+00	
			         3.31000	2.00000e+00	
			         3.31167	2.00000e+00	
			         3.31333	2.00000e+00	
			         3.31500	2.00000e+00	
			         3.31667	2.00000e+00	
			         3.31833	2.00000e+00	
			         3.32000	2.00000e+00	
			         3.32167	2.00000e+00	
			         3.32333	2.00000e+00	
			         3.32500	2.00000e+00	
			         3.32667	2.00000e+00	
			         3.32833	1.00000e+00	
			         3.33000	1.00000e+00	
			         3.33167	1.00000e+00	
			         3.33333	1.00000e+00	
			         3.33500	1.00000e+00	
			         3.33667	1.00000e+00	
			         3.33833	1.00000e+00	
			         3.34000	1.00000e+00	
			         3.34167	1.00000e+00	
			         3.34333	1.00000e+00	
			         3.34500	1.00000e+00	
			         3.34667	1.00000e+00	
			         3.34833	1.00000e+00	
			         3.35000	1.00000e+00	
			         3.35167	1.00000e+00	
			         3.35333	1.00000e+00	
			         3.35500	1.00000e+00	
			         3.35667	1.00000e+00	
			         3.35833	1.00000e+00	
			         3.36000	1.00000e+00	
			         3.36167	1.00000e+00	
			         3.36333	1.00000e+00	
			         3.36500	1.00000e+00	
			         3.36667	2.00000e+00	
			         3.36833	4.00000e+00	
			         3.37000	5.00000e+00	
			         3.37167	7.00000e+00	
			         3.37333	1.00000e+01	
			         3.37500	1.20000e+01	
			         3.37667	1.50000e+01	
			         3.37833	1.80000e+01	
			         3.38000	2.10000e+01	
			         3.38167	2.30000e+01	
			         3.38333	2.40000e+01	
			         3.38500	2.50000e+01	
			         3.38667	2.40000e+01	
			         3.38833	2.20000e+01	
			         3.39000	1.90000e+01	
			         3.39167	1.40000e+01	
			         3.39333	8.00000e+00	
			         3.39500	1.00000e+00	
			         3.39667	-8.00000e+00	
			         3.39833	-1.70000e+01	
			         3.40000	-2.80000e+01	
			         3.40167	-3.80000e+01	
			         3.40333	-4.90000e+01	
			         3.40500	-5.90000e+01	
			         3.40667	-6.90000e+01	
			         3.40833	-7.70000e+01	
			         3.41000	-8.40000e+01	
			         3.41167	-8.90000e+01	
			         3.41333	-9.20000e+01	
			         3.41500	-9.30000e+01	
			         3.41667	-9.10000e+01	
			         3.41833	-8.80000e+01	
			         3.42000	-8.30000e+01	
			         3.42167	-7.70000e+01	
			         3.42333	-6.90000e+01	
			         3.42500	-6.10000e+01	
			         3.42667	-5.10000e+01	
			         3.42833	-4.20000e+01	
			         3.43000	-3.30000e+01	
			         3.43167	-2.40000e+01	
			         3.43333	-1.60000e+01	
			         3.43500	-9.00000e+00	
			         3.43667	-3.00000e+00	
			         3.43833	2.00000e+00	
			         3.44000	6.00000e+00	
			         3.44167	1.00000e+01	
			         3.44333	1.20000e+01	
			         3.44500	1.40000e+01	
			         3.44667	1.60000e+01	
			         3.44833	1.70000e+01	
			         3.45000	1.70000e+01	
			         3.45167	1.70000e+01	
			         3.45333	1.80000e+01	
			         3.45500	1.70000e+01	
			         3.45667	1.70000e+01	
			         3.45833	1.70000e+01	
			         3.46000	1.60000e+01	
			         3.46167	1.60000e+01	
			         3.46333	1.50000e+01	
			         3.46500	1.50000e+01	
