Velocity (TVI), in cm/s

Time (s) :	Trace 1 : 		Ecg : 		
0.00513   	-5.73488e-01		         0.00000	5.00000e+00	
0.01152   	-2.28542e-01		         0.00167	1.10000e+01	
0.01791   	2.66316e-01		         0.00333	1.70000e+01	
0.02430   	4.68364e-01		         0.00500	2.50000e+01	
0.03069   	6.51814e-01		         0.00667	3.30000e+01	
0.03707   	1.31671e-01		         0.00833	4.20000e+01	
0.04347   	-2.43965e-01		         0.01000	5.20000e+01	
0.04986   	-1.01647e+00		         0.01167	6.30000e+01	
0.05626   	-1.77921e+00		         0.01333	7.30000e+01	
0.06265   	-2.39243e+00		         0.01500	8.30000e+01	
0.06904   	-1.95603e+00		         0.01667	9.30000e+01	
0.07543   	-1.40342e+00		         0.01833	1.01000e+02	
0.08182   	-5.52386e-01		         0.02000	1.08000e+02	
0.08821   	9.07559e-01		         0.02167	1.13000e+02	
0.09460   	2.40086e+00		         0.02333	1.17000e+02	
0.10099   	3.23368e+00		         0.02500	1.17000e+02	
0.10739   	3.91806e+00		         0.02667	1.16000e+02	
0.11377   	4.35583e+00		         0.02833	1.12000e+02	
0.12017   	4.68115e+00		         0.03000	1.06000e+02	
0.12656   	4.99469e+00		         0.03167	9.80000e+01	
0.13295   	5.13625e+00		         0.03333	8.80000e+01	
0.13934   	5.01627e+00		         0.03500	7.60000e+01	
0.14573   	5.04205e+00		         0.03667	6.40000e+01	
0.15212   	4.95726e+00		         0.03833	5.10000e+01	
0.15851   	4.85488e+00		         0.04000	3.80000e+01	
0.16490   	4.73426e+00		         0.04167	2.50000e+01	
0.17130   	4.81507e+00		         0.04333	1.40000e+01	
0.17769   	4.73583e+00		         0.04500	3.00000e+00	
0.18408   	4.74778e+00		         0.04667	-6.00000e+00	
0.19047   	4.72198e+00		         0.04833	-1.50000e+01	
0.19686   	4.68130e+00		         0.05000	-2.10000e+01	
0.20325   	4.60933e+00		         0.05167	-2.70000e+01	
0.20964   	4.66913e+00		         0.05333	-3.00000e+01	
0.21603   	4.66216e+00		         0.05500	-3.30000e+01	
0.22242   	4.56445e+00		         0.05667	-3.50000e+01	
0.22882   	4.58004e+00		         0.05833	-3.50000e+01	
0.23521   	4.55071e+00		         0.06000	-3.50000e+01	
0.24160   	4.43862e+00		         0.06167	-3.50000e+01	
0.24799   	4.36082e+00		         0.06333	-3.30000e+01	
0.25438   	4.30661e+00		         0.06500	-3.20000e+01	
0.26077   	4.12127e+00		         0.06667	-3.10000e+01	
0.26716   	3.94691e+00		         0.06833	-2.90000e+01	
0.27355   	3.74444e+00		         0.07000	-2.70000e+01	
0.27994   	3.52262e+00		         0.07167	-2.60000e+01	
0.28634   	3.31173e+00		         0.07333	-2.40000e+01	
0.29273   	3.17804e+00		         0.07500	-2.20000e+01	
0.29912   	3.07285e+00		         0.07667	-2.10000e+01	
0.30551   	2.92313e+00		         0.07833	-2.00000e+01	
0.31190   	2.78395e+00		         0.08000	-1.90000e+01	
0.31829   	2.65890e+00		         0.08167	-1.80000e+01	
0.32468   	2.45444e+00		         0.08333	-1.70000e+01	
0.33107   	2.21067e+00		         0.08500	-1.70000e+01	
0.33747   	2.12716e+00		         0.08667	-1.70000e+01	
0.34386   	1.90608e+00		         0.08833	-1.70000e+01	
0.35025   	1.74209e+00		         0.09000	-1.60000e+01	
0.35664   	1.62235e+00		         0.09167	-1.60000e+01	
0.36303   	1.51494e+00		         0.09333	-1.60000e+01	
0.36943   	1.30332e+00		         0.09500	-1.60000e+01	
0.37581   	1.10989e+00		         0.09667	-1.60000e+01	
0.38220   	7.36355e-01		         0.09833	-1.60000e+01	
0.38860   	2.35721e-01		         0.10000	-1.60000e+01	
0.39498   	-4.16052e-01		         0.10167	-1.60000e+01	
0.40138   	-1.01180e+00		         0.10333	-1.60000e+01	
0.40777   	-1.28028e+00		         0.10500	-1.60000e+01	
0.41453   	-1.43661e+00		         0.10667	-1.60000e+01	
0.42055   	-1.21116e+00		         0.10833	-1.60000e+01	
0.42694   	-6.61992e-01		         0.11000	-1.60000e+01	
0.43333   	-7.56487e-02		         0.11167	-1.60000e+01	
0.43973   	2.31659e-01		         0.11333	-1.60000e+01	
0.44611   	3.53716e-01		         0.11500	-1.60000e+01	
0.45251   	5.08142e-01		         0.11667	-1.60000e+01	
0.45890   	3.43261e-01		         0.11833	-1.50000e+01	
0.46529   	-1.37845e-01		         0.12000	-1.50000e+01	
0.47168   	-2.79274e-01		         0.12167	-1.40000e+01	
0.47807   	-5.42979e-01		         0.12333	-1.30000e+01	
0.48446   	-1.12072e+00		         0.12500	-1.30000e+01	
0.49086   	-1.51431e+00		         0.12667	-1.20000e+01	
0.49724   	-1.83262e+00		         0.12833	-1.10000e+01	
0.50363   	-2.68509e+00		         0.13000	-1.00000e+01	
0.51003   	-3.33537e+00		         0.13167	-9.00000e+00	
0.51642   	-4.09513e+00		         0.13333	-9.00000e+00	
0.52281   	-4.90989e+00		         0.13500	-8.00000e+00	
0.52920   	-5.46539e+00		         0.13667	-8.00000e+00	
0.53559   	-5.76866e+00		         0.13833	-7.00000e+00	
0.54198   	-5.83141e+00		         0.14000	-7.00000e+00	
0.54837   	-5.75249e+00		         0.14167	-7.00000e+00	
0.55476   	-5.69999e+00		         0.14333	-7.00000e+00	
0.56115   	-5.57929e+00		         0.14500	-6.00000e+00	
0.56755   	-5.32010e+00		         0.14667	-6.00000e+00	
0.57394   	-5.13410e+00		         0.14833	-6.00000e+00	
0.58033   	-4.81599e+00		         0.15000	-5.00000e+00	
0.58672   	-4.38999e+00		         0.15167	-5.00000e+00	
0.59311   	-4.04858e+00		         0.15333	-5.00000e+00	
0.59950   	-3.74547e+00		         0.15500	-4.00000e+00	
0.60589   	-3.31728e+00		         0.15667	-4.00000e+00	
0.61228   	-2.98495e+00		         0.15833	-3.00000e+00	
0.61868   	-2.69039e+00		         0.16000	-3.00000e+00	
0.62507   	-2.46312e+00		         0.16167	-2.00000e+00	
0.63146   	-2.28488e+00		         0.16333	-2.00000e+00	
0.63785   	-2.27348e+00		         0.16500	-1.00000e+00	
0.64424   	-2.18642e+00		         0.16667	-1.00000e+00	
0.65063   	-2.11033e+00		         0.16833	0.00000e+00	
0.65702   	-2.14081e+00		         0.17000	0.00000e+00	
0.66378   	-2.09783e+00		         0.17167	0.00000e+00	
0.66981   	-2.01272e+00		         0.17333	1.00000e+00	
0.67620   	-2.04323e+00		         0.17500	1.00000e+00	
0.68259   	-1.88091e+00		         0.17667	2.00000e+00	
0.68898   	-1.54609e+00		         0.17833	2.00000e+00	
0.69537   	-1.25578e+00		         0.18000	2.00000e+00	
0.70176   	-9.97583e-01		         0.18167	3.00000e+00	
0.70815   	-7.31819e-01		         0.18333	3.00000e+00	
0.71454   	-6.62224e-01		         0.18500	3.00000e+00	
0.72094   	-5.81363e-01		         0.18667	4.00000e+00	
0.72732   	-5.67921e-01		         0.18833	4.00000e+00	
0.73371   	-4.35962e-01		         0.19000	4.00000e+00	
0.74011   	-3.01092e-01		         0.19167	5.00000e+00	
0.74655   	-2.05327e-01		         0.19333	5.00000e+00	
0.75289   	-1.13094e-01		         0.19500	5.00000e+00	
0.75928   	-7.62505e-02		         0.19667	6.00000e+00	
0.76567   	-9.56091e-02		         0.19833	6.00000e+00	
0.77207   	-8.76676e-02		         0.20000	6.00000e+00	
0.77845   	-5.14337e-02		         0.20167	6.00000e+00	
0.78485   	-7.67876e-02		         0.20333	6.00000e+00	
0.79124   	-6.81700e-02		         0.20500	6.00000e+00	
0.79763   	-9.60761e-02		         0.20667	6.00000e+00	
0.80402   	-1.82868e-01		         0.20833	7.00000e+00	
0.81041   	-2.44946e-01		         0.21000	7.00000e+00	
0.81680   	-3.70267e-01		         0.21167	7.00000e+00	
0.82319   	-4.54364e-01		         0.21333	7.00000e+00	
0.82958   	-5.30942e-01		         0.21500	7.00000e+00	
0.83598   	-5.58291e-01		         0.21667	7.00000e+00	
0.84237   	-6.20415e-01		         0.21833	8.00000e+00	
0.84876   	-5.88253e-01		         0.22000	8.00000e+00	
0.85515   	-5.84279e-01		         0.22167	8.00000e+00	
0.86154   	-6.00686e-01		         0.22333	7.00000e+00	
0.86793   	-6.41347e-01		         0.22500	7.00000e+00	
0.87432   	-6.36591e-01		         0.22667	7.00000e+00	
0.88071   	-6.57956e-01		         0.22833	6.00000e+00	
0.88710   	-7.33620e-01		         0.23000	6.00000e+00	
0.89349   	-8.32045e-01		         0.23167	6.00000e+00	
0.89989   	-1.03769e+00		         0.23333	6.00000e+00	
0.90628   	-1.44612e+00		         0.23500	6.00000e+00	
0.91276   	-2.03760e+00		         0.23667	6.00000e+00	
0.91906   	-2.99856e+00		         0.23833	7.00000e+00	
0.92545   	-3.85019e+00		         0.24000	7.00000e+00	
0.93184   	-4.77144e+00		         0.24167	8.00000e+00	
0.93823   	-5.52139e+00		         0.24333	8.00000e+00	
0.94462   	-6.13321e+00		         0.24500	9.00000e+00	
0.95102   	-6.27262e+00		         0.24667	1.00000e+01	
0.95741   	-6.44434e+00		         0.24833	1.10000e+01	
0.96380   	-6.42454e+00		         0.25000	1.20000e+01	
0.97019   	-5.97872e+00		         0.25167	1.30000e+01	
0.97658   	-5.58319e+00		         0.25333	1.40000e+01	
0.98297   	-5.15120e+00		         0.25500	1.50000e+01	
0.98936   	-4.82721e+00		         0.25667	1.60000e+01	
0.99582   	-4.42181e+00		         0.25833	1.70000e+01	
1.00215   	-4.42137e+00		         0.26000	1.80000e+01	
1.00853   	-4.40073e+00		         0.26167	1.80000e+01	
1.01493   	-4.46611e+00		         0.26333	1.90000e+01	
1.02132   	-4.40279e+00		         0.26500	2.00000e+01	
1.02771   	-4.06779e+00		         0.26667	2.10000e+01	
1.03410   	-3.70513e+00		         0.26833	2.20000e+01	
1.04049   	-3.15190e+00		         0.27000	2.20000e+01	
1.04688   	-2.33004e+00		         0.27167	2.30000e+01	
1.05328   	-1.23509e+00		         0.27333	2.40000e+01	
1.05966   	-3.66066e-01		         0.27500	2.40000e+01	
1.06605   	3.86552e-01		         0.27667	2.50000e+01	
1.07245   	1.20596e+00		         0.27833	2.60000e+01	
1.07884   	1.07081e+00		         0.28000	2.60000e+01	
1.08523   	5.32798e-01		         0.28167	2.70000e+01	
1.09162   	-6.09778e-01		         0.28333	2.70000e+01	
1.09801   	-1.82163e+00		         0.28500	2.80000e+01	
1.10440   	-2.42975e+00		         0.28667	2.90000e+01	
1.11079   	-2.04520e+00		         0.28833	2.90000e+01	
1.11719   	-1.35805e+00		         0.29000	3.00000e+01	
1.12358   	3.38990e-02		         0.29167	3.10000e+01	
1.12997   	1.78656e+00		         0.29333	3.10000e+01	
1.13636   	2.84115e+00		         0.29500	3.20000e+01	
1.14275   	3.64323e+00		         0.29667	3.30000e+01	
1.14914   	4.35435e+00		         0.29833	3.30000e+01	
1.15553   	4.82721e+00		         0.30000	3.40000e+01	
1.16192   	5.05940e+00		         0.30167	3.50000e+01	
1.16831   	5.19875e+00		         0.30333	3.50000e+01	
1.17471   	5.30668e+00		         0.30500	3.50000e+01	
1.18110   	5.25485e+00		         0.30667	3.60000e+01	
1.18749   	5.18472e+00		         0.30833	3.60000e+01	
1.19388   	5.06730e+00		         0.31000	3.60000e+01	
1.20027   	4.85207e+00		         0.31167	3.60000e+01	
1.20666   	4.73569e+00		         0.31333	3.50000e+01	
1.21305   	4.68305e+00		         0.31500	3.50000e+01	
1.21944   	4.67624e+00		         0.31667	3.50000e+01	
1.22583   	4.77841e+00		         0.31833	3.40000e+01	
1.23223   	4.99774e+00		         0.32000	3.40000e+01	
1.23862   	5.13917e+00		         0.32167	3.30000e+01	
1.24501   	5.20905e+00		         0.32333	3.20000e+01	
1.25140   	5.21080e+00		         0.32500	3.10000e+01	
1.25779   	5.13433e+00		         0.32667	2.90000e+01	
1.26418   	4.99662e+00		         0.32833	2.80000e+01	
1.27057   	4.80847e+00		         0.33000	2.60000e+01	
1.27696   	4.60272e+00		         0.33167	2.40000e+01	
1.28336   	4.46927e+00		         0.33333	2.20000e+01	
1.28975   	4.27562e+00		         0.33500	2.00000e+01	
1.29614   	4.16696e+00		         0.33667	1.70000e+01	
1.30253   	4.04326e+00		         0.33833	1.50000e+01	
1.30892   	3.94508e+00		         0.34000	1.20000e+01	
1.31531   	3.83441e+00		         0.34167	9.00000e+00	
1.32170   	3.75798e+00		         0.34333	7.00000e+00	
1.32809   	3.60696e+00		         0.34500	4.00000e+00	
1.33449   	3.41437e+00		         0.34667	2.00000e+00	
1.34088   	3.25535e+00		         0.34833	-1.00000e+00	
1.34727   	3.07231e+00		         0.35000	-3.00000e+00	
1.35366   	2.89176e+00		         0.35167	-5.00000e+00	
1.36005   	2.72044e+00		         0.35333	-7.00000e+00	
1.36644   	2.59295e+00		         0.35500	-9.00000e+00	
1.37283   	2.42550e+00		         0.35667	-1.10000e+01	
1.37922   	2.24253e+00		         0.35833	-1.20000e+01	
1.38562   	2.06529e+00		         0.36000	-1.40000e+01	
1.39200   	1.85475e+00		         0.36167	-1.50000e+01	
1.39840   	1.67552e+00		         0.36333	-1.70000e+01	
1.40479   	1.48429e+00		         0.36500	-1.80000e+01	
1.41118   	1.25265e+00		         0.36667	-1.90000e+01	
1.41757   	9.90281e-01		         0.36833	-2.00000e+01	
1.42396   	6.65661e-01		         0.37000	-2.10000e+01	
1.43035   	1.30374e-01		         0.37167	-2.20000e+01	
1.43674   	-4.11726e-01		         0.37333	-2.30000e+01	
1.44313   	-9.05568e-01		         0.37500	-2.30000e+01	
1.44953   	-7.75040e-01		         0.37667	-2.40000e+01	
1.45592   	-8.47513e-01		         0.37833	-2.50000e+01	
1.46231   	-8.23189e-01		         0.38000	-2.50000e+01	
1.46870   	-2.60176e-01		         0.38167	-2.60000e+01	
1.47509   	1.69299e-01		         0.38333	-2.60000e+01	
1.48148   	1.18732e-01		         0.38500	-2.70000e+01	
1.48787   	3.73512e-01		         0.38667	-2.70000e+01	
1.49426   	8.35024e-01		         0.38833	-2.70000e+01	
1.50065   	4.48437e-01		         0.39000	-2.70000e+01	
1.50705   	4.67023e-02		         0.39167	-2.70000e+01	
1.51344   	-5.37886e-01		         0.39333	-2.70000e+01	
1.51983   	-9.28814e-01		         0.39500	-2.70000e+01	
1.52622   	-1.58383e+00		         0.39667	-2.60000e+01	
1.53261   	-1.68365e+00		         0.39833	-2.50000e+01	
1.53900   	-1.86839e+00		         0.40000	-2.50000e+01	
1.54539   	-2.20894e+00		         0.40167	-2.40000e+01	
1.55178   	-2.88293e+00		         0.40333	-2.40000e+01	
1.55817   	-3.57745e+00		         0.40500	-2.30000e+01	
1.56457   	-4.42557e+00		         0.40667	-2.20000e+01	
1.57096   	-5.00219e+00		         0.40833	-2.20000e+01	
1.57735   	-5.29638e+00		         0.41000	-2.10000e+01	
1.58374   	-5.46283e+00		         0.41167	-2.10000e+01	
1.59013   	-5.38341e+00		         0.41333	-2.10000e+01	
1.59652   	-5.26824e+00		         0.41500	-2.10000e+01	
1.60291   	-5.15185e+00		         0.41667	-2.00000e+01	
1.60930   	-4.94628e+00		         0.41833	-2.00000e+01	
1.61570   	-4.70568e+00		         0.42000	-2.00000e+01	
1.62209   	-4.47302e+00		         0.42167	-2.00000e+01	
1.62848   	-4.24531e+00		         0.42333	-2.00000e+01	
1.63487   	-3.99536e+00		         0.42500	-2.00000e+01	
1.64126   	-3.73345e+00		         0.42667	-2.00000e+01	
1.64765   	-3.50484e+00		         0.42833	-2.00000e+01	
1.65404   	-3.25216e+00		         0.43000	-2.00000e+01	
1.66043   	-2.98033e+00		         0.43167	-2.00000e+01	
1.66683   	-2.71380e+00		         0.43333	-2.00000e+01	
1.67321   	-2.54419e+00		         0.43500	-2.00000e+01	
1.67961   	-2.43614e+00		         0.43667	-2.00000e+01	
1.68600   	-2.23325e+00		         0.43833	-1.90000e+01	
1.69239   	-2.21941e+00		         0.44000	-1.90000e+01	
1.69878   	-2.21093e+00		         0.44167	-1.90000e+01	
1.70518   	-2.10598e+00		         0.44333	-1.80000e+01	
1.71156   	-1.85681e+00		         0.44500	-1.80000e+01	
1.71795   	-1.63054e+00		         0.44667	-1.80000e+01	
1.72434   	-1.40962e+00		         0.44833	-1.70000e+01	
1.73074   	-1.09094e+00		         0.45000	-1.70000e+01	
1.73713   	-8.92004e-01		         0.45167	-1.70000e+01	
1.74352   	-7.10750e-01		         0.45333	-1.60000e+01	
1.74991   	-6.85371e-01		         0.45500	-1.60000e+01	
1.75630   	-4.52628e-01		         0.45667	-1.60000e+01	
1.76269   	-3.73903e-01		         0.45833	-1.50000e+01	
1.76908   	-2.30624e-01		         0.46000	-1.50000e+01	
1.77547   	-1.38026e-01		         0.46167	-1.50000e+01	
1.78186   	1.79927e-04		         0.46333	-1.40000e+01	
1.78826   	-3.78861e-03		         0.46500	-1.40000e+01	
1.79465   	5.53320e-02		         0.46667	-1.40000e+01	
1.80104   	4.76543e-02		         0.46833	-1.30000e+01	
1.80743   	1.50750e-02		         0.47000	-1.30000e+01	
1.81382   	-8.00114e-02		         0.47167	-1.30000e+01	
1.82021   	-1.05958e-01		         0.47333	-1.30000e+01	
1.82660   	-1.98377e-01		         0.47500	-1.20000e+01	
1.83299   	-2.81203e-01		         0.47667	-1.20000e+01	
1.83938   	-3.24567e-01		         0.47833	-1.20000e+01	
1.84578   	-4.03196e-01		         0.48000	-1.10000e+01	
1.85217   	-5.06368e-01		         0.48167	-1.10000e+01	
1.85856   	-4.68597e-01		         0.48333	-1.10000e+01	
1.86495   	-4.42539e-01		         0.48500	-1.00000e+01	
1.87134   	-4.02957e-01		         0.48667	-1.00000e+01	
1.87773   	-2.67946e-01		         0.48833	-9.00000e+00	
1.88413   	-1.12030e-01		         0.49000	-9.00000e+00	
1.89051   	-8.52038e-02		         0.49167	-8.00000e+00	
1.89691   	3.31599e-02		         0.49333	-7.00000e+00	
1.90330   	-2.31642e-02		         0.49500	-7.00000e+00	
1.90969   	-1.54708e-01		         0.49667	-6.00000e+00	
1.91607   	-3.02034e-01		         0.49833	-6.00000e+00	
1.92247   	-5.59226e-01		         0.50000	-5.00000e+00	
1.92886   	-1.07986e+00		         0.50167	-5.00000e+00	
1.93525   	-1.64032e+00		         0.50333	-5.00000e+00	
1.94164   	-2.38318e+00		         0.50500	-4.00000e+00	
1.94804   	-3.34497e+00		         0.50667	-4.00000e+00	
1.95443   	-4.26329e+00		         0.50833	-4.00000e+00	
1.96082   	-5.00383e+00		         0.51000	-4.00000e+00	
1.96721   	-5.71726e+00		         0.51167	-4.00000e+00	
1.97360   	-6.28163e+00		         0.51333	-4.00000e+00	
1.97999   	-6.57118e+00		         0.51500	-5.00000e+00	
1.98638   	-6.54254e+00		         0.51667	-5.00000e+00	
1.99277   	-6.40328e+00		         0.51833	-5.00000e+00	
1.99917   	-5.91578e+00		         0.52000	-5.00000e+00	
2.00555   	-5.25130e+00		         0.52167	-5.00000e+00	
2.01195   	-4.71742e+00		         0.52333	-5.00000e+00	
2.01834   	-4.41138e+00		         0.52500	-5.00000e+00	
2.02501   	-4.05990e+00		         0.52667	-4.00000e+00	
2.03112   	-3.83448e+00		         0.52833	-4.00000e+00	
2.03751   	-3.92356e+00		         0.53000	-4.00000e+00	
2.04390   	-3.50753e+00		         0.53167	-4.00000e+00	
2.05030   	-2.75479e+00		         0.53333	-4.00000e+00	
2.05668   	-1.97981e+00		         0.53500	-3.00000e+00	
2.06307   	-1.23027e+00		         0.53667	-3.00000e+00	
2.06947   	-1.52280e-01		         0.53833	-4.00000e+00	
2.07586   	5.20180e-01		         0.54000	-4.00000e+00	
2.08225   	8.29171e-01		         0.54167	-4.00000e+00	
2.08864   	1.05442e+00		         0.54333	-5.00000e+00	
2.09503   	4.59135e-01		         0.54500	-5.00000e+00	
2.10142   	3.03911e-01		         0.54667	-6.00000e+00	
2.10781   	-2.57796e-01		         0.54833	-6.00000e+00	
2.11421   	-8.92796e-01		         0.55000	-6.00000e+00	
2.12059   	-1.78609e+00		         0.55167	-6.00000e+00	
2.12699   	-1.86622e+00		         0.55333	-6.00000e+00	
2.13338   	-1.82420e+00		         0.55500	-6.00000e+00	
2.13977   	-1.15489e+00		         0.55667	-6.00000e+00	
2.14617   	-1.68911e-01		         0.55833	-6.00000e+00	
2.15255   	1.18089e+00		         0.56000	-6.00000e+00	
2.15894   	2.53663e+00		         0.56167	-6.00000e+00	
2.16533   	3.34844e+00		         0.56333	-6.00000e+00	
2.17172   	4.00830e+00		         0.56500	-6.00000e+00	
2.17812   	4.46521e+00		         0.56667	-6.00000e+00	
2.18451   	4.76803e+00		         0.56833	-6.00000e+00	
2.19120   	5.03026e+00		         0.57000	-7.00000e+00	
2.19729   	5.15754e+00		         0.57167	-7.00000e+00	
2.20368   	5.13734e+00		         0.57333	-7.00000e+00	
2.21007   	5.09302e+00		         0.57500	-8.00000e+00	
2.21646   	5.04017e+00		         0.57667	-8.00000e+00	
2.22285   	4.96492e+00		         0.57833	-8.00000e+00	
2.22925   	4.89976e+00		         0.58000	-8.00000e+00	
2.23564   	4.86265e+00		         0.58167	-8.00000e+00	
2.24203   	4.86176e+00		         0.58333	-8.00000e+00	
2.24842   	4.87762e+00		         0.58500	-8.00000e+00	
2.25481   	4.86595e+00		         0.58667	-7.00000e+00	
2.26120   	4.83193e+00		         0.58833	-7.00000e+00	
2.26759   	4.82205e+00		         0.59000	-7.00000e+00	
2.27432   	4.83063e+00		         0.59167	-7.00000e+00	
2.28038   	4.80335e+00		         0.59333	-7.00000e+00	
2.28677   	4.77507e+00		         0.59500	-6.00000e+00	
2.29316   	4.68819e+00		         0.59667	-6.00000e+00	
2.29955   	4.62400e+00		         0.59833	-6.00000e+00	
2.30594   	4.46376e+00		         0.60000	-5.00000e+00	
2.31233   	4.29170e+00		         0.60167	-5.00000e+00	
2.31872   	4.17783e+00		         0.60333	-5.00000e+00	
2.32511   	4.02657e+00		         0.60500	-5.00000e+00	
2.33151   	3.87554e+00		         0.60667	-5.00000e+00	
2.33789   	3.78134e+00		         0.60833	-4.00000e+00	
2.34429   	3.64400e+00		         0.61000	-4.00000e+00	
2.35068   	3.52708e+00		         0.61167	-4.00000e+00	
2.35719   	3.42628e+00		         0.61333	-4.00000e+00	
2.36346   	3.19871e+00		         0.61500	-5.00000e+00	
2.36985   	3.00292e+00		         0.61667	-4.00000e+00	
2.37624   	2.86564e+00		         0.61833	-4.00000e+00	
2.38264   	2.68264e+00		         0.62000	-4.00000e+00	
2.38902   	2.58445e+00		         0.62167	-4.00000e+00	
2.39541   	2.55599e+00		         0.62333	-4.00000e+00	
2.40181   	2.45868e+00		         0.62500	-4.00000e+00	
2.40820   	2.30898e+00		         0.62667	-3.00000e+00	
2.41459   	2.11683e+00		         0.62833	-3.00000e+00	
2.42098   	1.90417e+00		         0.63000	-2.00000e+00	
2.42738   	1.66736e+00		         0.63167	-2.00000e+00	
2.43376   	1.40628e+00		         0.63333	-1.00000e+00	
2.44015   	1.07713e+00		         0.63500	-1.00000e+00	
2.44654   	6.76293e-01		         0.63667	-1.00000e+00	
2.45293   	2.01943e-01		         0.63833	-1.00000e+00	
2.45933   	-4.58961e-01		         0.64000	0.00000e+00	
2.46572   	-1.01890e+00		         0.64167	0.00000e+00	
2.47211   	-1.33646e+00		         0.64333	0.00000e+00	
2.47850   	-1.45256e+00		         0.64500	0.00000e+00	
2.48489   	-1.39177e+00		         0.64667	0.00000e+00	
2.49128   	-9.08792e-01		         0.64833	0.00000e+00	
2.49767   	-5.55167e-01		         0.65000	-1.00000e+00	
2.50406   	-1.64253e-01		         0.65167	-1.00000e+00	
2.51046   	2.58558e-01		         0.65333	-1.00000e+00	
2.51685   	6.06237e-01		         0.65500	-2.00000e+00	
2.52324   	6.40740e-01		         0.65667	-2.00000e+00	
2.52963   	5.32543e-01		         0.65833	-2.00000e+00	
2.53602   	2.73790e-01		         0.66000	-3.00000e+00	
2.54241   	-4.21711e-02		         0.66167	-3.00000e+00	
2.54880   	-4.49351e-01		         0.66333	-3.00000e+00	
2.55519   	-7.85460e-01		         0.66500	-4.00000e+00	
2.56159   	-1.17623e+00		         0.66667	-4.00000e+00	
2.56798   	-2.02231e+00		         0.66833	-4.00000e+00	
2.57436   	-2.90247e+00		         0.67000	-4.00000e+00	
2.58076   	-4.07122e+00		         0.67167	-4.00000e+00	
2.58715   	-4.99841e+00		         0.67333	-4.00000e+00	
2.59354   	-5.75046e+00		         0.67500	-4.00000e+00	
2.59993   	-5.91385e+00		         0.67667	-4.00000e+00	
2.60632   	-6.01279e+00		         0.67833	-4.00000e+00	
2.61272   	-5.70516e+00		         0.68000	-3.00000e+00	
2.61911   	-5.55047e+00		         0.68167	-3.00000e+00	
2.62549   	-5.33552e+00		         0.68333	-3.00000e+00	
2.63189   	-5.11894e+00		         0.68500	-3.00000e+00	
2.63828   	-4.97379e+00		         0.68667	-3.00000e+00	
2.64467   	-4.84388e+00		         0.68833	-2.00000e+00	
2.65106   	-4.63893e+00		         0.69000	-2.00000e+00	
2.65745   	-4.26307e+00		         0.69167	-2.00000e+00	
2.66384   	-4.03075e+00		         0.69333	-2.00000e+00	
2.67023   	-3.65970e+00		         0.69500	-2.00000e+00	
2.67663   	-3.30756e+00		         0.69667	-2.00000e+00	
2.68302   	-2.97609e+00		         0.69833	-2.00000e+00	
2.68941   	-2.76399e+00		         0.70000	-3.00000e+00	
2.69580   	-2.56288e+00		         0.70167	-3.00000e+00	
2.70219   	-2.49419e+00		         0.70333	-3.00000e+00	
2.70858   	-2.31998e+00		         0.70500	-3.00000e+00	
2.71497   	-2.27297e+00		         0.70667	-3.00000e+00	
2.72136   	-2.10497e+00		         0.70833	-3.00000e+00	
2.72775   	-1.89322e+00		         0.71000	-3.00000e+00	
2.73415   	-1.75172e+00		         0.71167	-3.00000e+00	
2.74054   	-1.58239e+00		         0.71333	-3.00000e+00	
2.74693   	-1.26481e+00		         0.71500	-3.00000e+00	
2.75332   	-1.11913e+00		         0.71667	-3.00000e+00	
2.75971   	-9.65899e-01		         0.71833	-3.00000e+00	
2.76610   	-6.50852e-01		         0.72000	-3.00000e+00	
2.77249   	-4.52372e-01		         0.72167	-3.00000e+00	
2.77888   	-3.99565e-01		         0.72333	-3.00000e+00	
2.78528   	-2.61858e-01		         0.72500	-3.00000e+00	
2.79167   	-1.32046e-01		         0.72667	-3.00000e+00	
2.79806   	-1.40572e-01		         0.72833	-3.00000e+00	
2.80445   	-1.65352e-01		         0.73000	-3.00000e+00	
2.81084   	-1.45721e-01		         0.73167	-2.00000e+00	
2.81723   	-1.90907e-01		         0.73333	-2.00000e+00	
2.82362   	-2.56450e-01		         0.73500	-2.00000e+00	
2.83001   	-2.52134e-01		         0.73667	-1.00000e+00	
2.83640   	-2.44161e-01		         0.73833	-1.00000e+00	
2.84280   	-2.88538e-01		         0.74000	-1.00000e+00	
2.84918   	-2.80297e-01		         0.74167	-1.00000e+00	
2.85558   	-2.85999e-01		         0.74333	-1.00000e+00	
2.86197   	-3.41247e-01		         0.74500	0.00000e+00	
2.86836   	-3.63515e-01		         0.74667	0.00000e+00	
2.87475   	-4.02786e-01		         0.74833	0.00000e+00	
2.88114   	-4.02293e-01		         0.75000	0.00000e+00	
2.88753   	-4.02895e-01		         0.75167	0.00000e+00	
2.89393   	-4.60056e-01		         0.75333	0.00000e+00	
2.90032   	-5.14083e-01		         0.75500	0.00000e+00	
2.90671   	-4.79442e-01		         0.75667	0.00000e+00	
2.91310   	-4.48827e-01		         0.75833	-1.00000e+00	
2.91949   	-4.81574e-01		         0.76000	-1.00000e+00	
2.92588   	-4.65060e-01		         0.76167	-1.00000e+00	
2.93227   	-4.54782e-01		         0.76333	-1.00000e+00	
2.93866   	-4.85563e-01		         0.76500	-1.00000e+00	
2.94505   	-6.55402e-01		         0.76667	-1.00000e+00	
2.95145   	-7.62702e-01		         0.76833	-1.00000e+00	
2.95783   	-9.00530e-01		         0.77000	-1.00000e+00	
2.96423   	-1.13740e+00		         0.77167	-1.00000e+00	
2.97062   	-1.54468e+00		         0.77333	-1.00000e+00	
2.97701   	-2.12654e+00		         0.77500	-1.00000e+00	
2.98340   	-2.92019e+00		         0.77667	0.00000e+00	
2.98979   	-3.71322e+00		         0.77833	0.00000e+00	
2.99618   	-4.66231e+00		         0.78000	0.00000e+00	
3.00257   	-5.30517e+00		         0.78167	0.00000e+00	
3.00897   	-5.71910e+00		         0.78333	1.00000e+00	
3.01536   	-6.03710e+00		         0.78500	1.00000e+00	
3.02175   	-6.28302e+00		         0.78667	1.00000e+00	
3.02814   	-6.15703e+00		         0.78833	2.00000e+00	
3.03453   	-5.93929e+00		         0.79000	2.00000e+00	
3.04092   	-5.64334e+00		         0.79167	2.00000e+00	
3.04731   	-5.11369e+00		         0.79333	2.00000e+00	
3.05370   	-4.57128e+00		         0.79500	2.00000e+00	
3.06010   	-4.21624e+00		         0.79667	2.00000e+00	
3.06649   	-3.94621e+00		         0.79833	2.00000e+00	
3.07288   	-3.76537e+00		         0.80000	2.00000e+00	
3.07927   	-3.76186e+00		         0.80167	2.00000e+00	
3.08566   	-3.51522e+00		         0.80333	2.00000e+00	
3.09205   	-3.07190e+00		         0.80500	2.00000e+00	
3.09844   	-2.44018e+00		         0.80667	1.00000e+00	
3.10483   	-1.74823e+00		         0.80833	1.00000e+00	
3.11122   	-8.99074e-01		         0.81000	1.00000e+00	
3.11761   	-2.48721e-01		         0.81167	1.00000e+00	
3.12401   	3.82268e-01		         0.81333	0.00000e+00	
3.13040   	4.12298e-01		         0.81500	0.00000e+00	
3.13679   	1.66528e+00		         0.81667	0.00000e+00	
3.14318   	1.99382e+00		         0.81833	-1.00000e+00	
3.14957   	2.44206e+00		         0.82000	-1.00000e+00	
			         0.82167	-1.00000e+00	
			         0.82333	-1.00000e+00	
			         0.82500	-1.00000e+00	
			         0.82667	-1.00000e+00	
			         0.82833	-1.00000e+00	
			         0.83000	-1.00000e+00	
			         0.83167	-1.00000e+00	
			         0.83333	-1.00000e+00	
			         0.83500	-1.00000e+00	
			         0.83667	-1.00000e+00	
			         0.83833	-1.00000e+00	
			         0.84000	-1.00000e+00	
			         0.84167	-1.00000e+00	
			         0.84333	-1.00000e+00	
			         0.84500	0.00000e+00	
			         0.84667	0.00000e+00	
			         0.84833	0.00000e+00	
			         0.85000	1.00000e+00	
			         0.85167	2.00000e+00	
			         0.85333	2.00000e+00	
			         0.85500	3.00000e+00	
			         0.85667	4.00000e+00	
			         0.85833	5.00000e+00	
			         0.86000	6.00000e+00	
			         0.86167	6.00000e+00	
			         0.86333	7.00000e+00	
			         0.86500	8.00000e+00	
			         0.86667	9.00000e+00	
			         0.86833	9.00000e+00	
			         0.87000	1.00000e+01	
			         0.87167	1.10000e+01	
			         0.87333	1.10000e+01	
			         0.87500	1.20000e+01	
			         0.87667	1.20000e+01	
			         0.87833	1.30000e+01	
			         0.88000	1.30000e+01	
			         0.88167	1.40000e+01	
			         0.88333	1.40000e+01	
			         0.88500	1.40000e+01	
			         0.88667	1.40000e+01	
			         0.88833	1.40000e+01	
			         0.89000	1.30000e+01	
			         0.89167	1.30000e+01	
			         0.89333	1.20000e+01	
			         0.89500	1.10000e+01	
			         0.89667	1.00000e+01	
			         0.89833	9.00000e+00	
			         0.90000	9.00000e+00	
			         0.90167	8.00000e+00	
			         0.90333	7.00000e+00	
			         0.90500	6.00000e+00	
			         0.90667	5.00000e+00	
			         0.90833	4.00000e+00	
			         0.91000	3.00000e+00	
			         0.91167	2.00000e+00	
			         0.91333	1.00000e+00	
			         0.91500	1.00000e+00	
			         0.91667	0.00000e+00	
			         0.91833	0.00000e+00	
			         0.92000	0.00000e+00	
			         0.92167	-1.00000e+00	
			         0.92333	-1.00000e+00	
			         0.92500	-1.00000e+00	
			         0.92667	-2.00000e+00	
			         0.92833	-2.00000e+00	
			         0.93000	-2.00000e+00	
			         0.93167	-2.00000e+00	
			         0.93333	-3.00000e+00	
			         0.93500	-3.00000e+00	
			         0.93667	-3.00000e+00	
			         0.93833	-3.00000e+00	
			         0.94000	-3.00000e+00	
			         0.94167	-3.00000e+00	
			         0.94333	-3.00000e+00	
			         0.94500	-2.00000e+00	
			         0.94667	-2.00000e+00	
			         0.94833	-2.00000e+00	
			         0.95000	-2.00000e+00	
			         0.95167	-2.00000e+00	
			         0.95333	-2.00000e+00	
			         0.95500	-2.00000e+00	
			         0.95667	-2.00000e+00	
			         0.95833	-2.00000e+00	
			         0.96000	-2.00000e+00	
			         0.96167	-2.00000e+00	
			         0.96333	-2.00000e+00	
			         0.96500	-3.00000e+00	
			         0.96667	-3.00000e+00	
			         0.96833	-3.00000e+00	
			         0.97000	-4.00000e+00	
			         0.97167	-4.00000e+00	
			         0.97333	-5.00000e+00	
			         0.97500	-6.00000e+00	
			         0.97667	-7.00000e+00	
			         0.97833	-8.00000e+00	
			         0.98000	-8.00000e+00	
			         0.98167	-9.00000e+00	
			         0.98333	-1.00000e+01	
			         0.98500	-1.00000e+01	
			         0.98667	-1.10000e+01	
			         0.98833	-1.10000e+01	
			         0.99000	-1.10000e+01	
			         0.99167	-1.10000e+01	
			         0.99333	-1.00000e+01	
			         0.99500	-1.00000e+01	
			         0.99667	-9.00000e+00	
			         0.99833	-9.00000e+00	
			         1.00000	-8.00000e+00	
			         1.00167	-7.00000e+00	
			         1.00333	-6.00000e+00	
			         1.00500	-6.00000e+00	
			         1.00667	-5.00000e+00	
			         1.00833	-5.00000e+00	
			         1.01000	-5.00000e+00	
			         1.01167	-4.00000e+00	
			         1.01333	-5.00000e+00	
			         1.01500	-5.00000e+00	
			         1.01667	-5.00000e+00	
			         1.01833	-6.00000e+00	
			         1.02000	-6.00000e+00	
			         1.02167	-7.00000e+00	
			         1.02333	-8.00000e+00	
			         1.02500	-9.00000e+00	
			         1.02667	-1.00000e+01	
			         1.02833	-1.10000e+01	
			         1.03000	-1.10000e+01	
			         1.03167	-1.10000e+01	
			         1.03333	-1.10000e+01	
			         1.03500	-9.00000e+00	
			         1.03667	-7.00000e+00	
			         1.03833	-4.00000e+00	
			         1.04000	0.00000e+00	
			         1.04167	6.00000e+00	
			         1.04333	1.20000e+01	
			         1.04500	1.90000e+01	
			         1.04667	2.80000e+01	
			         1.04833	3.70000e+01	
			         1.05000	4.80000e+01	
			         1.05167	5.80000e+01	
			         1.05333	6.90000e+01	
			         1.05500	8.00000e+01	
			         1.05667	9.00000e+01	
			         1.05833	1.00000e+02	
			         1.06000	1.08000e+02	
			         1.06167	1.15000e+02	
			         1.06333	1.19000e+02	
			         1.06500	1.22000e+02	
			         1.06667	1.22000e+02	
			         1.06833	1.20000e+02	
			         1.07000	1.15000e+02	
			         1.07167	1.08000e+02	
			         1.07333	9.90000e+01	
			         1.07500	8.90000e+01	
			         1.07667	7.70000e+01	
			         1.07833	6.40000e+01	
			         1.08000	5.00000e+01	
			         1.08167	3.70000e+01	
			         1.08333	2.40000e+01	
			         1.08500	1.20000e+01	
			         1.08667	1.00000e+00	
			         1.08833	-8.00000e+00	
			         1.09000	-1.70000e+01	
			         1.09167	-2.40000e+01	
			         1.09333	-2.90000e+01	
			         1.09500	-3.30000e+01	
			         1.09667	-3.60000e+01	
			         1.09833	-3.70000e+01	
			         1.10000	-3.80000e+01	
			         1.10167	-3.70000e+01	
			         1.10333	-3.70000e+01	
			         1.10500	-3.60000e+01	
			         1.10667	-3.40000e+01	
			         1.10833	-3.30000e+01	
			         1.11000	-3.10000e+01	
			         1.11167	-3.00000e+01	
			         1.11333	-2.80000e+01	
			         1.11500	-2.70000e+01	
			         1.11667	-2.60000e+01	
			         1.11833	-2.50000e+01	
			         1.12000	-2.40000e+01	
			         1.12167	-2.30000e+01	
			         1.12333	-2.20000e+01	
			         1.12500	-2.20000e+01	
			         1.12667	-2.20000e+01	
			         1.12833	-2.10000e+01	
			         1.13000	-2.10000e+01	
			         1.13167	-2.10000e+01	
			         1.13333	-2.00000e+01	
			         1.13500	-2.00000e+01	
			         1.13667	-2.00000e+01	
			         1.13833	-1.90000e+01	
			         1.14000	-1.90000e+01	
			         1.14167	-1.80000e+01	
			         1.14333	-1.70000e+01	
			         1.14500	-1.70000e+01	
			         1.14667	-1.60000e+01	
			         1.14833	-1.50000e+01	
			         1.15000	-1.40000e+01	
			         1.15167	-1.30000e+01	
			         1.15333	-1.20000e+01	
			         1.15500	-1.10000e+01	
			         1.15667	-1.00000e+01	
			         1.15833	-1.00000e+01	
			         1.16000	-9.00000e+00	
			         1.16167	-8.00000e+00	
			         1.16333	-8.00000e+00	
			         1.16500	-8.00000e+00	
			         1.16667	-8.00000e+00	
			         1.16833	-8.00000e+00	
			         1.17000	-8.00000e+00	
			         1.17167	-8.00000e+00	
			         1.17333	-8.00000e+00	
			         1.17500	-9.00000e+00	
			         1.17667	-9.00000e+00	
			         1.17833	-9.00000e+00	
			         1.18000	-9.00000e+00	
			         1.18167	-9.00000e+00	
			         1.18333	-8.00000e+00	
			         1.18500	-7.00000e+00	
			         1.18667	-6.00000e+00	
			         1.18833	-5.00000e+00	
			         1.19000	-4.00000e+00	
			         1.19167	-3.00000e+00	
			         1.19333	-2.00000e+00	
			         1.19500	-1.00000e+00	
			         1.19667	0.00000e+00	
			         1.19833	0.00000e+00	
			         1.20000	0.00000e+00	
			         1.20167	0.00000e+00	
			         1.20333	-1.00000e+00	
			         1.20500	-1.00000e+00	
			         1.20667	-1.00000e+00	
			         1.20833	-2.00000e+00	
			         1.21000	-3.00000e+00	
			         1.21167	-3.00000e+00	
			         1.21333	-3.00000e+00	
			         1.21500	-4.00000e+00	
			         1.21667	-4.00000e+00	
			         1.21833	-4.00000e+00	
			         1.22000	-4.00000e+00	
			         1.22167	-4.00000e+00	
			         1.22333	-3.00000e+00	
			         1.22500	-3.00000e+00	
			         1.22667	-2.00000e+00	
			         1.22833	-1.00000e+00	
			         1.23000	-1.00000e+00	
			         1.23167	0.00000e+00	
			         1.23333	0.00000e+00	
			         1.23500	1.00000e+00	
			         1.23667	1.00000e+00	
			         1.23833	1.00000e+00	
			         1.24000	2.00000e+00	
			         1.24167	2.00000e+00	
			         1.24333	2.00000e+00	
			         1.24500	2.00000e+00	
			         1.24667	2.00000e+00	
			         1.24833	2.00000e+00	
			         1.25000	2.00000e+00	
			         1.25167	2.00000e+00	
			         1.25333	2.00000e+00	
			         1.25500	2.00000e+00	
			         1.25667	2.00000e+00	
			         1.25833	2.00000e+00	
			         1.26000	3.00000e+00	
			         1.26167	3.00000e+00	
			         1.26333	3.00000e+00	
			         1.26500	4.00000e+00	
			         1.26667	4.00000e+00	
			         1.26833	5.00000e+00	
			         1.27000	5.00000e+00	
			         1.27167	6.00000e+00	
			         1.27333	6.00000e+00	
			         1.27500	7.00000e+00	
			         1.27667	7.00000e+00	
			         1.27833	8.00000e+00	
			         1.28000	8.00000e+00	
			         1.28167	9.00000e+00	
			         1.28333	9.00000e+00	
			         1.28500	9.00000e+00	
			         1.28667	9.00000e+00	
			         1.28833	1.00000e+01	
			         1.29000	1.00000e+01	
			         1.29167	1.00000e+01	
			         1.29333	1.10000e+01	
			         1.29500	1.10000e+01	
			         1.29667	1.20000e+01	
			         1.29833	1.20000e+01	
			         1.30000	1.30000e+01	
			         1.30167	1.40000e+01	
			         1.30333	1.50000e+01	
			         1.30500	1.60000e+01	
			         1.30667	1.70000e+01	
			         1.30833	1.90000e+01	
			         1.31000	2.00000e+01	
			         1.31167	2.20000e+01	
			         1.31333	2.30000e+01	
			         1.31500	2.40000e+01	
			         1.31667	2.50000e+01	
			         1.31833	2.60000e+01	
			         1.32000	2.70000e+01	
			         1.32167	2.80000e+01	
			         1.32333	2.90000e+01	
			         1.32500	3.00000e+01	
			         1.32667	3.00000e+01	
			         1.32833	3.00000e+01	
			         1.33000	3.00000e+01	
			         1.33167	3.00000e+01	
			         1.33333	3.00000e+01	
			         1.33500	3.00000e+01	
			         1.33667	3.10000e+01	
			         1.33833	3.10000e+01	
			         1.34000	3.10000e+01	
			         1.34167	3.20000e+01	
			         1.34333	3.20000e+01	
			         1.34500	3.20000e+01	
			         1.34667	3.30000e+01	
			         1.34833	3.30000e+01	
			         1.35000	3.30000e+01	
			         1.35167	3.30000e+01	
			         1.35333	3.30000e+01	
			         1.35500	3.30000e+01	
			         1.35667	3.30000e+01	
			         1.35833	3.20000e+01	
			         1.36000	3.20000e+01	
			         1.36167	3.10000e+01	
			         1.36333	3.00000e+01	
			         1.36500	2.90000e+01	
			         1.36667	2.70000e+01	
			         1.36833	2.60000e+01	
			         1.37000	2.40000e+01	
			         1.37167	2.30000e+01	
			         1.37333	2.10000e+01	
			         1.37500	1.90000e+01	
			         1.37667	1.70000e+01	
			         1.37833	1.50000e+01	
			         1.38000	1.20000e+01	
			         1.38167	1.00000e+01	
			         1.38333	8.00000e+00	
			         1.38500	5.00000e+00	
			         1.38667	3.00000e+00	
			         1.38833	0.00000e+00	
			         1.39000	-2.00000e+00	
			         1.39167	-5.00000e+00	
			         1.39333	-7.00000e+00	
			         1.39500	-9.00000e+00	
			         1.39667	-1.10000e+01	
			         1.39833	-1.30000e+01	
			         1.40000	-1.50000e+01	
			         1.40167	-1.70000e+01	
			         1.40333	-1.80000e+01	
			         1.40500	-2.00000e+01	
			         1.40667	-2.20000e+01	
			         1.40833	-2.30000e+01	
			         1.41000	-2.40000e+01	
			         1.41167	-2.60000e+01	
			         1.41333	-2.70000e+01	
			         1.41500	-2.80000e+01	
			         1.41667	-2.90000e+01	
			         1.41833	-2.90000e+01	
			         1.42000	-3.00000e+01	
			         1.42167	-3.00000e+01	
			         1.42333	-3.10000e+01	
			         1.42500	-3.10000e+01	
			         1.42667	-3.20000e+01	
			         1.42833	-3.20000e+01	
			         1.43000	-3.20000e+01	
			         1.43167	-3.20000e+01	
			         1.43333	-3.20000e+01	
			         1.43500	-3.20000e+01	
			         1.43667	-3.20000e+01	
			         1.43833	-3.10000e+01	
			         1.44000	-3.10000e+01	
			         1.44167	-3.10000e+01	
			         1.44333	-3.00000e+01	
			         1.44500	-3.00000e+01	
			         1.44667	-2.90000e+01	
			         1.44833	-2.80000e+01	
			         1.45000	-2.80000e+01	
			         1.45167	-2.70000e+01	
			         1.45333	-2.70000e+01	
			         1.45500	-2.60000e+01	
			         1.45667	-2.60000e+01	
			         1.45833	-2.50000e+01	
			         1.46000	-2.50000e+01	
			         1.46167	-2.40000e+01	
			         1.46333	-2.40000e+01	
			         1.46500	-2.30000e+01	
			         1.46667	-2.20000e+01	
			         1.46833	-2.20000e+01	
			         1.47000	-2.10000e+01	
			         1.47167	-2.10000e+01	
			         1.47333	-2.10000e+01	
			         1.47500	-2.10000e+01	
			         1.47667	-2.10000e+01	
			         1.47833	-2.10000e+01	
			         1.48000	-2.10000e+01	
			         1.48167	-2.10000e+01	
			         1.48333	-2.10000e+01	
			         1.48500	-2.10000e+01	
			         1.48667	-2.10000e+01	
			         1.48833	-2.20000e+01	
			         1.49000	-2.20000e+01	
			         1.49167	-2.20000e+01	
			         1.49333	-2.10000e+01	
			         1.49500	-2.10000e+01	
			         1.49667	-2.00000e+01	
			         1.49833	-1.90000e+01	
			         1.50000	-1.80000e+01	
			         1.50167	-1.70000e+01	
			         1.50333	-1.60000e+01	
			         1.50500	-1.50000e+01	
			         1.50667	-1.40000e+01	
			         1.50833	-1.30000e+01	
			         1.51000	-1.20000e+01	
			         1.51167	-1.20000e+01	
			         1.51333	-1.10000e+01	
			         1.51500	-1.10000e+01	
			         1.51667	-1.10000e+01	
			         1.51833	-1.10000e+01	
			         1.52000	-1.10000e+01	
			         1.52167	-1.10000e+01	
			         1.52333	-1.10000e+01	
			         1.52500	-1.10000e+01	
			         1.52667	-1.10000e+01	
			         1.52833	-1.10000e+01	
			         1.53000	-1.00000e+01	
			         1.53167	-1.00000e+01	
			         1.53333	-1.00000e+01	
			         1.53500	-1.00000e+01	
			         1.53667	-9.00000e+00	
			         1.53833	-9.00000e+00	
			         1.54000	-9.00000e+00	
			         1.54167	-8.00000e+00	
			         1.54333	-8.00000e+00	
			         1.54500	-7.00000e+00	
			         1.54667	-7.00000e+00	
			         1.54833	-6.00000e+00	
			         1.55000	-6.00000e+00	
			         1.55167	-6.00000e+00	
			         1.55333	-5.00000e+00	
			         1.55500	-5.00000e+00	
			         1.55667	-4.00000e+00	
			         1.55833	-4.00000e+00	
			         1.56000	-4.00000e+00	
			         1.56167	-4.00000e+00	
			         1.56333	-4.00000e+00	
			         1.56500	-4.00000e+00	
			         1.56667	-4.00000e+00	
			         1.56833	-5.00000e+00	
			         1.57000	-5.00000e+00	
			         1.57167	-5.00000e+00	
			         1.57333	-5.00000e+00	
			         1.57500	-6.00000e+00	
			         1.57667	-6.00000e+00	
			         1.57833	-6.00000e+00	
			         1.58000	-5.00000e+00	
			         1.58167	-5.00000e+00	
			         1.58333	-5.00000e+00	
			         1.58500	-5.00000e+00	
			         1.58667	-5.00000e+00	
			         1.58833	-5.00000e+00	
			         1.59000	-4.00000e+00	
			         1.59167	-4.00000e+00	
			         1.59333	-4.00000e+00	
			         1.59500	-4.00000e+00	
			         1.59667	-4.00000e+00	
			         1.59833	-4.00000e+00	
			         1.60000	-4.00000e+00	
			         1.60167	-4.00000e+00	
			         1.60333	-4.00000e+00	
			         1.60500	-4.00000e+00	
			         1.60667	-4.00000e+00	
			         1.60833	-4.00000e+00	
			         1.61000	-4.00000e+00	
			         1.61167	-4.00000e+00	
			         1.61333	-3.00000e+00	
			         1.61500	-3.00000e+00	
			         1.61667	-3.00000e+00	
			         1.61833	-4.00000e+00	
			         1.62000	-4.00000e+00	
			         1.62167	-4.00000e+00	
			         1.62333	-4.00000e+00	
			         1.62500	-4.00000e+00	
			         1.62667	-4.00000e+00	
			         1.62833	-5.00000e+00	
			         1.63000	-5.00000e+00	
			         1.63167	-5.00000e+00	
			         1.63333	-5.00000e+00	
			         1.63500	-5.00000e+00	
			         1.63667	-5.00000e+00	
			         1.63833	-5.00000e+00	
			         1.64000	-5.00000e+00	
			         1.64167	-5.00000e+00	
			         1.64333	-5.00000e+00	
			         1.64500	-5.00000e+00	
			         1.64667	-6.00000e+00	
			         1.64833	-6.00000e+00	
			         1.65000	-6.00000e+00	
			         1.65167	-6.00000e+00	
			         1.65333	-6.00000e+00	
			         1.65500	-6.00000e+00	
			         1.65667	-6.00000e+00	
			         1.65833	-6.00000e+00	
			         1.66000	-6.00000e+00	
			         1.66167	-6.00000e+00	
			         1.66333	-6.00000e+00	
			         1.66500	-6.00000e+00	
			         1.66667	-6.00000e+00	
			         1.66833	-5.00000e+00	
			         1.67000	-5.00000e+00	
			         1.67167	-5.00000e+00	
			         1.67333	-5.00000e+00	
			         1.67500	-5.00000e+00	
			         1.67667	-5.00000e+00	
			         1.67833	-4.00000e+00	
			         1.68000	-4.00000e+00	
			         1.68167	-4.00000e+00	
			         1.68333	-4.00000e+00	
			         1.68500	-4.00000e+00	
			         1.68667	-4.00000e+00	
			         1.68833	-4.00000e+00	
			         1.69000	-4.00000e+00	
			         1.69167	-4.00000e+00	
			         1.69333	-4.00000e+00	
			         1.69500	-4.00000e+00	
			         1.69667	-5.00000e+00	
			         1.69833	-5.00000e+00	
			         1.70000	-5.00000e+00	
			         1.70167	-5.00000e+00	
			         1.70333	-6.00000e+00	
			         1.70500	-6.00000e+00	
			         1.70667	-6.00000e+00	
			         1.70833	-6.00000e+00	
			         1.71000	-5.00000e+00	
			         1.71167	-5.00000e+00	
			         1.71333	-5.00000e+00	
			         1.71500	-5.00000e+00	
			         1.71667	-4.00000e+00	
			         1.71833	-4.00000e+00	
			         1.72000	-4.00000e+00	
			         1.72167	-4.00000e+00	
			         1.72333	-4.00000e+00	
			         1.72500	-3.00000e+00	
			         1.72667	-3.00000e+00	
			         1.72833	-3.00000e+00	
			         1.73000	-3.00000e+00	
			         1.73167	-3.00000e+00	
			         1.73333	-3.00000e+00	
			         1.73500	-3.00000e+00	
			         1.73667	-3.00000e+00	
			         1.73833	-3.00000e+00	
			         1.74000	-3.00000e+00	
			         1.74167	-3.00000e+00	
			         1.74333	-3.00000e+00	
			         1.74500	-3.00000e+00	
			         1.74667	-3.00000e+00	
			         1.74833	-3.00000e+00	
			         1.75000	-3.00000e+00	
			         1.75167	-4.00000e+00	
			         1.75333	-4.00000e+00	
			         1.75500	-4.00000e+00	
			         1.75667	-5.00000e+00	
			         1.75833	-5.00000e+00	
			         1.76000	-5.00000e+00	
			         1.76167	-5.00000e+00	
			         1.76333	-5.00000e+00	
			         1.76500	-5.00000e+00	
			         1.76667	-5.00000e+00	
			         1.76833	-4.00000e+00	
			         1.77000	-4.00000e+00	
			         1.77167	-4.00000e+00	
			         1.77333	-4.00000e+00	
			         1.77500	-3.00000e+00	
			         1.77667	-3.00000e+00	
			         1.77833	-3.00000e+00	
			         1.78000	-3.00000e+00	
			         1.78167	-3.00000e+00	
			         1.78333	-3.00000e+00	
			         1.78500	-3.00000e+00	
			         1.78667	-3.00000e+00	
			         1.78833	-4.00000e+00	
			         1.79000	-4.00000e+00	
			         1.79167	-4.00000e+00	
			         1.79333	-4.00000e+00	
			         1.79500	-4.00000e+00	
			         1.79667	-5.00000e+00	
			         1.79833	-5.00000e+00	
			         1.80000	-5.00000e+00	
			         1.80167	-5.00000e+00	
			         1.80333	-5.00000e+00	
			         1.80500	-5.00000e+00	
			         1.80667	-5.00000e+00	
			         1.80833	-6.00000e+00	
			         1.81000	-6.00000e+00	
			         1.81167	-6.00000e+00	
			         1.81333	-6.00000e+00	
			         1.81500	-6.00000e+00	
			         1.81667	-6.00000e+00	
			         1.81833	-6.00000e+00	
			         1.82000	-6.00000e+00	
			         1.82167	-6.00000e+00	
			         1.82333	-5.00000e+00	
			         1.82500	-5.00000e+00	
			         1.82667	-4.00000e+00	
			         1.82833	-4.00000e+00	
			         1.83000	-3.00000e+00	
			         1.83167	-3.00000e+00	
			         1.83333	-2.00000e+00	
			         1.83500	-2.00000e+00	
			         1.83667	-2.00000e+00	
			         1.83833	-2.00000e+00	
			         1.84000	-2.00000e+00	
			         1.84167	-2.00000e+00	
			         1.84333	-2.00000e+00	
			         1.84500	-3.00000e+00	
			         1.84667	-3.00000e+00	
			         1.84833	-3.00000e+00	
			         1.85000	-4.00000e+00	
			         1.85167	-4.00000e+00	
			         1.85333	-4.00000e+00	
			         1.85500	-4.00000e+00	
			         1.85667	-4.00000e+00	
			         1.85833	-4.00000e+00	
			         1.86000	-4.00000e+00	
			         1.86167	-4.00000e+00	
			         1.86333	-5.00000e+00	
			         1.86500	-5.00000e+00	
			         1.86667	-5.00000e+00	
			         1.86833	-5.00000e+00	
			         1.87000	-5.00000e+00	
			         1.87167	-5.00000e+00	
			         1.87333	-5.00000e+00	
			         1.87500	-4.00000e+00	
			         1.87667	-4.00000e+00	
			         1.87833	-4.00000e+00	
			         1.88000	-4.00000e+00	
			         1.88167	-3.00000e+00	
			         1.88333	-2.00000e+00	
			         1.88500	-2.00000e+00	
			         1.88667	-1.00000e+00	
			         1.88833	0.00000e+00	
			         1.89000	1.00000e+00	
			         1.89167	1.00000e+00	
			         1.89333	2.00000e+00	
			         1.89500	3.00000e+00	
			         1.89667	4.00000e+00	
			         1.89833	5.00000e+00	
			         1.90000	6.00000e+00	
			         1.90167	7.00000e+00	
			         1.90333	7.00000e+00	
			         1.90500	8.00000e+00	
			         1.90667	9.00000e+00	
			         1.90833	1.00000e+01	
			         1.91000	1.00000e+01	
			         1.91167	1.10000e+01	
			         1.91333	1.10000e+01	
			         1.91500	1.20000e+01	
			         1.91667	1.20000e+01	
			         1.91833	1.10000e+01	
			         1.92000	1.10000e+01	
			         1.92167	1.10000e+01	
			         1.92333	1.00000e+01	
			         1.92500	9.00000e+00	
			         1.92667	9.00000e+00	
			         1.92833	8.00000e+00	
			         1.93000	7.00000e+00	
			         1.93167	6.00000e+00	
			         1.93333	5.00000e+00	
			         1.93500	4.00000e+00	
			         1.93667	4.00000e+00	
			         1.93833	3.00000e+00	
			         1.94000	2.00000e+00	
			         1.94167	1.00000e+00	
			         1.94333	0.00000e+00	
			         1.94500	0.00000e+00	
			         1.94667	-1.00000e+00	
			         1.94833	-2.00000e+00	
			         1.95000	-2.00000e+00	
			         1.95167	-3.00000e+00	
			         1.95333	-3.00000e+00	
			         1.95500	-4.00000e+00	
			         1.95667	-4.00000e+00	
			         1.95833	-4.00000e+00	
			         1.96000	-5.00000e+00	
			         1.96167	-5.00000e+00	
			         1.96333	-5.00000e+00	
			         1.96500	-6.00000e+00	
			         1.96667	-6.00000e+00	
			         1.96833	-6.00000e+00	
			         1.97000	-7.00000e+00	
			         1.97167	-7.00000e+00	
			         1.97333	-7.00000e+00	
			         1.97500	-8.00000e+00	
			         1.97667	-8.00000e+00	
			         1.97833	-8.00000e+00	
			         1.98000	-9.00000e+00	
			         1.98167	-9.00000e+00	
			         1.98333	-1.00000e+01	
			         1.98500	-1.00000e+01	
			         1.98667	-1.10000e+01	
			         1.98833	-1.10000e+01	
			         1.99000	-1.10000e+01	
			         1.99167	-1.10000e+01	
			         1.99333	-1.20000e+01	
			         1.99500	-1.20000e+01	
			         1.99667	-1.10000e+01	
			         1.99833	-1.10000e+01	
			         2.00000	-1.10000e+01	
			         2.00167	-1.00000e+01	
			         2.00333	-1.00000e+01	
			         2.00500	-1.00000e+01	
			         2.00667	-9.00000e+00	
			         2.00833	-9.00000e+00	
			         2.01000	-9.00000e+00	
			         2.01167	-8.00000e+00	
			         2.01333	-8.00000e+00	
			         2.01500	-8.00000e+00	
			         2.01667	-7.00000e+00	
			         2.01833	-7.00000e+00	
			         2.02000	-7.00000e+00	
			         2.02167	-7.00000e+00	
			         2.02333	-6.00000e+00	
			         2.02500	-6.00000e+00	
			         2.02667	-6.00000e+00	
			         2.02833	-5.00000e+00	
			         2.03000	-5.00000e+00	
			         2.03167	-5.00000e+00	
			         2.03333	-5.00000e+00	
			         2.03500	-5.00000e+00	
			         2.03667	-5.00000e+00	
			         2.03833	-6.00000e+00	
			         2.04000	-6.00000e+00	
			         2.04167	-7.00000e+00	
			         2.04333	-8.00000e+00	
			         2.04500	-9.00000e+00	
			         2.04667	-1.00000e+01	
			         2.04833	-1.10000e+01	
			         2.05000	-1.20000e+01	
			         2.05167	-1.30000e+01	
			         2.05333	-1.30000e+01	
			         2.05500	-1.30000e+01	
			         2.05667	-1.20000e+01	
			         2.05833	-1.10000e+01	
			         2.06000	-8.00000e+00	
			         2.06167	-5.00000e+00	
			         2.06333	-1.00000e+00	
			         2.06500	4.00000e+00	
			         2.06667	1.00000e+01	
			         2.06833	1.70000e+01	
			         2.07000	2.60000e+01	
			         2.07167	3.50000e+01	
			         2.07333	4.50000e+01	
			         2.07500	5.50000e+01	
			         2.07667	6.50000e+01	
			         2.07833	7.60000e+01	
			         2.08000	8.60000e+01	
			         2.08167	9.50000e+01	
			         2.08333	1.03000e+02	
			         2.08500	1.10000e+02	
			         2.08667	1.15000e+02	
			         2.08833	1.18000e+02	
			         2.09000	1.18000e+02	
			         2.09167	1.17000e+02	
			         2.09333	1.12000e+02	
			         2.09500	1.06000e+02	
			         2.09667	9.70000e+01	
			         2.09833	8.70000e+01	
			         2.10000	7.50000e+01	
			         2.10167	6.30000e+01	
			         2.10333	4.90000e+01	
			         2.10500	3.60000e+01	
			         2.10667	2.30000e+01	
			         2.10833	1.10000e+01	
			         2.11000	0.00000e+00	
			         2.11167	-1.00000e+01	
			         2.11333	-1.80000e+01	
			         2.11500	-2.50000e+01	
			         2.11667	-3.00000e+01	
			         2.11833	-3.40000e+01	
			         2.12000	-3.70000e+01	
			         2.12167	-3.80000e+01	
			         2.12333	-3.90000e+01	
			         2.12500	-3.90000e+01	
			         2.12667	-3.90000e+01	
			         2.12833	-3.80000e+01	
			         2.13000	-3.70000e+01	
			         2.13167	-3.60000e+01	
			         2.13333	-3.50000e+01	
			         2.13500	-3.40000e+01	
			         2.13667	-3.30000e+01	
			         2.13833	-3.20000e+01	
			         2.14000	-3.10000e+01	
			         2.14167	-3.00000e+01	
			         2.14333	-3.00000e+01	
			         2.14500	-2.90000e+01	
			         2.14667	-2.80000e+01	
			         2.14833	-2.70000e+01	
			         2.15000	-2.60000e+01	
			         2.15167	-2.60000e+01	
			         2.15333	-2.50000e+01	
			         2.15500	-2.40000e+01	
			         2.15667	-2.40000e+01	
			         2.15833	-2.30000e+01	
			         2.16000	-2.20000e+01	
			         2.16167	-2.20000e+01	
			         2.16333	-2.10000e+01	
			         2.16500	-2.10000e+01	
			         2.16667	-2.00000e+01	
			         2.16833	-2.00000e+01	
			         2.17000	-1.90000e+01	
			         2.17167	-1.90000e+01	
			         2.17333	-1.80000e+01	
			         2.17500	-1.80000e+01	
			         2.17667	-1.80000e+01	
			         2.17833	-1.70000e+01	
			         2.18000	-1.70000e+01	
			         2.18167	-1.60000e+01	
			         2.18333	-1.60000e+01	
			         2.18500	-1.60000e+01	
			         2.18667	-1.50000e+01	
			         2.18833	-1.50000e+01	
			         2.19000	-1.50000e+01	
			         2.19167	-1.40000e+01	
			         2.19333	-1.40000e+01	
			         2.19500	-1.40000e+01	
			         2.19667	-1.40000e+01	
			         2.19833	-1.40000e+01	
			         2.20000	-1.40000e+01	
			         2.20167	-1.40000e+01	
			         2.20333	-1.30000e+01	
			         2.20500	-1.30000e+01	
			         2.20667	-1.30000e+01	
			         2.20833	-1.30000e+01	
			         2.21000	-1.20000e+01	
			         2.21167	-1.20000e+01	
			         2.21333	-1.20000e+01	
			         2.21500	-1.20000e+01	
			         2.21667	-1.10000e+01	
			         2.21833	-1.00000e+01	
			         2.22000	-1.00000e+01	
			         2.22167	-9.00000e+00	
			         2.22333	-8.00000e+00	
			         2.22500	-8.00000e+00	
			         2.22667	-7.00000e+00	
			         2.22833	-7.00000e+00	
			         2.23000	-6.00000e+00	
			         2.23167	-6.00000e+00	
			         2.23333	-5.00000e+00	
			         2.23500	-5.00000e+00	
			         2.23667	-4.00000e+00	
			         2.23833	-4.00000e+00	
			         2.24000	-4.00000e+00	
			         2.24167	-4.00000e+00	
			         2.24333	-4.00000e+00	
			         2.24500	-4.00000e+00	
			         2.24667	-5.00000e+00	
			         2.24833	-5.00000e+00	
			         2.25000	-5.00000e+00	
			         2.25167	-5.00000e+00	
			         2.25333	-5.00000e+00	
			         2.25500	-5.00000e+00	
			         2.25667	-5.00000e+00	
			         2.25833	-5.00000e+00	
			         2.26000	-5.00000e+00	
			         2.26167	-5.00000e+00	
			         2.26333	-5.00000e+00	
			         2.26500	-4.00000e+00	
			         2.26667	-4.00000e+00	
			         2.26833	-4.00000e+00	
			         2.27000	-3.00000e+00	
			         2.27167	-3.00000e+00	
			         2.27333	-3.00000e+00	
			         2.27500	-3.00000e+00	
			         2.27667	-3.00000e+00	
			         2.27833	-2.00000e+00	
			         2.28000	-2.00000e+00	
			         2.28167	-2.00000e+00	
			         2.28333	-2.00000e+00	
			         2.28500	-1.00000e+00	
			         2.28667	-1.00000e+00	
			         2.28833	-1.00000e+00	
			         2.29000	0.00000e+00	
			         2.29167	1.00000e+00	
			         2.29333	1.00000e+00	
			         2.29500	2.00000e+00	
			         2.29667	3.00000e+00	
			         2.29833	3.00000e+00	
			         2.30000	4.00000e+00	
			         2.30167	5.00000e+00	
			         2.30333	5.00000e+00	
			         2.30500	6.00000e+00	
			         2.30667	6.00000e+00	
			         2.30833	7.00000e+00	
			         2.31000	7.00000e+00	
			         2.31167	8.00000e+00	
			         2.31333	8.00000e+00	
			         2.31500	9.00000e+00	
			         2.31667	9.00000e+00	
			         2.31833	1.00000e+01	
			         2.32000	1.00000e+01	
			         2.32167	1.10000e+01	
			         2.32333	1.20000e+01	
			         2.32500	1.30000e+01	
			         2.32667	1.40000e+01	
			         2.32833	1.50000e+01	
			         2.33000	1.70000e+01	
			         2.33167	1.80000e+01	
			         2.33333	1.90000e+01	
			         2.33500	2.00000e+01	
			         2.33667	2.10000e+01	
			         2.33833	2.30000e+01	
			         2.34000	2.40000e+01	
			         2.34167	2.50000e+01	
			         2.34333	2.60000e+01	
			         2.34500	2.70000e+01	
			         2.34667	2.80000e+01	
			         2.34833	2.90000e+01	
			         2.35000	2.90000e+01	
			         2.35167	3.00000e+01	
			         2.35333	3.00000e+01	
			         2.35500	3.00000e+01	
			         2.35667	3.10000e+01	
			         2.35833	3.10000e+01	
			         2.36000	3.10000e+01	
			         2.36167	3.10000e+01	
			         2.36333	3.10000e+01	
			         2.36500	3.00000e+01	
			         2.36667	3.00000e+01	
			         2.36833	3.00000e+01	
			         2.37000	3.00000e+01	
			         2.37167	3.00000e+01	
			         2.37333	3.00000e+01	
			         2.37500	3.00000e+01	
			         2.37667	3.00000e+01	
			         2.37833	3.00000e+01	
			         2.38000	3.00000e+01	
			         2.38167	3.00000e+01	
			         2.38333	2.90000e+01	
			         2.38500	2.90000e+01	
			         2.38667	2.90000e+01	
			         2.38833	2.80000e+01	
			         2.39000	2.70000e+01	
			         2.39167	2.60000e+01	
			         2.39333	2.50000e+01	
			         2.39500	2.40000e+01	
			         2.39667	2.20000e+01	
			         2.39833	2.10000e+01	
			         2.40000	1.90000e+01	
			         2.40167	1.70000e+01	
			         2.40333	1.50000e+01	
			         2.40500	1.20000e+01	
			         2.40667	1.00000e+01	
			         2.40833	7.00000e+00	
			         2.41000	5.00000e+00	
			         2.41167	2.00000e+00	
			         2.41333	0.00000e+00	
			         2.41500	-3.00000e+00	
			         2.41667	-6.00000e+00	
			         2.41833	-9.00000e+00	
			         2.42000	-1.10000e+01	
			         2.42167	-1.40000e+01	
			         2.42333	-1.60000e+01	
			         2.42500	-1.90000e+01	
			         2.42667	-2.10000e+01	
			         2.42833	-2.30000e+01	
			         2.43000	-2.50000e+01	
			         2.43167	-2.60000e+01	
			         2.43333	-2.80000e+01	
			         2.43500	-2.90000e+01	
			         2.43667	-3.00000e+01	
			         2.43833	-3.10000e+01	
			         2.44000	-3.10000e+01	
			         2.44167	-3.20000e+01	
			         2.44333	-3.20000e+01	
			         2.44500	-3.20000e+01	
			         2.44667	-3.20000e+01	
			         2.44833	-3.20000e+01	
			         2.45000	-3.20000e+01	
			         2.45167	-3.30000e+01	
			         2.45333	-3.30000e+01	
			         2.45500	-3.30000e+01	
			         2.45667	-3.30000e+01	
			         2.45833	-3.30000e+01	
			         2.46000	-3.30000e+01	
			         2.46167	-3.30000e+01	
			         2.46333	-3.30000e+01	
			         2.46500	-3.30000e+01	
			         2.46667	-3.20000e+01	
			         2.46833	-3.20000e+01	
			         2.47000	-3.10000e+01	
			         2.47167	-3.10000e+01	
			         2.47333	-3.00000e+01	
			         2.47500	-2.90000e+01	
			         2.47667	-2.80000e+01	
			         2.47833	-2.80000e+01	
			         2.48000	-2.70000e+01	
			         2.48167	-2.60000e+01	
			         2.48333	-2.50000e+01	
			         2.48500	-2.40000e+01	
			         2.48667	-2.30000e+01	
			         2.48833	-2.20000e+01	
			         2.49000	-2.10000e+01	
			         2.49167	-2.10000e+01	
			         2.49333	-2.00000e+01	
			         2.49500	-1.90000e+01	
			         2.49667	-1.90000e+01	
			         2.49833	-1.90000e+01	
			         2.50000	-1.80000e+01	
			         2.50167	-1.80000e+01	
			         2.50333	-1.90000e+01	
			         2.50500	-1.90000e+01	
			         2.50667	-1.90000e+01	
			         2.50833	-2.00000e+01	
			         2.51000	-2.00000e+01	
			         2.51167	-2.00000e+01	
			         2.51333	-2.00000e+01	
			         2.51500	-2.10000e+01	
			         2.51667	-2.10000e+01	
			         2.51833	-2.10000e+01	
			         2.52000	-2.00000e+01	
			         2.52167	-2.00000e+01	
			         2.52333	-1.90000e+01	
			         2.52500	-1.90000e+01	
			         2.52667	-1.80000e+01	
			         2.52833	-1.70000e+01	
			         2.53000	-1.70000e+01	
			         2.53167	-1.60000e+01	
			         2.53333	-1.60000e+01	
			         2.53500	-1.60000e+01	
			         2.53667	-1.60000e+01	
			         2.53833	-1.50000e+01	
			         2.54000	-1.50000e+01	
			         2.54167	-1.50000e+01	
			         2.54333	-1.50000e+01	
			         2.54500	-1.50000e+01	
			         2.54667	-1.50000e+01	
			         2.54833	-1.50000e+01	
			         2.55000	-1.50000e+01	
			         2.55167	-1.40000e+01	
			         2.55333	-1.40000e+01	
			         2.55500	-1.40000e+01	
			         2.55667	-1.30000e+01	
			         2.55833	-1.30000e+01	
			         2.56000	-1.20000e+01	
			         2.56167	-1.20000e+01	
			         2.56333	-1.10000e+01	
			         2.56500	-1.10000e+01	
			         2.56667	-1.10000e+01	
			         2.56833	-1.10000e+01	
			         2.57000	-1.10000e+01	
			         2.57167	-1.10000e+01	
			         2.57333	-1.10000e+01	
			         2.57500	-1.10000e+01	
			         2.57667	-1.10000e+01	
			         2.57833	-1.10000e+01	
			         2.58000	-1.10000e+01	
			         2.58167	-1.10000e+01	
			         2.58333	-1.10000e+01	
			         2.58500	-1.10000e+01	
			         2.58667	-1.10000e+01	
			         2.58833	-1.00000e+01	
			         2.59000	-1.00000e+01	
			         2.59167	-1.00000e+01	
			         2.59333	-1.00000e+01	
			         2.59500	-9.00000e+00	
			         2.59667	-9.00000e+00	
			         2.59833	-8.00000e+00	
			         2.60000	-8.00000e+00	
			         2.60167	-8.00000e+00	
			         2.60333	-8.00000e+00	
			         2.60500	-8.00000e+00	
			         2.60667	-8.00000e+00	
			         2.60833	-8.00000e+00	
			         2.61000	-8.00000e+00	
			         2.61167	-8.00000e+00	
			         2.61333	-9.00000e+00	
			         2.61500	-9.00000e+00	
			         2.61667	-9.00000e+00	
			         2.61833	-1.00000e+01	
			         2.62000	-1.00000e+01	
			         2.62167	-1.00000e+01	
			         2.62333	-1.00000e+01	
			         2.62500	-1.00000e+01	
			         2.62667	-1.00000e+01	
			         2.62833	-1.00000e+01	
			         2.63000	-9.00000e+00	
			         2.63167	-9.00000e+00	
			         2.63333	-9.00000e+00	
			         2.63500	-9.00000e+00	
			         2.63667	-9.00000e+00	
			         2.63833	-8.00000e+00	
			         2.64000	-8.00000e+00	
			         2.64167	-8.00000e+00	
			         2.64333	-7.00000e+00	
			         2.64500	-7.00000e+00	
			         2.64667	-7.00000e+00	
			         2.64833	-6.00000e+00	
			         2.65000	-6.00000e+00	
			         2.65167	-5.00000e+00	
			         2.65333	-5.00000e+00	
			         2.65500	-4.00000e+00	
			         2.65667	-4.00000e+00	
			         2.65833	-4.00000e+00	
			         2.66000	-3.00000e+00	
			         2.66167	-3.00000e+00	
			         2.66333	-3.00000e+00	
			         2.66500	-3.00000e+00	
			         2.66667	-3.00000e+00	
			         2.66833	-3.00000e+00	
			         2.67000	-3.00000e+00	
			         2.67167	-3.00000e+00	
			         2.67333	-3.00000e+00	
			         2.67500	-4.00000e+00	
			         2.67667	-4.00000e+00	
			         2.67833	-4.00000e+00	
			         2.68000	-4.00000e+00	
			         2.68167	-5.00000e+00	
			         2.68333	-5.00000e+00	
			         2.68500	-5.00000e+00	
			         2.68667	-5.00000e+00	
			         2.68833	-5.00000e+00	
			         2.69000	-5.00000e+00	
			         2.69167	-5.00000e+00	
			         2.69333	-4.00000e+00	
			         2.69500	-4.00000e+00	
			         2.69667	-4.00000e+00	
			         2.69833	-3.00000e+00	
			         2.70000	-3.00000e+00	
			         2.70167	-3.00000e+00	
			         2.70333	-3.00000e+00	
			         2.70500	-3.00000e+00	
			         2.70667	-3.00000e+00	
			         2.70833	-3.00000e+00	
			         2.71000	-3.00000e+00	
			         2.71167	-4.00000e+00	
			         2.71333	-4.00000e+00	
			         2.71500	-4.00000e+00	
			         2.71667	-5.00000e+00	
			         2.71833	-5.00000e+00	
			         2.72000	-5.00000e+00	
			         2.72167	-6.00000e+00	
			         2.72333	-5.00000e+00	
			         2.72500	-5.00000e+00	
			         2.72667	-5.00000e+00	
			         2.72833	-5.00000e+00	
			         2.73000	-4.00000e+00	
			         2.73167	-4.00000e+00	
			         2.73333	-4.00000e+00	
			         2.73500	-4.00000e+00	
			         2.73667	-4.00000e+00	
			         2.73833	-3.00000e+00	
			         2.74000	-3.00000e+00	
			         2.74167	-4.00000e+00	
			         2.74333	-4.00000e+00	
			         2.74500	-4.00000e+00	
			         2.74667	-5.00000e+00	
			         2.74833	-5.00000e+00	
			         2.75000	-6.00000e+00	
			         2.75167	-6.00000e+00	
			         2.75333	-7.00000e+00	
			         2.75500	-7.00000e+00	
			         2.75667	-7.00000e+00	
			         2.75833	-8.00000e+00	
			         2.76000	-8.00000e+00	
			         2.76167	-8.00000e+00	
			         2.76333	-9.00000e+00	
			         2.76500	-9.00000e+00	
			         2.76667	-9.00000e+00	
			         2.76833	-9.00000e+00	
			         2.77000	-9.00000e+00	
			         2.77167	-9.00000e+00	
			         2.77333	-8.00000e+00	
			         2.77500	-8.00000e+00	
			         2.77667	-8.00000e+00	
			         2.77833	-8.00000e+00	
			         2.78000	-7.00000e+00	
			         2.78167	-7.00000e+00	
			         2.78333	-7.00000e+00	
			         2.78500	-6.00000e+00	
			         2.78667	-6.00000e+00	
			         2.78833	-6.00000e+00	
			         2.79000	-5.00000e+00	
			         2.79167	-5.00000e+00	
			         2.79333	-5.00000e+00	
			         2.79500	-5.00000e+00	
			         2.79667	-5.00000e+00	
			         2.79833	-5.00000e+00	
			         2.80000	-5.00000e+00	
			         2.80167	-5.00000e+00	
			         2.80333	-5.00000e+00	
			         2.80500	-5.00000e+00	
			         2.80667	-4.00000e+00	
			         2.80833	-4.00000e+00	
			         2.81000	-4.00000e+00	
			         2.81167	-4.00000e+00	
			         2.81333	-3.00000e+00	
			         2.81500	-3.00000e+00	
			         2.81667	-3.00000e+00	
			         2.81833	-2.00000e+00	
			         2.82000	-2.00000e+00	
			         2.82167	-2.00000e+00	
			         2.82333	-1.00000e+00	
			         2.82500	-1.00000e+00	
			         2.82667	-1.00000e+00	
			         2.82833	-1.00000e+00	
			         2.83000	0.00000e+00	
			         2.83167	0.00000e+00	
			         2.83333	0.00000e+00	
			         2.83500	0.00000e+00	
			         2.83667	0.00000e+00	
			         2.83833	0.00000e+00	
			         2.84000	0.00000e+00	
			         2.84167	0.00000e+00	
			         2.84333	0.00000e+00	
			         2.84500	0.00000e+00	
			         2.84667	0.00000e+00	
			         2.84833	0.00000e+00	
			         2.85000	0.00000e+00	
			         2.85167	0.00000e+00	
			         2.85333	0.00000e+00	
			         2.85500	0.00000e+00	
			         2.85667	-1.00000e+00	
			         2.85833	-1.00000e+00	
			         2.86000	-1.00000e+00	
			         2.86167	-1.00000e+00	
			         2.86333	-1.00000e+00	
			         2.86500	-2.00000e+00	
			         2.86667	-2.00000e+00	
			         2.86833	-2.00000e+00	
			         2.87000	-2.00000e+00	
			         2.87167	-2.00000e+00	
			         2.87333	-2.00000e+00	
			         2.87500	-3.00000e+00	
			         2.87667	-3.00000e+00	
			         2.87833	-3.00000e+00	
			         2.88000	-3.00000e+00	
			         2.88167	-3.00000e+00	
			         2.88333	-2.00000e+00	
			         2.88500	-2.00000e+00	
			         2.88667	-2.00000e+00	
			         2.88833	-2.00000e+00	
			         2.89000	-2.00000e+00	
			         2.89167	-1.00000e+00	
			         2.89333	-1.00000e+00	
			         2.89500	-1.00000e+00	
			         2.89667	0.00000e+00	
			         2.89833	0.00000e+00	
			         2.90000	0.00000e+00	
			         2.90167	0.00000e+00	
			         2.90333	0.00000e+00	
			         2.90500	0.00000e+00	
			         2.90667	0.00000e+00	
			         2.90833	0.00000e+00	
			         2.91000	0.00000e+00	
			         2.91167	0.00000e+00	
			         2.91333	0.00000e+00	
			         2.91500	0.00000e+00	
			         2.91667	0.00000e+00	
			         2.91833	0.00000e+00	
			         2.92000	1.00000e+00	
			         2.92167	1.00000e+00	
			         2.92333	2.00000e+00	
			         2.92500	3.00000e+00	
			         2.92667	4.00000e+00	
			         2.92833	5.00000e+00	
			         2.93000	6.00000e+00	
			         2.93167	7.00000e+00	
			         2.93333	8.00000e+00	
			         2.93500	9.00000e+00	
			         2.93667	1.00000e+01	
			         2.93833	1.00000e+01	
			         2.94000	1.10000e+01	
			         2.94167	1.10000e+01	
			         2.94333	1.20000e+01	
			         2.94500	1.20000e+01	
			         2.94667	1.10000e+01	
			         2.94833	1.10000e+01	
			         2.95000	1.10000e+01	
			         2.95167	1.00000e+01	
			         2.95333	1.00000e+01	
			         2.95500	9.00000e+00	
			         2.95667	8.00000e+00	
			         2.95833	8.00000e+00	
			         2.96000	7.00000e+00	
			         2.96167	6.00000e+00	
			         2.96333	6.00000e+00	
			         2.96500	5.00000e+00	
			         2.96667	5.00000e+00	
			         2.96833	4.00000e+00	
			         2.97000	4.00000e+00	
			         2.97167	3.00000e+00	
			         2.97333	3.00000e+00	
			         2.97500	2.00000e+00	
			         2.97667	2.00000e+00	
			         2.97833	1.00000e+00	
			         2.98000	1.00000e+00	
			         2.98167	1.00000e+00	
			         2.98333	0.00000e+00	
			         2.98500	0.00000e+00	
			         2.98667	-1.00000e+00	
			         2.98833	-1.00000e+00	
			         2.99000	-2.00000e+00	
			         2.99167	-2.00000e+00	
			         2.99333	-2.00000e+00	
			         2.99500	-3.00000e+00	
			         2.99667	-3.00000e+00	
			         2.99833	-4.00000e+00	
			         3.00000	-4.00000e+00	
			         3.00167	-4.00000e+00	
			         3.00333	-5.00000e+00	
			         3.00500	-5.00000e+00	
			         3.00667	-5.00000e+00	
			         3.00833	-6.00000e+00	
			         3.01000	-6.00000e+00	
			         3.01167	-6.00000e+00	
			         3.01333	-6.00000e+00	
			         3.01500	-7.00000e+00	
			         3.01667	-7.00000e+00	
			         3.01833	-7.00000e+00	
			         3.02000	-7.00000e+00	
			         3.02167	-7.00000e+00	
			         3.02333	-7.00000e+00	
			         3.02500	-7.00000e+00	
			         3.02667	-8.00000e+00	
			         3.02833	-8.00000e+00	
			         3.03000	-8.00000e+00	
			         3.03167	-8.00000e+00	
			         3.03333	-8.00000e+00	
			         3.03500	-8.00000e+00	
			         3.03667	-8.00000e+00	
			         3.03833	-8.00000e+00	
			         3.04000	-8.00000e+00	
			         3.04167	-8.00000e+00	
			         3.04333	-8.00000e+00	
			         3.04500	-7.00000e+00	
			         3.04667	-7.00000e+00	
			         3.04833	-7.00000e+00	
			         3.05000	-7.00000e+00	
			         3.05167	-7.00000e+00	
			         3.05333	-7.00000e+00	
			         3.05500	-7.00000e+00	
			         3.05667	-7.00000e+00	
			         3.05833	-7.00000e+00	
			         3.06000	-7.00000e+00	
			         3.06167	-7.00000e+00	
			         3.06333	-8.00000e+00	
			         3.06500	-8.00000e+00	
			         3.06667	-8.00000e+00	
			         3.06833	-8.00000e+00	
			         3.07000	-9.00000e+00	
			         3.07167	-9.00000e+00	
			         3.07333	-1.00000e+01	
			         3.07500	-1.00000e+01	
			         3.07667	-1.10000e+01	
			         3.07833	-1.10000e+01	
			         3.08000	-1.10000e+01	
			         3.08167	-1.10000e+01	
			         3.08333	-1.20000e+01	
			         3.08500	-1.20000e+01	
			         3.08667	-1.20000e+01	
			         3.08833	-1.20000e+01	
			         3.09000	-1.20000e+01	
			         3.09167	-1.20000e+01	
			         3.09333	-1.10000e+01	
			         3.09500	-1.00000e+01	
			         3.09667	-8.00000e+00	
			         3.09833	-6.00000e+00	
			         3.10000	-4.00000e+00	
			         3.10167	0.00000e+00	
			         3.10333	4.00000e+00	
			         3.10500	1.00000e+01	
			         3.10667	1.60000e+01	
			         3.10833	2.30000e+01	
			         3.11000	3.10000e+01	
			         3.11167	4.00000e+01	
			         3.11333	5.00000e+01	
			         3.11500	6.00000e+01	
			         3.11667	7.00000e+01	
			         3.11833	8.00000e+01	
			         3.12000	9.00000e+01	
			         3.12167	9.90000e+01	
			         3.12333	1.07000e+02	
			         3.12500	1.13000e+02	
			         3.12667	1.16000e+02	
			         3.12833	1.18000e+02	
			         3.13000	1.18000e+02	
			         3.13167	1.15000e+02	
			         3.13333	1.10000e+02	
			         3.13500	1.02000e+02	
			         3.13667	9.30000e+01	
			         3.13833	8.20000e+01	
			         3.14000	7.00000e+01	
			         3.14167	5.70000e+01	
			         3.14333	4.40000e+01	
			         3.14500	3.20000e+01	
			         3.14667	1.90000e+01	
			         3.14833	8.00000e+00	
			         3.15000	-2.00000e+00	
			         3.15167	-1.00000e+01	
			         3.15333	-1.80000e+01	
			         3.15500	-2.40000e+01	
			         3.15667	-2.80000e+01	
			         3.15833	-3.20000e+01	
			         3.16000	-3.40000e+01	
			         3.16167	-3.50000e+01	
			         3.16333	-3.60000e+01	
			         3.16500	-3.50000e+01	
			         3.16667	-3.40000e+01	
			         3.16833	-3.30000e+01	
			         3.17000	-3.10000e+01	
			         3.17167	-3.00000e+01	
