Velocity (TVI), in cm/s

Time (s) :	Trace 1 : 		Ecg : 		
0.00831   	1.38369e+00		         0.00000	2.31000e+02	
0.01742   	2.46911e+00		         0.00167	2.63000e+02	
0.02654   	3.32254e+00		         0.00333	2.91000e+02	
0.03566   	2.00627e+00		         0.00500	3.16000e+02	
0.04508   	-6.77107e-01		         0.00667	3.35000e+02	
0.05417   	-2.46064e+00		         0.00833	3.47000e+02	
0.06329   	-2.44313e+00		         0.01000	3.50000e+02	
0.07242   	-1.55705e+00		         0.01167	3.45000e+02	
0.08182   	-3.40792e-01		         0.01333	3.30000e+02	
0.09093   	9.89065e-01		         0.01500	3.06000e+02	
0.10005   	2.29686e+00		         0.01667	2.75000e+02	
0.10917   	3.12962e+00		         0.01833	2.37000e+02	
0.11858   	3.42702e+00		         0.02000	1.94000e+02	
0.12769   	3.62434e+00		         0.02167	1.49000e+02	
0.13681   	3.67695e+00		         0.02333	1.03000e+02	
0.14599   	3.76004e+00		         0.02500	5.70000e+01	
0.15535   	3.73706e+00		         0.02667	1.50000e+01	
0.16445   	3.70486e+00		         0.02833	-2.40000e+01	
0.17357   	3.71363e+00		         0.03000	-5.80000e+01	
0.18269   	3.77712e+00		         0.03167	-8.70000e+01	
0.19211   	3.85710e+00		         0.03333	-1.10000e+02	
0.20120   	3.84034e+00		         0.03500	-1.28000e+02	
0.21032   	3.79493e+00		         0.03667	-1.40000e+02	
0.21945   	3.76613e+00		         0.03833	-1.48000e+02	
0.22889   	3.73045e+00		         0.04000	-1.52000e+02	
0.23796   	3.65556e+00		         0.04167	-1.52000e+02	
0.24708   	3.56188e+00		         0.04333	-1.49000e+02	
0.25620   	3.45849e+00		         0.04500	-1.45000e+02	
0.26562   	3.33323e+00		         0.04667	-1.39000e+02	
0.27472   	3.14308e+00		         0.04833	-1.32000e+02	
0.28384   	2.96706e+00		         0.05000	-1.25000e+02	
0.29296   	2.79980e+00		         0.05167	-1.17000e+02	
0.30237   	2.67666e+00		         0.05333	-1.09000e+02	
0.31147   	2.50728e+00		         0.05500	-1.02000e+02	
0.32060   	2.33625e+00		         0.05667	-9.40000e+01	
0.32972   	2.05696e+00		         0.05833	-8.80000e+01	
0.33913   	1.77131e+00		         0.06000	-8.20000e+01	
0.34823   	1.37996e+00		         0.06167	-7.60000e+01	
0.35735   	8.82800e-01		         0.06333	-7.10000e+01	
0.36648   	7.91964e-02		         0.06500	-6.70000e+01	
0.37588   	-8.33821e-01		         0.06667	-6.40000e+01	
0.38499   	-9.24223e-01		         0.06833	-6.00000e+01	
0.39411   	6.51809e-02		         0.07000	-5.70000e+01	
0.40323   	1.21379e+00		         0.07167	-5.40000e+01	
0.41263   	2.06736e+00		         0.07333	-5.20000e+01	
0.42175   	2.49473e+00		         0.07500	-4.90000e+01	
0.43087   	3.06861e+00		         0.07667	-4.60000e+01	
0.43999   	3.44892e+00		         0.07833	-4.40000e+01	
0.44941   	3.28891e+00		         0.08000	-4.10000e+01	
0.45851   	2.70441e+00		         0.08167	-3.90000e+01	
0.46763   	1.26773e+00		         0.08333	-3.70000e+01	
0.47675   	-1.96670e-01		         0.08500	-3.40000e+01	
0.48616   	-1.72064e+00		         0.08667	-3.30000e+01	
0.49526   	-2.64757e+00		         0.08833	-3.10000e+01	
0.50438   	-3.35131e+00		         0.09000	-3.00000e+01	
0.51350   	-3.66070e+00		         0.09167	-2.90000e+01	
0.52291   	-3.75744e+00		         0.09333	-2.80000e+01	
0.53202   	-3.81451e+00		         0.09500	-2.80000e+01	
0.54114   	-3.67177e+00		         0.09667	-2.70000e+01	
0.55026   	-3.54928e+00		         0.09833	-2.70000e+01	
0.55968   	-3.24136e+00		         0.10000	-2.70000e+01	
0.56878   	-2.90309e+00		         0.10167	-2.70000e+01	
0.57790   	-2.47908e+00		         0.10333	-2.60000e+01	
0.58702   	-2.05276e+00		         0.10500	-2.50000e+01	
0.59643   	-1.67043e+00		         0.10667	-2.30000e+01	
0.60554   	-1.24724e+00		         0.10833	-2.20000e+01	
0.61466   	-8.25222e-01		         0.11000	-2.00000e+01	
0.62378   	-4.41265e-01		         0.11167	-1.90000e+01	
0.63320   	-1.66184e-01		         0.11333	-1.80000e+01	
0.64229   	1.13473e-02		         0.11500	-1.70000e+01	
0.65142   	1.14183e-01		         0.11667	-1.60000e+01	
0.66064   	1.52590e-01		         0.11833	-1.50000e+01	
0.66996   	2.25817e-02		         0.12000	-1.40000e+01	
0.67905   	-2.85037e-01		         0.12167	-1.30000e+01	
0.68817   	-7.75890e-01		         0.12333	-1.20000e+01	
0.69730   	-1.44751e+00		         0.12500	-1.20000e+01	
0.70670   	-2.35212e+00		         0.12667	-1.20000e+01	
0.71581   	-3.43863e+00		         0.12833	-1.30000e+01	
0.72493   	-4.59437e+00		         0.13000	-1.20000e+01	
0.73405   	-5.67443e+00		         0.13167	-1.20000e+01	
0.74374   	-6.59642e+00		         0.13333	-1.10000e+01	
0.75257   	-7.16762e+00		         0.13500	-1.00000e+01	
0.76169   	-7.32221e+00		         0.13667	-9.00000e+00	
0.77081   	-6.88636e+00		         0.13833	-8.00000e+00	
0.78022   	-5.97614e+00		         0.14000	-7.00000e+00	
0.78932   	-4.65029e+00		         0.14167	-5.00000e+00	
0.79845   	-3.21477e+00		         0.14333	-4.00000e+00	
0.80757   	-1.85678e+00		         0.14500	-3.00000e+00	
0.81697   	-3.19403e-01		         0.14667	-2.00000e+00	
0.82608   	1.44964e+00		         0.14833	-1.00000e+00	
0.83520   	3.07654e+00		         0.15000	0.00000e+00	
0.84432   	2.54699e+00		         0.15167	0.00000e+00	
0.85373   	7.92018e-01		         0.15333	1.00000e+00	
0.86284   	-1.63002e+00		         0.15500	1.00000e+00	
0.87196   	-2.69312e+00		         0.15667	1.00000e+00	
0.88108   	-2.72913e+00		         0.15833	1.00000e+00	
0.89049   	-1.98380e+00		         0.16000	1.00000e+00	
0.89960   	-4.66012e-01		         0.16167	1.00000e+00	
0.90872   	9.39156e-01		         0.16333	1.00000e+00	
0.91784   	2.21681e+00		         0.16500	2.00000e+00	
0.92725   	2.91908e+00		         0.16667	2.00000e+00	
0.93635   	3.19518e+00		         0.16833	3.00000e+00	
0.94547   	3.33290e+00		         0.17000	4.00000e+00	
0.95460   	3.36098e+00		         0.17167	5.00000e+00	
0.96401   	3.36006e+00		         0.17333	7.00000e+00	
0.97311   	3.28136e+00		         0.17500	9.00000e+00	
0.98223   	3.19910e+00		         0.17667	1.10000e+01	
0.99135   	3.19387e+00		         0.17833	1.20000e+01	
1.00076   	3.23938e+00		         0.18000	1.40000e+01	
1.00987   	3.35160e+00		         0.18167	1.50000e+01	
1.01899   	3.45238e+00		         0.18333	1.60000e+01	
1.02811   	3.46902e+00		         0.18500	1.70000e+01	
1.03752   	3.43568e+00		         0.18667	1.70000e+01	
1.04663   	3.32866e+00		         0.18833	1.80000e+01	
1.05575   	3.23360e+00		         0.19000	1.80000e+01	
1.06487   	3.07937e+00		         0.19167	1.80000e+01	
1.07428   	2.89486e+00		         0.19333	1.90000e+01	
1.08338   	2.71717e+00		         0.19500	1.90000e+01	
1.09251   	2.58988e+00		         0.19667	1.90000e+01	
1.10162   	2.47518e+00		         0.19833	1.90000e+01	
1.11103   	2.32825e+00		         0.20000	2.00000e+01	
1.12014   	2.19579e+00		         0.20167	2.00000e+01	
1.12927   	1.99219e+00		         0.20333	2.00000e+01	
1.13838   	1.82441e+00		         0.20500	2.10000e+01	
1.14780   	1.49146e+00		         0.20667	2.20000e+01	
1.15690   	1.25683e+00		         0.20833	2.20000e+01	
1.16602   	8.70679e-01		         0.21000	2.30000e+01	
1.17525   	3.46731e-01		         0.21167	2.30000e+01	
1.18455   	-5.26286e-01		         0.21333	2.40000e+01	
1.19365   	-1.59905e+00		         0.21500	2.40000e+01	
1.20278   	-2.10333e+00		         0.21667	2.50000e+01	
1.21190   	-1.60359e+00		         0.21833	2.60000e+01	
1.22132   	-5.04893e-01		         0.22000	2.70000e+01	
1.23042   	6.13400e-01		         0.22167	2.80000e+01	
1.23953   	1.43784e+00		         0.22333	2.90000e+01	
1.24866   	2.05244e+00		         0.22500	3.10000e+01	
1.25807   	2.45068e+00		         0.22667	3.20000e+01	
1.26717   	2.44955e+00		         0.22833	3.40000e+01	
1.27629   	2.16742e+00		         0.23000	3.60000e+01	
1.28542   	1.03744e+00		         0.23167	3.70000e+01	
1.29482   	-2.12529e-01		         0.23333	3.90000e+01	
1.30393   	-1.50524e+00		         0.23500	4.10000e+01	
1.31305   	-2.17484e+00		         0.23667	4.20000e+01	
1.32217   	-2.77690e+00		         0.23833	4.40000e+01	
1.33158   	-3.11298e+00		         0.24000	4.50000e+01	
1.34068   	-3.32024e+00		         0.24167	4.70000e+01	
1.34981   	-3.32646e+00		         0.24333	4.80000e+01	
1.35893   	-3.20523e+00		         0.24500	4.90000e+01	
1.36833   	-3.06688e+00		         0.24667	5.00000e+01	
1.37744   	-2.93350e+00		         0.24833	5.00000e+01	
1.38656   	-2.73435e+00		         0.25000	4.90000e+01	
1.39569   	-2.47902e+00		         0.25167	4.90000e+01	
1.40509   	-2.16295e+00		         0.25333	4.80000e+01	
1.41420   	-2.04439e+00		         0.25500	4.60000e+01	
1.42332   	-1.84410e+00		         0.25667	4.50000e+01	
1.43245   	-1.56853e+00		         0.25833	4.50000e+01	
1.44185   	-1.10058e+00		         0.26000	4.40000e+01	
1.45096   	-6.85083e-01		         0.26167	4.30000e+01	
1.46008   	-3.91186e-01		         0.26333	4.30000e+01	
1.46920   	-2.26016e-01		         0.26500	4.20000e+01	
1.47861   	-8.77949e-02		         0.26667	4.20000e+01	
1.48771   	-9.83867e-03		         0.26833	4.10000e+01	
1.49684   	-3.02893e-02		         0.27000	4.10000e+01	
1.50596   	-2.08097e-01		         0.27167	4.10000e+01	
1.51537   	-6.18312e-01		         0.27333	4.10000e+01	
1.52447   	-1.27081e+00		         0.27500	4.00000e+01	
1.53359   	-2.27278e+00		         0.27667	3.90000e+01	
1.54271   	-3.51220e+00		         0.27833	3.70000e+01	
1.55213   	-4.80004e+00		         0.28000	3.60000e+01	
1.56123   	-6.09945e+00		         0.28167	3.40000e+01	
1.57035   	-7.05490e+00		         0.28333	3.10000e+01	
1.57947   	-7.68066e+00		         0.28500	2.90000e+01	
1.58889   	-7.79948e+00		         0.28667	2.70000e+01	
1.59799   	-7.52472e+00		         0.28833	2.50000e+01	
1.60718   	-6.77782e+00		         0.29000	2.30000e+01	
1.61623   	-5.51849e+00		         0.29167	2.10000e+01	
1.62564   	-4.05132e+00		         0.29333	1.90000e+01	
1.63475   	-2.55642e+00		         0.29500	1.80000e+01	
1.64387   	-1.24471e+00		         0.29667	1.60000e+01	
1.65299   	4.12779e-01		         0.29833	1.40000e+01	
1.66240   	2.07425e+00		         0.30000	1.20000e+01	
1.67150   	3.15408e+00		         0.30167	1.00000e+01	
1.68062   	2.03270e+00		         0.30333	7.00000e+00	
1.68996   	-8.66874e-03		         0.30500	5.00000e+00	
1.69915   	-2.06894e+00		         0.30667	2.00000e+00	
1.70826   	-2.28167e+00		         0.30833	-1.00000e+00	
1.71738   	-1.61268e+00		         0.31000	-5.00000e+00	
1.72650   	-1.47072e-01		         0.31167	-9.00000e+00	
1.73592   	1.33492e+00		         0.31333	-1.40000e+01	
1.74502   	2.64544e+00		         0.31500	-1.90000e+01	
1.75414   	3.52469e+00		         0.31667	-2.40000e+01	
1.76326   	4.00161e+00		         0.31833	-2.90000e+01	
1.77266   	4.12602e+00		         0.32000	-3.40000e+01	
1.78177   	4.11598e+00		         0.32167	-3.90000e+01	
1.79090   	4.01857e+00		         0.32333	-4.40000e+01	
1.80002   	4.03730e+00		         0.32500	-4.80000e+01	
1.80943   	4.03258e+00		         0.32667	-5.20000e+01	
1.81853   	4.03348e+00		         0.32833	-5.50000e+01	
1.82766   	3.97154e+00		         0.33000	-5.70000e+01	
1.83677   	4.00562e+00		         0.33167	-5.90000e+01	
1.84619   	4.04309e+00		         0.33333	-6.00000e+01	
1.85529   	4.08011e+00		         0.33500	-6.00000e+01	
1.86442   	4.05663e+00		         0.33667	-6.00000e+01	
1.87353   	3.96324e+00		         0.33833	-6.00000e+01	
1.88294   	3.89619e+00		         0.34000	-6.00000e+01	
1.89205   	3.74943e+00		         0.34167	-6.00000e+01	
1.90117   	3.60745e+00		         0.34333	-6.00000e+01	
1.91029   	3.37853e+00		         0.34500	-6.00000e+01	
1.91971   	3.22081e+00		         0.34667	-5.90000e+01	
1.92881   	3.01996e+00		         0.34833	-5.80000e+01	
1.93792   	2.87985e+00		         0.35000	-5.70000e+01	
1.94705   	2.70709e+00		         0.35167	-5.60000e+01	
1.95646   	2.57519e+00		         0.35333	-5.50000e+01	
1.96556   	2.44832e+00		         0.35500	-5.50000e+01	
1.97468   	2.22389e+00		         0.35667	-5.40000e+01	
1.98381   	1.97741e+00		         0.35833	-5.40000e+01	
1.99322   	1.56448e+00		         0.36000	-5.40000e+01	
2.00232   	1.04379e+00		         0.36167	-5.30000e+01	
2.01144   	3.98564e-02		         0.36333	-5.30000e+01	
2.02056   	-1.09773e+00		         0.36500	-5.30000e+01	
2.02999   	-2.06895e+00		         0.36667	-5.30000e+01	
2.03908   	-2.21966e+00		         0.36833	-5.30000e+01	
2.04820   	-1.86159e+00		         0.37000	-5.30000e+01	
2.05732   	-1.03783e+00		         0.37167	-5.40000e+01	
2.06674   	-9.80299e-02		         0.37333	-5.40000e+01	
2.07584   	9.44884e-01		         0.37500	-5.40000e+01	
2.08496   	1.50650e+00		         0.37667	-5.50000e+01	
2.09408   	1.44744e+00		         0.37833	-5.50000e+01	
2.10349   	9.71950e-01		         0.38000	-5.50000e+01	
2.11259   	-2.83091e-02		         0.38167	-5.50000e+01	
2.12171   	-8.24498e-01		         0.38333	-5.50000e+01	
2.13084   	-1.79748e+00		         0.38500	-5.40000e+01	
2.14024   	-2.30936e+00		         0.38667	-5.30000e+01	
2.14935   	-2.96020e+00		         0.38833	-5.30000e+01	
2.15847   	-3.25005e+00		         0.39000	-5.20000e+01	
2.16759   	-3.37015e+00		         0.39167	-5.20000e+01	
2.17701   	-3.18578e+00		         0.39333	-5.10000e+01	
2.18611   	-3.13522e+00		         0.39500	-5.10000e+01	
2.19523   	-3.03713e+00		         0.39667	-4.90000e+01	
2.20449   	-2.98545e+00		         0.39833	-4.80000e+01	
2.21377   	-2.74749e+00		         0.40000	-4.60000e+01	
2.22286   	-2.45263e+00		         0.40167	-4.50000e+01	
2.23199   	-2.20281e+00		         0.40333	-4.30000e+01	
2.24111   	-1.90278e+00		         0.40500	-4.20000e+01	
2.25051   	-1.76624e+00		         0.40667	-4.00000e+01	
2.25962   	-1.52771e+00		         0.40833	-3.90000e+01	
2.26874   	-1.28745e+00		         0.41000	-3.70000e+01	
2.27787   	-8.70006e-01		         0.41167	-3.50000e+01	
2.28727   	-4.65357e-01		         0.41333	-3.30000e+01	
2.29638   	-1.93893e-01		         0.41500	-3.10000e+01	
2.30550   	-1.25145e-02		         0.41667	-3.00000e+01	
2.31462   	3.12034e-02		         0.41833	-2.90000e+01	
2.32403   	6.05555e-02		         0.42000	-2.80000e+01	
2.33314   	-4.04742e-02		         0.42167	-2.70000e+01	
2.34226   	-4.39775e-01		         0.42333	-2.60000e+01	
2.35138   	-1.35799e+00		         0.42500	-2.50000e+01	
2.36080   	-2.57521e+00		         0.42667	-2.50000e+01	
2.36989   	-3.79677e+00		         0.42833	-2.50000e+01	
2.37902   	-5.04303e+00		         0.43000	-2.50000e+01	
2.38814   	-6.35982e+00		         0.43167	-2.50000e+01	
2.39756   	-7.34764e+00		         0.43333	-2.60000e+01	
2.40665   	-7.80245e+00		         0.43500	-2.60000e+01	
2.41577   	-7.67854e+00		         0.43667	-2.60000e+01	
2.42490   	-7.27966e+00		         0.43833	-2.60000e+01	
2.43430   	-6.52342e+00		         0.44000	-2.50000e+01	
2.44340   	-5.37874e+00		         0.44167	-2.50000e+01	
2.45253   	-4.07171e+00		         0.44333	-2.40000e+01	
2.46165   	-2.85336e+00		         0.44500	-2.30000e+01	
2.47107   	-1.68658e+00		         0.44667	-2.10000e+01	
2.48017   	8.00879e-02		         0.44833	-2.00000e+01	
2.48929   	1.87237e+00		         0.45000	-1.80000e+01	
2.49841   	3.09314e+00		         0.45167	-1.60000e+01	
2.50783   	3.32442e+00		         0.45333	-1.40000e+01	
			         0.45500	-1.30000e+01	
			         0.45667	-1.20000e+01	
			         0.45833	-1.10000e+01	
			         0.46000	-1.00000e+01	
			         0.46167	-1.00000e+01	
			         0.46333	-1.00000e+01	
			         0.46500	-1.10000e+01	
			         0.46667	-1.10000e+01	
			         0.46833	-1.20000e+01	
			         0.47000	-1.30000e+01	
			         0.47167	-1.40000e+01	
			         0.47333	-1.50000e+01	
			         0.47500	-1.60000e+01	
			         0.47667	-1.70000e+01	
			         0.47833	-1.80000e+01	
			         0.48000	-1.80000e+01	
			         0.48167	-1.80000e+01	
			         0.48333	-1.80000e+01	
			         0.48500	-1.80000e+01	
			         0.48667	-1.70000e+01	
			         0.48833	-1.60000e+01	
			         0.49000	-1.50000e+01	
			         0.49167	-1.30000e+01	
			         0.49333	-1.10000e+01	
			         0.49500	-9.00000e+00	
			         0.49667	-7.00000e+00	
			         0.49833	-6.00000e+00	
			         0.50000	-5.00000e+00	
			         0.50167	-4.00000e+00	
			         0.50333	-4.00000e+00	
			         0.50500	-3.00000e+00	
			         0.50667	-3.00000e+00	
			         0.50833	-3.00000e+00	
			         0.51000	-3.00000e+00	
			         0.51167	-3.00000e+00	
			         0.51333	-3.00000e+00	
			         0.51500	-2.00000e+00	
			         0.51667	-1.00000e+00	
			         0.51833	0.00000e+00	
			         0.52000	1.00000e+00	
			         0.52167	2.00000e+00	
			         0.52333	2.00000e+00	
			         0.52500	3.00000e+00	
			         0.52667	3.00000e+00	
			         0.52833	3.00000e+00	
			         0.53000	2.00000e+00	
			         0.53167	1.00000e+00	
			         0.53333	0.00000e+00	
			         0.53500	-1.00000e+00	
			         0.53667	-3.00000e+00	
			         0.53833	-5.00000e+00	
			         0.54000	-7.00000e+00	
			         0.54167	-8.00000e+00	
			         0.54333	-9.00000e+00	
			         0.54500	-9.00000e+00	
			         0.54667	-9.00000e+00	
			         0.54833	-9.00000e+00	
			         0.55000	-8.00000e+00	
			         0.55167	-8.00000e+00	
			         0.55333	-7.00000e+00	
			         0.55500	-6.00000e+00	
			         0.55667	-6.00000e+00	
			         0.55833	-5.00000e+00	
			         0.56000	-5.00000e+00	
			         0.56167	-5.00000e+00	
			         0.56333	-5.00000e+00	
			         0.56500	-6.00000e+00	
			         0.56667	-6.00000e+00	
			         0.56833	-6.00000e+00	
			         0.57000	-7.00000e+00	
			         0.57167	-7.00000e+00	
			         0.57333	-7.00000e+00	
			         0.57500	-7.00000e+00	
			         0.57667	-6.00000e+00	
			         0.57833	-5.00000e+00	
			         0.58000	-4.00000e+00	
			         0.58167	-4.00000e+00	
			         0.58333	-4.00000e+00	
			         0.58500	-4.00000e+00	
			         0.58667	-4.00000e+00	
			         0.58833	-4.00000e+00	
			         0.59000	-5.00000e+00	
			         0.59167	-5.00000e+00	
			         0.59333	-6.00000e+00	
			         0.59500	-7.00000e+00	
			         0.59667	-7.00000e+00	
			         0.59833	-8.00000e+00	
			         0.60000	-8.00000e+00	
			         0.60167	-7.00000e+00	
			         0.60333	-6.00000e+00	
			         0.60500	-4.00000e+00	
			         0.60667	-3.00000e+00	
			         0.60833	-1.00000e+00	
			         0.61000	1.00000e+00	
			         0.61167	2.00000e+00	
			         0.61333	4.00000e+00	
			         0.61500	5.00000e+00	
			         0.61667	5.00000e+00	
			         0.61833	6.00000e+00	
			         0.62000	6.00000e+00	
			         0.62167	5.00000e+00	
			         0.62333	5.00000e+00	
			         0.62500	4.00000e+00	
			         0.62667	4.00000e+00	
			         0.62833	3.00000e+00	
			         0.63000	3.00000e+00	
			         0.63167	2.00000e+00	
			         0.63333	2.00000e+00	
			         0.63500	1.00000e+00	
			         0.63667	0.00000e+00	
			         0.63833	-1.00000e+00	
			         0.64000	-2.00000e+00	
			         0.64167	-3.00000e+00	
			         0.64333	-3.00000e+00	
			         0.64500	-3.00000e+00	
			         0.64667	-3.00000e+00	
			         0.64833	-3.00000e+00	
			         0.65000	-2.00000e+00	
			         0.65167	-1.00000e+00	
			         0.65333	0.00000e+00	
			         0.65500	2.00000e+00	
			         0.65667	4.00000e+00	
			         0.65833	7.00000e+00	
			         0.66000	9.00000e+00	
			         0.66167	1.10000e+01	
			         0.66333	1.30000e+01	
			         0.66500	1.50000e+01	
			         0.66667	1.60000e+01	
			         0.66833	1.70000e+01	
			         0.67000	1.70000e+01	
			         0.67167	1.60000e+01	
			         0.67333	1.60000e+01	
			         0.67500	1.50000e+01	
			         0.67667	1.40000e+01	
			         0.67833	1.30000e+01	
			         0.68000	1.20000e+01	
			         0.68167	1.10000e+01	
			         0.68333	1.00000e+01	
			         0.68500	9.00000e+00	
			         0.68667	8.00000e+00	
			         0.68833	7.00000e+00	
			         0.69000	7.00000e+00	
			         0.69167	7.00000e+00	
			         0.69333	7.00000e+00	
			         0.69500	8.00000e+00	
			         0.69667	8.00000e+00	
			         0.69833	9.00000e+00	
			         0.70000	9.00000e+00	
			         0.70167	9.00000e+00	
			         0.70333	9.00000e+00	
			         0.70500	8.00000e+00	
			         0.70667	7.00000e+00	
			         0.70833	6.00000e+00	
			         0.71000	5.00000e+00	
			         0.71167	3.00000e+00	
			         0.71333	1.00000e+00	
			         0.71500	-1.00000e+00	
			         0.71667	-4.00000e+00	
			         0.71833	-7.00000e+00	
			         0.72000	-9.00000e+00	
			         0.72167	-1.10000e+01	
			         0.72333	-1.20000e+01	
			         0.72500	-1.30000e+01	
			         0.72667	-1.40000e+01	
			         0.72833	-1.50000e+01	
			         0.73000	-1.50000e+01	
			         0.73167	-1.60000e+01	
			         0.73333	-1.60000e+01	
			         0.73500	-1.50000e+01	
			         0.73667	-1.50000e+01	
			         0.73833	-1.40000e+01	
			         0.74000	-1.40000e+01	
			         0.74167	-1.30000e+01	
			         0.74333	-1.30000e+01	
			         0.74500	-1.30000e+01	
			         0.74667	-1.30000e+01	
			         0.74833	-1.30000e+01	
			         0.75000	-1.30000e+01	
			         0.75167	-1.40000e+01	
			         0.75333	-1.40000e+01	
			         0.75500	-1.40000e+01	
			         0.75667	-1.40000e+01	
			         0.75833	-1.40000e+01	
			         0.76000	-1.50000e+01	
			         0.76167	-1.50000e+01	
			         0.76333	-1.50000e+01	
			         0.76500	-1.50000e+01	
			         0.76667	-1.40000e+01	
			         0.76833	-1.40000e+01	
			         0.77000	-1.30000e+01	
			         0.77167	-1.20000e+01	
			         0.77333	-1.10000e+01	
			         0.77500	-1.00000e+01	
			         0.77667	-1.00000e+01	
			         0.77833	-9.00000e+00	
			         0.78000	-8.00000e+00	
			         0.78167	-6.00000e+00	
			         0.78333	-5.00000e+00	
			         0.78500	-3.00000e+00	
			         0.78667	-1.00000e+00	
			         0.78833	0.00000e+00	
			         0.79000	2.00000e+00	
			         0.79167	4.00000e+00	
			         0.79333	6.00000e+00	
			         0.79500	9.00000e+00	
			         0.79667	1.30000e+01	
			         0.79833	1.80000e+01	
			         0.80000	2.50000e+01	
			         0.80167	3.30000e+01	
			         0.80333	4.40000e+01	
			         0.80500	5.60000e+01	
			         0.80667	7.20000e+01	
			         0.80833	9.10000e+01	
			         0.81000	1.13000e+02	
			         0.81167	1.39000e+02	
			         0.81333	1.67000e+02	
			         0.81500	1.96000e+02	
			         0.81667	2.25000e+02	
			         0.81833	2.52000e+02	
			         0.82000	2.77000e+02	
			         0.82167	2.98000e+02	
			         0.82333	3.12000e+02	
			         0.82500	3.20000e+02	
			         0.82667	3.20000e+02	
			         0.82833	3.12000e+02	
			         0.83000	2.96000e+02	
			         0.83167	2.71000e+02	
			         0.83333	2.40000e+02	
			         0.83500	2.04000e+02	
			         0.83667	1.64000e+02	
			         0.83833	1.22000e+02	
			         0.84000	7.90000e+01	
			         0.84167	3.80000e+01	
			         0.84333	-1.00000e+00	
			         0.84500	-3.60000e+01	
			         0.84667	-6.50000e+01	
			         0.84833	-9.00000e+01	
			         0.85000	-1.09000e+02	
			         0.85167	-1.23000e+02	
			         0.85333	-1.32000e+02	
			         0.85500	-1.37000e+02	
			         0.85667	-1.39000e+02	
			         0.85833	-1.37000e+02	
			         0.86000	-1.33000e+02	
			         0.86167	-1.27000e+02	
			         0.86333	-1.19000e+02	
			         0.86500	-1.12000e+02	
			         0.86667	-1.04000e+02	
			         0.86833	-9.60000e+01	
			         0.87000	-8.90000e+01	
			         0.87167	-8.30000e+01	
			         0.87333	-7.80000e+01	
			         0.87500	-7.30000e+01	
			         0.87667	-6.90000e+01	
			         0.87833	-6.50000e+01	
			         0.88000	-6.30000e+01	
			         0.88167	-6.00000e+01	
			         0.88333	-5.90000e+01	
			         0.88500	-5.70000e+01	
			         0.88667	-5.50000e+01	
			         0.88833	-5.30000e+01	
			         0.89000	-5.10000e+01	
			         0.89167	-4.80000e+01	
			         0.89333	-4.60000e+01	
			         0.89500	-4.30000e+01	
			         0.89667	-4.10000e+01	
			         0.89833	-3.80000e+01	
			         0.90000	-3.50000e+01	
			         0.90167	-3.30000e+01	
			         0.90333	-3.00000e+01	
			         0.90500	-2.80000e+01	
			         0.90667	-2.50000e+01	
			         0.90833	-2.40000e+01	
			         0.91000	-2.20000e+01	
			         0.91167	-2.10000e+01	
			         0.91333	-2.10000e+01	
			         0.91500	-2.00000e+01	
			         0.91667	-2.00000e+01	
			         0.91833	-2.00000e+01	
			         0.92000	-2.10000e+01	
			         0.92167	-2.10000e+01	
			         0.92333	-2.10000e+01	
			         0.92500	-2.20000e+01	
			         0.92667	-2.10000e+01	
			         0.92833	-2.10000e+01	
			         0.93000	-2.00000e+01	
			         0.93167	-1.90000e+01	
			         0.93333	-1.70000e+01	
			         0.93500	-1.60000e+01	
			         0.93667	-1.40000e+01	
			         0.93833	-1.20000e+01	
			         0.94000	-1.10000e+01	
			         0.94167	-1.00000e+01	
			         0.94333	-9.00000e+00	
			         0.94500	-8.00000e+00	
			         0.94667	-8.00000e+00	
			         0.94833	-7.00000e+00	
			         0.95000	-7.00000e+00	
			         0.95167	-6.00000e+00	
			         0.95333	-5.00000e+00	
			         0.95500	-4.00000e+00	
			         0.95667	-4.00000e+00	
			         0.95833	-3.00000e+00	
			         0.96000	-2.00000e+00	
			         0.96167	0.00000e+00	
			         0.96333	1.00000e+00	
			         0.96500	3.00000e+00	
			         0.96667	5.00000e+00	
			         0.96833	7.00000e+00	
			         0.97000	8.00000e+00	
			         0.97167	9.00000e+00	
			         0.97333	1.00000e+01	
			         0.97500	1.00000e+01	
			         0.97667	1.00000e+01	
			         0.97833	9.00000e+00	
			         0.98000	9.00000e+00	
			         0.98167	8.00000e+00	
			         0.98333	7.00000e+00	
			         0.98500	6.00000e+00	
			         0.98667	5.00000e+00	
			         0.98833	4.00000e+00	
			         0.99000	3.00000e+00	
			         0.99167	2.00000e+00	
			         0.99333	2.00000e+00	
			         0.99500	2.00000e+00	
			         0.99667	2.00000e+00	
			         0.99833	3.00000e+00	
			         1.00000	5.00000e+00	
			         1.00167	7.00000e+00	
			         1.00333	9.00000e+00	
			         1.00500	1.20000e+01	
			         1.00667	1.50000e+01	
			         1.00833	1.80000e+01	
			         1.01000	2.10000e+01	
			         1.01167	2.40000e+01	
			         1.01333	2.70000e+01	
			         1.01500	3.00000e+01	
			         1.01667	3.30000e+01	
			         1.01833	3.50000e+01	
			         1.02000	3.70000e+01	
			         1.02167	3.80000e+01	
			         1.02333	3.80000e+01	
			         1.02500	3.80000e+01	
			         1.02667	3.80000e+01	
			         1.02833	3.80000e+01	
			         1.03000	3.80000e+01	
			         1.03167	3.80000e+01	
			         1.03333	3.80000e+01	
			         1.03500	3.80000e+01	
			         1.03667	3.90000e+01	
			         1.03833	3.90000e+01	
			         1.04000	4.00000e+01	
			         1.04167	4.10000e+01	
			         1.04333	4.20000e+01	
			         1.04500	4.40000e+01	
			         1.04667	4.50000e+01	
			         1.04833	4.60000e+01	
			         1.05000	4.70000e+01	
			         1.05167	4.80000e+01	
			         1.05333	4.90000e+01	
			         1.05500	4.90000e+01	
			         1.05667	5.00000e+01	
			         1.05833	5.00000e+01	
			         1.06000	5.00000e+01	
			         1.06167	5.10000e+01	
			         1.06333	5.10000e+01	
			         1.06500	5.10000e+01	
			         1.06667	5.20000e+01	
			         1.06833	5.20000e+01	
			         1.07000	5.20000e+01	
			         1.07167	5.30000e+01	
			         1.07333	5.30000e+01	
			         1.07500	5.30000e+01	
			         1.07667	5.30000e+01	
			         1.07833	5.30000e+01	
			         1.08000	5.20000e+01	
			         1.08167	5.20000e+01	
			         1.08333	5.20000e+01	
			         1.08500	5.10000e+01	
			         1.08667	5.00000e+01	
			         1.08833	4.90000e+01	
			         1.09000	4.70000e+01	
			         1.09167	4.60000e+01	
			         1.09333	4.40000e+01	
			         1.09500	4.30000e+01	
			         1.09667	4.10000e+01	
			         1.09833	4.00000e+01	
			         1.10000	3.90000e+01	
			         1.10167	3.80000e+01	
			         1.10333	3.60000e+01	
			         1.10500	3.50000e+01	
			         1.10667	3.40000e+01	
			         1.10833	3.30000e+01	
			         1.11000	3.10000e+01	
			         1.11167	2.90000e+01	
			         1.11333	2.80000e+01	
			         1.11500	2.50000e+01	
			         1.11667	2.20000e+01	
			         1.11833	1.90000e+01	
			         1.12000	1.50000e+01	
			         1.12167	1.20000e+01	
			         1.12333	8.00000e+00	
			         1.12500	3.00000e+00	
			         1.12667	-1.00000e+00	
			         1.12833	-6.00000e+00	
			         1.13000	-1.00000e+01	
			         1.13167	-1.40000e+01	
			         1.13333	-1.80000e+01	
			         1.13500	-2.20000e+01	
			         1.13667	-2.60000e+01	
			         1.13833	-2.90000e+01	
			         1.14000	-3.20000e+01	
			         1.14167	-3.50000e+01	
			         1.14333	-3.80000e+01	
			         1.14500	-4.10000e+01	
			         1.14667	-4.30000e+01	
			         1.14833	-4.60000e+01	
			         1.15000	-4.90000e+01	
			         1.15167	-5.10000e+01	
			         1.15333	-5.30000e+01	
			         1.15500	-5.50000e+01	
			         1.15667	-5.60000e+01	
			         1.15833	-5.80000e+01	
			         1.16000	-5.90000e+01	
			         1.16167	-6.10000e+01	
			         1.16333	-6.20000e+01	
			         1.16500	-6.30000e+01	
			         1.16667	-6.40000e+01	
			         1.16833	-6.40000e+01	
			         1.17000	-6.40000e+01	
			         1.17167	-6.30000e+01	
			         1.17333	-6.30000e+01	
			         1.17500	-6.20000e+01	
			         1.17667	-6.10000e+01	
			         1.17833	-6.10000e+01	
			         1.18000	-6.00000e+01	
			         1.18167	-5.90000e+01	
			         1.18333	-5.80000e+01	
			         1.18500	-5.70000e+01	
			         1.18667	-5.60000e+01	
			         1.18833	-5.50000e+01	
			         1.19000	-5.40000e+01	
			         1.19167	-5.30000e+01	
			         1.19333	-5.20000e+01	
			         1.19500	-5.10000e+01	
			         1.19667	-5.00000e+01	
			         1.19833	-4.90000e+01	
			         1.20000	-4.80000e+01	
			         1.20167	-4.70000e+01	
			         1.20333	-4.60000e+01	
			         1.20500	-4.50000e+01	
			         1.20667	-4.40000e+01	
			         1.20833	-4.30000e+01	
			         1.21000	-4.20000e+01	
			         1.21167	-4.10000e+01	
			         1.21333	-4.10000e+01	
			         1.21500	-4.00000e+01	
			         1.21667	-3.90000e+01	
			         1.21833	-3.90000e+01	
			         1.22000	-3.80000e+01	
			         1.22167	-3.70000e+01	
			         1.22333	-3.60000e+01	
			         1.22500	-3.60000e+01	
			         1.22667	-3.50000e+01	
			         1.22833	-3.40000e+01	
			         1.23000	-3.20000e+01	
			         1.23167	-3.10000e+01	
			         1.23333	-2.90000e+01	
			         1.23500	-2.80000e+01	
			         1.23667	-2.70000e+01	
			         1.23833	-2.60000e+01	
			         1.24000	-2.40000e+01	
			         1.24167	-2.30000e+01	
			         1.24333	-2.20000e+01	
			         1.24500	-2.20000e+01	
			         1.24667	-2.10000e+01	
			         1.24833	-2.00000e+01	
			         1.25000	-2.00000e+01	
			         1.25167	-1.90000e+01	
			         1.25333	-1.90000e+01	
			         1.25500	-2.00000e+01	
			         1.25667	-2.00000e+01	
			         1.25833	-2.00000e+01	
			         1.26000	-2.10000e+01	
			         1.26167	-2.10000e+01	
			         1.26333	-2.20000e+01	
			         1.26500	-2.20000e+01	
			         1.26667	-2.20000e+01	
			         1.26833	-2.20000e+01	
			         1.27000	-2.20000e+01	
			         1.27167	-2.20000e+01	
			         1.27333	-2.10000e+01	
			         1.27500	-2.10000e+01	
			         1.27667	-2.00000e+01	
			         1.27833	-1.90000e+01	
			         1.28000	-1.80000e+01	
			         1.28167	-1.70000e+01	
			         1.28333	-1.50000e+01	
			         1.28500	-1.40000e+01	
			         1.28667	-1.30000e+01	
			         1.28833	-1.20000e+01	
			         1.29000	-1.20000e+01	
			         1.29167	-1.10000e+01	
			         1.29333	-1.00000e+01	
			         1.29500	-1.00000e+01	
			         1.29667	-9.00000e+00	
			         1.29833	-9.00000e+00	
			         1.30000	-9.00000e+00	
			         1.30167	-9.00000e+00	
			         1.30333	-9.00000e+00	
			         1.30500	-8.00000e+00	
			         1.30667	-8.00000e+00	
			         1.30833	-8.00000e+00	
			         1.31000	-7.00000e+00	
			         1.31167	-7.00000e+00	
			         1.31333	-6.00000e+00	
			         1.31500	-6.00000e+00	
			         1.31667	-5.00000e+00	
			         1.31833	-4.00000e+00	
			         1.32000	-3.00000e+00	
			         1.32167	-3.00000e+00	
			         1.32333	-3.00000e+00	
			         1.32500	-2.00000e+00	
			         1.32667	-2.00000e+00	
			         1.32833	-2.00000e+00	
			         1.33000	-2.00000e+00	
			         1.33167	-3.00000e+00	
			         1.33333	-3.00000e+00	
			         1.33500	-3.00000e+00	
			         1.33667	-4.00000e+00	
			         1.33833	-4.00000e+00	
			         1.34000	-4.00000e+00	
			         1.34167	-5.00000e+00	
			         1.34333	-5.00000e+00	
			         1.34500	-5.00000e+00	
			         1.34667	-5.00000e+00	
			         1.34833	-5.00000e+00	
			         1.35000	-6.00000e+00	
			         1.35167	-6.00000e+00	
			         1.35333	-6.00000e+00	
			         1.35500	-6.00000e+00	
			         1.35667	-6.00000e+00	
			         1.35833	-5.00000e+00	
			         1.36000	-5.00000e+00	
			         1.36167	-5.00000e+00	
			         1.36333	-5.00000e+00	
			         1.36500	-6.00000e+00	
			         1.36667	-6.00000e+00	
			         1.36833	-7.00000e+00	
			         1.37000	-8.00000e+00	
			         1.37167	-9.00000e+00	
			         1.37333	-9.00000e+00	
			         1.37500	-1.00000e+01	
			         1.37667	-1.00000e+01	
			         1.37833	-1.00000e+01	
			         1.38000	-9.00000e+00	
			         1.38167	-8.00000e+00	
			         1.38333	-7.00000e+00	
			         1.38500	-5.00000e+00	
			         1.38667	-3.00000e+00	
			         1.38833	-1.00000e+00	
			         1.39000	1.00000e+00	
			         1.39167	2.00000e+00	
			         1.39333	4.00000e+00	
			         1.39500	5.00000e+00	
			         1.39667	6.00000e+00	
			         1.39833	6.00000e+00	
			         1.40000	6.00000e+00	
			         1.40167	5.00000e+00	
			         1.40333	4.00000e+00	
			         1.40500	3.00000e+00	
			         1.40667	2.00000e+00	
			         1.40833	1.00000e+00	
			         1.41000	0.00000e+00	
			         1.41167	-2.00000e+00	
			         1.41333	-3.00000e+00	
			         1.41500	-4.00000e+00	
			         1.41667	-4.00000e+00	
			         1.41833	-4.00000e+00	
			         1.42000	-4.00000e+00	
			         1.42167	-4.00000e+00	
			         1.42333	-3.00000e+00	
			         1.42500	-3.00000e+00	
			         1.42667	-3.00000e+00	
			         1.42833	-2.00000e+00	
			         1.43000	-1.00000e+00	
			         1.43167	1.00000e+00	
			         1.43333	2.00000e+00	
			         1.43500	3.00000e+00	
			         1.43667	4.00000e+00	
			         1.43833	5.00000e+00	
			         1.44000	5.00000e+00	
			         1.44167	5.00000e+00	
			         1.44333	4.00000e+00	
			         1.44500	3.00000e+00	
			         1.44667	3.00000e+00	
			         1.44833	2.00000e+00	
			         1.45000	1.00000e+00	
			         1.45167	0.00000e+00	
			         1.45333	-1.00000e+00	
			         1.45500	-2.00000e+00	
			         1.45667	-3.00000e+00	
			         1.45833	-3.00000e+00	
			         1.46000	-4.00000e+00	
			         1.46167	-4.00000e+00	
			         1.46333	-3.00000e+00	
			         1.46500	-3.00000e+00	
			         1.46667	-1.00000e+00	
			         1.46833	0.00000e+00	
			         1.47000	1.00000e+00	
			         1.47167	3.00000e+00	
			         1.47333	4.00000e+00	
			         1.47500	6.00000e+00	
			         1.47667	8.00000e+00	
			         1.47833	1.00000e+01	
			         1.48000	1.20000e+01	
			         1.48167	1.40000e+01	
			         1.48333	1.60000e+01	
			         1.48500	1.80000e+01	
			         1.48667	2.00000e+01	
			         1.48833	2.10000e+01	
			         1.49000	2.10000e+01	
			         1.49167	2.20000e+01	
			         1.49333	2.20000e+01	
			         1.49500	2.10000e+01	
			         1.49667	2.10000e+01	
			         1.49833	1.90000e+01	
			         1.50000	1.80000e+01	
			         1.50167	1.70000e+01	
			         1.50333	1.60000e+01	
			         1.50500	1.50000e+01	
			         1.50667	1.40000e+01	
			         1.50833	1.40000e+01	
			         1.51000	1.40000e+01	
			         1.51167	1.40000e+01	
			         1.51333	1.50000e+01	
			         1.51500	1.60000e+01	
			         1.51667	1.70000e+01	
			         1.51833	1.80000e+01	
			         1.52000	1.90000e+01	
			         1.52167	2.00000e+01	
			         1.52333	2.00000e+01	
			         1.52500	2.00000e+01	
			         1.52667	1.90000e+01	
			         1.52833	1.70000e+01	
			         1.53000	1.60000e+01	
			         1.53167	1.40000e+01	
			         1.53333	1.20000e+01	
			         1.53500	9.00000e+00	
			         1.53667	7.00000e+00	
			         1.53833	5.00000e+00	
			         1.54000	2.00000e+00	
			         1.54167	0.00000e+00	
			         1.54333	-2.00000e+00	
			         1.54500	-4.00000e+00	
			         1.54667	-6.00000e+00	
			         1.54833	-7.00000e+00	
			         1.55000	-8.00000e+00	
			         1.55167	-9.00000e+00	
			         1.55333	-1.00000e+01	
			         1.55500	-1.10000e+01	
			         1.55667	-1.10000e+01	
			         1.55833	-1.20000e+01	
			         1.56000	-1.20000e+01	
			         1.56167	-1.30000e+01	
			         1.56333	-1.30000e+01	
			         1.56500	-1.30000e+01	
			         1.56667	-1.30000e+01	
			         1.56833	-1.30000e+01	
			         1.57000	-1.30000e+01	
			         1.57167	-1.20000e+01	
			         1.57333	-1.20000e+01	
			         1.57500	-1.20000e+01	
			         1.57667	-1.20000e+01	
			         1.57833	-1.20000e+01	
			         1.58000	-1.20000e+01	
			         1.58167	-1.20000e+01	
			         1.58333	-1.20000e+01	
			         1.58500	-1.20000e+01	
			         1.58667	-1.20000e+01	
			         1.58833	-1.20000e+01	
			         1.59000	-1.20000e+01	
			         1.59167	-1.20000e+01	
			         1.59333	-1.30000e+01	
			         1.59500	-1.30000e+01	
			         1.59667	-1.30000e+01	
			         1.59833	-1.30000e+01	
			         1.60000	-1.30000e+01	
			         1.60167	-1.30000e+01	
			         1.60333	-1.20000e+01	
			         1.60500	-1.20000e+01	
			         1.60667	-1.20000e+01	
			         1.60833	-1.10000e+01	
			         1.61000	-1.00000e+01	
			         1.61167	-1.00000e+01	
			         1.61333	-8.00000e+00	
			         1.61500	-7.00000e+00	
			         1.61667	-5.00000e+00	
			         1.61833	-4.00000e+00	
			         1.62000	-1.00000e+00	
			         1.62167	1.00000e+00	
			         1.62333	4.00000e+00	
			         1.62500	8.00000e+00	
			         1.62667	1.20000e+01	
			         1.62833	1.80000e+01	
			         1.63000	2.60000e+01	
			         1.63167	3.60000e+01	
			         1.63333	4.80000e+01	
			         1.63500	6.20000e+01	
			         1.63667	8.00000e+01	
			         1.63833	1.00000e+02	
			         1.64000	1.24000e+02	
			         1.64167	1.50000e+02	
			         1.64333	1.80000e+02	
			         1.64500	2.12000e+02	
			         1.64667	2.45000e+02	
			         1.64833	2.76000e+02	
			         1.65000	3.05000e+02	
			         1.65167	3.29000e+02	
			         1.65333	3.48000e+02	
			         1.65500	3.59000e+02	
			         1.65667	3.62000e+02	
			         1.65833	3.56000e+02	
			         1.66000	3.41000e+02	
			         1.66167	3.17000e+02	
			         1.66333	2.85000e+02	
			         1.66500	2.46000e+02	
			         1.66667	2.02000e+02	
			         1.66833	1.56000e+02	
			         1.67000	1.08000e+02	
			         1.67167	6.10000e+01	
			         1.67333	1.70000e+01	
			         1.67500	-2.40000e+01	
			         1.67667	-5.90000e+01	
			         1.67833	-8.90000e+01	
			         1.68000	-1.12000e+02	
			         1.68167	-1.30000e+02	
			         1.68333	-1.43000e+02	
			         1.68500	-1.52000e+02	
			         1.68667	-1.56000e+02	
			         1.68833	-1.57000e+02	
			         1.69000	-1.55000e+02	
			         1.69167	-1.51000e+02	
			         1.69333	-1.46000e+02	
			         1.69500	-1.39000e+02	
			         1.69667	-1.31000e+02	
			         1.69833	-1.23000e+02	
			         1.70000	-1.15000e+02	
			         1.70167	-1.07000e+02	
			         1.70333	-9.90000e+01	
			         1.70500	-9.10000e+01	
			         1.70667	-8.40000e+01	
			         1.70833	-7.80000e+01	
			         1.71000	-7.20000e+01	
			         1.71167	-6.60000e+01	
			         1.71333	-6.10000e+01	
			         1.71500	-5.70000e+01	
			         1.71667	-5.30000e+01	
			         1.71833	-5.00000e+01	
			         1.72000	-4.80000e+01	
			         1.72167	-4.60000e+01	
			         1.72333	-4.40000e+01	
			         1.72500	-4.30000e+01	
			         1.72667	-4.20000e+01	
			         1.72833	-4.20000e+01	
			         1.73000	-4.10000e+01	
			         1.73167	-4.10000e+01	
			         1.73333	-4.10000e+01	
			         1.73500	-4.10000e+01	
			         1.73667	-4.10000e+01	
			         1.73833	-4.10000e+01	
			         1.74000	-4.10000e+01	
			         1.74167	-4.00000e+01	
			         1.74333	-4.00000e+01	
			         1.74500	-3.90000e+01	
			         1.74667	-3.90000e+01	
			         1.74833	-3.80000e+01	
			         1.75000	-3.80000e+01	
			         1.75167	-3.70000e+01	
			         1.75333	-3.60000e+01	
			         1.75500	-3.50000e+01	
			         1.75667	-3.40000e+01	
			         1.75833	-3.30000e+01	
			         1.76000	-3.20000e+01	
			         1.76167	-3.00000e+01	
			         1.76333	-2.80000e+01	
			         1.76500	-2.50000e+01	
			         1.76667	-2.10000e+01	
			         1.76833	-1.80000e+01	
			         1.77000	-1.40000e+01	
			         1.77167	-1.00000e+01	
			         1.77333	-6.00000e+00	
			         1.77500	-3.00000e+00	
			         1.77667	-1.00000e+00	
			         1.77833	2.00000e+00	
			         1.78000	3.00000e+00	
			         1.78167	5.00000e+00	
			         1.78333	6.00000e+00	
			         1.78500	6.00000e+00	
			         1.78667	6.00000e+00	
			         1.78833	5.00000e+00	
			         1.79000	5.00000e+00	
			         1.79167	4.00000e+00	
			         1.79333	3.00000e+00	
			         1.79500	3.00000e+00	
			         1.79667	3.00000e+00	
			         1.79833	3.00000e+00	
			         1.80000	2.00000e+00	
			         1.80167	2.00000e+00	
			         1.80333	2.00000e+00	
			         1.80500	2.00000e+00	
			         1.80667	2.00000e+00	
			         1.80833	3.00000e+00	
			         1.81000	3.00000e+00	
			         1.81167	3.00000e+00	
			         1.81333	3.00000e+00	
			         1.81500	3.00000e+00	
			         1.81667	2.00000e+00	
			         1.81833	2.00000e+00	
			         1.82000	2.00000e+00	
			         1.82167	3.00000e+00	
			         1.82333	3.00000e+00	
			         1.82500	3.00000e+00	
			         1.82667	4.00000e+00	
			         1.82833	4.00000e+00	
			         1.83000	5.00000e+00	
			         1.83167	6.00000e+00	
			         1.83333	8.00000e+00	
			         1.83500	1.00000e+01	
			         1.83667	1.20000e+01	
			         1.83833	1.40000e+01	
			         1.84000	1.50000e+01	
			         1.84167	1.70000e+01	
			         1.84333	1.80000e+01	
			         1.84500	2.00000e+01	
			         1.84667	2.10000e+01	
			         1.84833	2.30000e+01	
			         1.85000	2.40000e+01	
			         1.85167	2.50000e+01	
			         1.85333	2.60000e+01	
			         1.85500	2.60000e+01	
			         1.85667	2.60000e+01	
			         1.85833	2.60000e+01	
			         1.86000	2.70000e+01	
			         1.86167	2.80000e+01	
			         1.86333	2.90000e+01	
			         1.86500	3.00000e+01	
			         1.86667	3.20000e+01	
			         1.86833	3.30000e+01	
			         1.87000	3.40000e+01	
			         1.87167	3.60000e+01	
			         1.87333	3.80000e+01	
			         1.87500	4.00000e+01	
			         1.87667	4.30000e+01	
			         1.87833	4.50000e+01	
			         1.88000	4.70000e+01	
			         1.88167	4.90000e+01	
			         1.88333	5.10000e+01	
			         1.88500	5.20000e+01	
			         1.88667	5.30000e+01	
			         1.88833	5.50000e+01	
			         1.89000	5.60000e+01	
			         1.89167	5.70000e+01	
			         1.89333	5.80000e+01	
			         1.89500	5.80000e+01	
			         1.89667	5.80000e+01	
			         1.89833	5.80000e+01	
			         1.90000	5.80000e+01	
			         1.90167	5.80000e+01	
			         1.90333	5.80000e+01	
			         1.90500	5.70000e+01	
			         1.90667	5.70000e+01	
			         1.90833	5.60000e+01	
			         1.91000	5.50000e+01	
			         1.91167	5.40000e+01	
			         1.91333	5.30000e+01	
			         1.91500	5.20000e+01	
			         1.91667	5.10000e+01	
			         1.91833	5.00000e+01	
			         1.92000	4.90000e+01	
			         1.92167	4.80000e+01	
			         1.92333	4.60000e+01	
			         1.92500	4.50000e+01	
			         1.92667	4.40000e+01	
			         1.92833	4.20000e+01	
			         1.93000	4.00000e+01	
			         1.93167	3.70000e+01	
			         1.93333	3.50000e+01	
			         1.93500	3.20000e+01	
			         1.93667	2.90000e+01	
			         1.93833	2.70000e+01	
			         1.94000	2.40000e+01	
			         1.94167	2.20000e+01	
			         1.94333	2.00000e+01	
			         1.94500	1.70000e+01	
			         1.94667	1.40000e+01	
			         1.94833	1.10000e+01	
			         1.95000	8.00000e+00	
			         1.95167	6.00000e+00	
			         1.95333	3.00000e+00	
			         1.95500	0.00000e+00	
			         1.95667	-2.00000e+00	
			         1.95833	-6.00000e+00	
			         1.96000	-9.00000e+00	
			         1.96167	-1.30000e+01	
			         1.96333	-1.70000e+01	
			         1.96500	-2.20000e+01	
			         1.96667	-2.60000e+01	
			         1.96833	-2.90000e+01	
			         1.97000	-3.30000e+01	
			         1.97167	-3.60000e+01	
			         1.97333	-4.00000e+01	
			         1.97500	-4.30000e+01	
			         1.97667	-4.70000e+01	
			         1.97833	-5.00000e+01	
			         1.98000	-5.30000e+01	
			         1.98167	-5.60000e+01	
			         1.98333	-5.90000e+01	
			         1.98500	-6.20000e+01	
			         1.98667	-6.40000e+01	
			         1.98833	-6.70000e+01	
			         1.99000	-6.90000e+01	
			         1.99167	-7.00000e+01	
			         1.99333	-7.10000e+01	
			         1.99500	-7.20000e+01	
			         1.99667	-7.20000e+01	
			         1.99833	-7.10000e+01	
			         2.00000	-7.00000e+01	
			         2.00167	-6.80000e+01	
			         2.00333	-6.60000e+01	
			         2.00500	-6.40000e+01	
			         2.00667	-6.20000e+01	
			         2.00833	-5.90000e+01	
			         2.01000	-5.70000e+01	
			         2.01167	-5.50000e+01	
			         2.01333	-5.40000e+01	
			         2.01500	-5.30000e+01	
			         2.01667	-5.20000e+01	
			         2.01833	-5.10000e+01	
			         2.02000	-5.00000e+01	
			         2.02167	-4.90000e+01	
			         2.02333	-4.80000e+01	
			         2.02500	-4.80000e+01	
			         2.02667	-4.80000e+01	
			         2.02833	-4.70000e+01	
			         2.03000	-4.70000e+01	
			         2.03167	-4.70000e+01	
			         2.03333	-4.70000e+01	
			         2.03500	-4.80000e+01	
			         2.03667	-4.80000e+01	
			         2.03833	-4.80000e+01	
			         2.04000	-4.80000e+01	
			         2.04167	-4.80000e+01	
			         2.04333	-4.80000e+01	
			         2.04500	-4.80000e+01	
			         2.04667	-4.80000e+01	
			         2.04833	-4.80000e+01	
			         2.05000	-4.70000e+01	
			         2.05167	-4.50000e+01	
			         2.05333	-4.40000e+01	
			         2.05500	-4.30000e+01	
			         2.05667	-4.20000e+01	
			         2.05833	-4.10000e+01	
			         2.06000	-4.00000e+01	
			         2.06167	-3.90000e+01	
			         2.06333	-3.80000e+01	
			         2.06500	-3.70000e+01	
			         2.06667	-3.70000e+01	
			         2.06833	-3.60000e+01	
			         2.07000	-3.50000e+01	
			         2.07167	-3.40000e+01	
			         2.07333	-3.30000e+01	
			         2.07500	-3.20000e+01	
			         2.07667	-3.00000e+01	
			         2.07833	-2.90000e+01	
			         2.08000	-2.70000e+01	
			         2.08167	-2.60000e+01	
			         2.08333	-2.40000e+01	
			         2.08500	-2.30000e+01	
			         2.08667	-2.20000e+01	
			         2.08833	-2.10000e+01	
			         2.09000	-1.90000e+01	
			         2.09167	-1.90000e+01	
			         2.09333	-1.80000e+01	
			         2.09500	-1.70000e+01	
			         2.09667	-1.70000e+01	
			         2.09833	-1.60000e+01	
			         2.10000	-1.50000e+01	
			         2.10167	-1.50000e+01	
			         2.10333	-1.40000e+01	
			         2.10500	-1.40000e+01	
			         2.10667	-1.40000e+01	
			         2.10833	-1.40000e+01	
			         2.11000	-1.40000e+01	
			         2.11167	-1.40000e+01	
			         2.11333	-1.40000e+01	
			         2.11500	-1.40000e+01	
			         2.11667	-1.40000e+01	
			         2.11833	-1.40000e+01	
			         2.12000	-1.40000e+01	
			         2.12167	-1.50000e+01	
			         2.12333	-1.50000e+01	
			         2.12500	-1.40000e+01	
			         2.12667	-1.40000e+01	
			         2.12833	-1.30000e+01	
			         2.13000	-1.20000e+01	
			         2.13167	-1.10000e+01	
			         2.13333	-1.10000e+01	
			         2.13500	-1.00000e+01	
			         2.13667	-1.00000e+01	
			         2.13833	-9.00000e+00	
			         2.14000	-8.00000e+00	
			         2.14167	-7.00000e+00	
			         2.14333	-6.00000e+00	
			         2.14500	-5.00000e+00	
			         2.14667	-4.00000e+00	
			         2.14833	-4.00000e+00	
			         2.15000	-3.00000e+00	
			         2.15167	-2.00000e+00	
			         2.15333	-1.00000e+00	
			         2.15500	-1.00000e+00	
			         2.15667	0.00000e+00	
			         2.15833	0.00000e+00	
			         2.16000	1.00000e+00	
			         2.16167	1.00000e+00	
			         2.16333	0.00000e+00	
			         2.16500	0.00000e+00	
			         2.16667	0.00000e+00	
			         2.16833	0.00000e+00	
			         2.17000	-1.00000e+00	
			         2.17167	-1.00000e+00	
			         2.17333	-2.00000e+00	
			         2.17500	-2.00000e+00	
			         2.17667	-2.00000e+00	
			         2.17833	-2.00000e+00	
			         2.18000	-2.00000e+00	
			         2.18167	-1.00000e+00	
			         2.18333	-1.00000e+00	
			         2.18500	0.00000e+00	
			         2.18667	1.00000e+00	
			         2.18833	2.00000e+00	
			         2.19000	2.00000e+00	
			         2.19167	2.00000e+00	
			         2.19333	2.00000e+00	
			         2.19500	2.00000e+00	
			         2.19667	1.00000e+00	
			         2.19833	0.00000e+00	
			         2.20000	-1.00000e+00	
			         2.20167	-2.00000e+00	
			         2.20333	-3.00000e+00	
			         2.20500	-4.00000e+00	
			         2.20667	-5.00000e+00	
			         2.20833	-5.00000e+00	
			         2.21000	-6.00000e+00	
			         2.21167	-6.00000e+00	
			         2.21333	-7.00000e+00	
			         2.21500	-6.00000e+00	
			         2.21667	-6.00000e+00	
			         2.21833	-6.00000e+00	
			         2.22000	-6.00000e+00	
			         2.22167	-5.00000e+00	
			         2.22333	-6.00000e+00	
			         2.22500	-6.00000e+00	
			         2.22667	-7.00000e+00	
			         2.22833	-7.00000e+00	
			         2.23000	-8.00000e+00	
			         2.23167	-9.00000e+00	
			         2.23333	-9.00000e+00	
			         2.23500	-9.00000e+00	
			         2.23667	-9.00000e+00	
			         2.23833	-8.00000e+00	
			         2.24000	-7.00000e+00	
			         2.24167	-5.00000e+00	
			         2.24333	-3.00000e+00	
			         2.24500	-2.00000e+00	
			         2.24667	0.00000e+00	
			         2.24833	1.00000e+00	
			         2.25000	3.00000e+00	
			         2.25167	4.00000e+00	
			         2.25333	6.00000e+00	
			         2.25500	7.00000e+00	
			         2.25667	7.00000e+00	
			         2.25833	7.00000e+00	
			         2.26000	6.00000e+00	
			         2.26167	5.00000e+00	
			         2.26333	3.00000e+00	
			         2.26500	2.00000e+00	
			         2.26667	1.00000e+00	
			         2.26833	-1.00000e+00	
			         2.27000	-2.00000e+00	
			         2.27167	-3.00000e+00	
			         2.27333	-4.00000e+00	
			         2.27500	-6.00000e+00	
			         2.27667	-8.00000e+00	
			         2.27833	-9.00000e+00	
			         2.28000	-1.10000e+01	
			         2.28167	-1.20000e+01	
			         2.28333	-1.30000e+01	
			         2.28500	-1.30000e+01	
			         2.28667	-1.40000e+01	
			         2.28833	-1.40000e+01	
			         2.29000	-1.40000e+01	
			         2.29167	-1.40000e+01	
			         2.29333	-1.30000e+01	
			         2.29500	-1.20000e+01	
			         2.29667	-9.00000e+00	
			         2.29833	-7.00000e+00	
			         2.30000	-4.00000e+00	
			         2.30167	0.00000e+00	
			         2.30333	3.00000e+00	
			         2.30500	6.00000e+00	
			         2.30667	9.00000e+00	
			         2.30833	1.20000e+01	
			         2.31000	1.50000e+01	
			         2.31167	1.80000e+01	
			         2.31333	2.00000e+01	
			         2.31500	2.10000e+01	
			         2.31667	2.30000e+01	
			         2.31833	2.40000e+01	
			         2.32000	2.40000e+01	
			         2.32167	2.50000e+01	
			         2.32333	2.50000e+01	
			         2.32500	2.50000e+01	
			         2.32667	2.50000e+01	
			         2.32833	2.50000e+01	
			         2.33000	2.50000e+01	
			         2.33167	2.50000e+01	
			         2.33333	2.50000e+01	
			         2.33500	2.50000e+01	
			         2.33667	2.50000e+01	
			         2.33833	2.40000e+01	
			         2.34000	2.30000e+01	
			         2.34167	2.20000e+01	
			         2.34333	2.10000e+01	
			         2.34500	1.90000e+01	
			         2.34667	1.80000e+01	
			         2.34833	1.60000e+01	
			         2.35000	1.50000e+01	
			         2.35167	1.30000e+01	
			         2.35333	1.20000e+01	
			         2.35500	1.10000e+01	
			         2.35667	1.00000e+01	
			         2.35833	9.00000e+00	
			         2.36000	8.00000e+00	
			         2.36167	8.00000e+00	
			         2.36333	7.00000e+00	
			         2.36500	7.00000e+00	
			         2.36667	6.00000e+00	
			         2.36833	5.00000e+00	
			         2.37000	4.00000e+00	
			         2.37167	2.00000e+00	
			         2.37333	0.00000e+00	
			         2.37500	-2.00000e+00	
			         2.37667	-5.00000e+00	
			         2.37833	-7.00000e+00	
			         2.38000	-9.00000e+00	
			         2.38167	-1.10000e+01	
			         2.38333	-1.40000e+01	
			         2.38500	-1.60000e+01	
			         2.38667	-1.70000e+01	
			         2.38833	-1.90000e+01	
			         2.39000	-2.00000e+01	
			         2.39167	-2.10000e+01	
			         2.39333	-2.10000e+01	
			         2.39500	-2.00000e+01	
			         2.39667	-1.90000e+01	
			         2.39833	-1.70000e+01	
			         2.40000	-1.60000e+01	
			         2.40167	-1.30000e+01	
			         2.40333	-1.10000e+01	
			         2.40500	-9.00000e+00	
			         2.40667	-7.00000e+00	
			         2.40833	-6.00000e+00	
			         2.41000	-4.00000e+00	
			         2.41167	-3.00000e+00	
			         2.41333	-2.00000e+00	
			         2.41500	-2.00000e+00	
			         2.41667	-3.00000e+00	
			         2.41833	-4.00000e+00	
			         2.42000	-5.00000e+00	
			         2.42167	-7.00000e+00	
			         2.42333	-1.00000e+01	
			         2.42500	-1.20000e+01	
			         2.42667	-1.30000e+01	
			         2.42833	-1.50000e+01	
			         2.43000	-1.60000e+01	
			         2.43167	-1.70000e+01	
			         2.43333	-1.80000e+01	
			         2.43500	-1.90000e+01	
			         2.43667	-1.90000e+01	
			         2.43833	-1.90000e+01	
			         2.44000	-1.80000e+01	
			         2.44167	-1.60000e+01	
			         2.44333	-1.40000e+01	
			         2.44500	-1.10000e+01	
			         2.44667	-8.00000e+00	
			         2.44833	-4.00000e+00	
			         2.45000	0.00000e+00	
			         2.45167	6.00000e+00	
			         2.45333	1.20000e+01	
			         2.45500	1.90000e+01	
			         2.45667	2.80000e+01	
			         2.45833	4.00000e+01	
			         2.46000	5.30000e+01	
			         2.46167	7.00000e+01	
			         2.46333	9.00000e+01	
			         2.46500	1.13000e+02	
			         2.46667	1.41000e+02	
			         2.46833	1.71000e+02	
			         2.47000	2.05000e+02	
			         2.47167	2.40000e+02	
			         2.47333	2.75000e+02	
			         2.47500	3.08000e+02	
			         2.47667	3.38000e+02	
			         2.47833	3.62000e+02	
			         2.48000	3.79000e+02	
			         2.48167	3.87000e+02	
			         2.48333	3.85000e+02	
			         2.48500	3.74000e+02	
			         2.48667	3.52000e+02	
			         2.48833	3.22000e+02	
			         2.49000	2.84000e+02	
			         2.49167	2.40000e+02	
			         2.49333	1.91000e+02	
			         2.49500	1.40000e+02	
			         2.49667	8.90000e+01	
			         2.49833	3.90000e+01	
			         2.50000	-6.00000e+00	
			         2.50167	-4.70000e+01	
			         2.50333	-8.20000e+01	
			         2.50500	-1.10000e+02	
			         2.50667	-1.32000e+02	
			         2.50833	-1.49000e+02	
			         2.51000	-1.59000e+02	
			         2.51167	-1.65000e+02	
			         2.51333	-1.66000e+02	
			         2.51500	-1.64000e+02	
			         2.51667	-1.58000e+02	
			         2.51833	-1.50000e+02	
			         2.52000	-1.41000e+02	
			         2.52167	-1.31000e+02	
			         2.52333	-1.21000e+02	
			         2.52500	-1.11000e+02	
			         2.52667	-1.02000e+02	
			         2.52833	-9.30000e+01	
			         2.53000	-8.50000e+01	
			         2.53167	-7.80000e+01	
			         2.53333	-7.20000e+01	
			         2.53500	-6.60000e+01	
			         2.53667	-6.10000e+01	
			         2.53833	-5.80000e+01	
