Velocity (TVI), in cm/s

Time (s) :	Trace 1 : 		Ecg : 		
0.01767   	-9.71695e-01		         0.00000	-4.00000e+00	
0.02381   	-8.55571e-01		         0.00167	-4.00000e+00	
0.03022   	-6.99902e-01		         0.00333	-3.00000e+00	
0.03635   	-5.93574e-01		         0.00500	-1.00000e+00	
0.04249   	-7.25554e-01		         0.00667	3.00000e+00	
0.04863   	-5.38035e-01		         0.00833	9.00000e+00	
0.05504   	1.58579e-02		         0.01000	1.70000e+01	
0.06117   	3.69824e-01		         0.01167	2.70000e+01	
0.06732   	9.58154e-01		         0.01333	3.90000e+01	
0.07346   	1.65825e+00		         0.01500	5.20000e+01	
0.07993   	1.95059e+00		         0.01667	6.70000e+01	
0.08600   	1.95089e+00		         0.01833	8.40000e+01	
0.09214   	2.20299e+00		         0.02000	1.02000e+02	
0.09827   	2.64889e+00		         0.02167	1.21000e+02	
0.10468   	3.35995e+00		         0.02333	1.40000e+02	
0.11082   	4.21998e+00		         0.02500	1.59000e+02	
0.11696   	5.04584e+00		         0.02667	1.77000e+02	
0.12310   	5.71331e+00		         0.02833	1.94000e+02	
0.12965   	6.11027e+00		         0.03000	2.09000e+02	
0.13564   	6.29824e+00		         0.03167	2.21000e+02	
0.14178   	6.29103e+00		         0.03333	2.29000e+02	
0.14792   	6.26246e+00		         0.03500	2.34000e+02	
0.15433   	6.28566e+00		         0.03667	2.33000e+02	
0.16047   	6.31747e+00		         0.03833	2.28000e+02	
0.16660   	6.37366e+00		         0.04000	2.17000e+02	
0.17274   	6.44746e+00		         0.04167	2.00000e+02	
0.17936   	6.48073e+00		         0.04333	1.79000e+02	
0.18529   	6.48270e+00		         0.04500	1.54000e+02	
0.19143   	6.48835e+00		         0.04667	1.25000e+02	
0.19756   	6.44224e+00		         0.04833	9.20000e+01	
0.20397   	6.37593e+00		         0.05000	5.80000e+01	
0.21011   	6.32366e+00		         0.05167	2.40000e+01	
0.21625   	6.31032e+00		         0.05333	-1.00000e+01	
0.22238   	6.26509e+00		         0.05500	-4.10000e+01	
0.22915   	6.22182e+00		         0.05667	-7.00000e+01	
0.23493   	6.18665e+00		         0.05833	-9.50000e+01	
0.24107   	6.13816e+00		         0.06000	-1.15000e+02	
0.24721   	5.96654e+00		         0.06167	-1.31000e+02	
0.25362   	5.83534e+00		         0.06333	-1.42000e+02	
0.25975   	5.69300e+00		         0.06500	-1.50000e+02	
0.26589   	5.50744e+00		         0.06667	-1.52000e+02	
0.27203   	5.37859e+00		         0.06833	-1.51000e+02	
0.27844   	5.31620e+00		         0.07000	-1.47000e+02	
0.28457   	5.20955e+00		         0.07167	-1.41000e+02	
0.29071   	5.10727e+00		         0.07333	-1.32000e+02	
0.29685   	5.00435e+00		         0.07500	-1.22000e+02	
0.30326   	4.86389e+00		         0.07667	-1.12000e+02	
0.30939   	4.70875e+00		         0.07833	-1.02000e+02	
0.31553   	4.48779e+00		         0.08000	-9.10000e+01	
0.32167   	4.31577e+00		         0.08167	-8.10000e+01	
0.32808   	4.15454e+00		         0.08333	-7.20000e+01	
0.33422   	3.95900e+00		         0.08500	-6.30000e+01	
0.34036   	3.75395e+00		         0.08667	-5.60000e+01	
0.34649   	3.61386e+00		         0.08833	-4.90000e+01	
0.35290   	3.44989e+00		         0.09000	-4.30000e+01	
0.35904   	3.20437e+00		         0.09167	-3.90000e+01	
0.36517   	2.93905e+00		         0.09333	-3.50000e+01	
0.37132   	2.64784e+00		         0.09500	-3.20000e+01	
0.37772   	2.38512e+00		         0.09667	-3.00000e+01	
0.38386   	2.04201e+00		         0.09833	-2.80000e+01	
0.39000   	1.52032e+00		         0.10000	-2.70000e+01	
0.39613   	7.91295e-01		         0.10167	-2.60000e+01	
0.40254   	-3.01902e-02		         0.10333	-2.50000e+01	
0.40868   	-8.10574e-01		         0.10500	-2.30000e+01	
0.41482   	-1.29598e+00		         0.10667	-2.20000e+01	
0.42096   	-1.14120e+00		         0.10833	-2.00000e+01	
0.42737   	-5.87194e-01		         0.11000	-1.70000e+01	
0.43351   	9.26658e-02		         0.11167	-1.50000e+01	
0.43964   	7.52863e-01		         0.11333	-1.40000e+01	
0.44578   	1.23554e+00		         0.11500	-1.20000e+01	
0.45219   	1.44686e+00		         0.11667	-1.10000e+01	
0.45833   	1.62239e+00		         0.11833	-1.00000e+01	
0.46447   	1.76874e+00		         0.12000	-9.00000e+00	
0.47060   	1.86972e+00		         0.12167	-8.00000e+00	
0.47701   	1.81350e+00		         0.12333	-8.00000e+00	
0.48315   	1.86366e+00		         0.12500	-8.00000e+00	
0.48929   	1.52863e+00		         0.12667	-1.00000e+01	
0.49543   	9.97775e-01		         0.12833	-1.10000e+01	
0.50184   	2.86458e-01		         0.13000	-1.20000e+01	
0.50797   	-5.48014e-01		         0.13167	-1.30000e+01	
0.51411   	-1.79028e+00		         0.13333	-1.40000e+01	
0.52025   	-2.92210e+00		         0.13500	-1.40000e+01	
0.52665   	-3.97262e+00		         0.13667	-1.30000e+01	
0.53280   	-4.84180e+00		         0.13833	-1.30000e+01	
0.53893   	-5.46509e+00		         0.14000	-1.20000e+01	
0.54507   	-5.83633e+00		         0.14167	-1.10000e+01	
0.55148   	-5.98178e+00		         0.14333	-1.00000e+01	
0.55762   	-5.91918e+00		         0.14500	-1.00000e+01	
0.56375   	-5.75800e+00		         0.14667	-9.00000e+00	
0.56989   	-5.56520e+00		         0.14833	-9.00000e+00	
0.57630   	-5.31815e+00		         0.15000	-9.00000e+00	
0.58244   	-5.04134e+00		         0.15167	-8.00000e+00	
0.58858   	-4.73729e+00		         0.15333	-8.00000e+00	
0.59471   	-4.46654e+00		         0.15500	-8.00000e+00	
0.60112   	-4.20520e+00		         0.15667	-8.00000e+00	
0.60726   	-3.95256e+00		         0.15833	-8.00000e+00	
0.61339   	-3.72486e+00		         0.16000	-7.00000e+00	
0.61954   	-3.51656e+00		         0.16167	-6.00000e+00	
0.62594   	-3.31991e+00		         0.16333	-5.00000e+00	
0.63208   	-3.10065e+00		         0.16500	-4.00000e+00	
0.63822   	-2.91558e+00		         0.16667	-2.00000e+00	
0.64436   	-2.74223e+00		         0.16833	0.00000e+00	
0.65077   	-2.55504e+00		         0.17000	2.00000e+00	
0.65690   	-2.34926e+00		         0.17167	3.00000e+00	
0.66304   	-2.13474e+00		         0.17333	5.00000e+00	
0.66918   	-1.91168e+00		         0.17500	6.00000e+00	
0.67559   	-1.67198e+00		         0.17667	7.00000e+00	
0.68173   	-1.45985e+00		         0.17833	8.00000e+00	
0.68786   	-1.25202e+00		         0.18000	9.00000e+00	
0.69412   	-1.05822e+00		         0.18167	9.00000e+00	
0.70040   	-8.61913e-01		         0.18333	1.00000e+01	
0.70655   	-6.70618e-01		         0.18500	9.00000e+00	
0.71268   	-4.81407e-01		         0.18667	9.00000e+00	
0.71882   	-3.09345e-01		         0.18833	9.00000e+00	
0.72523   	-1.71523e-01		         0.19000	8.00000e+00	
0.73137   	-4.95234e-02		         0.19167	8.00000e+00	
0.73751   	3.14088e-02		         0.19333	7.00000e+00	
0.74394   	9.04515e-02		         0.19500	7.00000e+00	
0.75005   	1.24998e-01		         0.19667	7.00000e+00	
0.75619   	1.38008e-01		         0.19833	6.00000e+00	
0.76233   	1.09444e-01		         0.20000	6.00000e+00	
0.76847   	5.34404e-02		         0.20167	6.00000e+00	
0.77487   	-7.02558e-03		         0.20333	7.00000e+00	
0.78102   	-7.11185e-02		         0.20500	7.00000e+00	
0.78715   	-1.85758e-01		         0.20667	8.00000e+00	
0.79367   	-3.39332e-01		         0.20833	9.00000e+00	
0.79970   	-5.32073e-01		         0.21000	1.10000e+01	
0.80584   	-8.27231e-01		         0.21167	1.20000e+01	
0.81197   	-1.28113e+00		         0.21333	1.40000e+01	
0.81811   	-1.90489e+00		         0.21500	1.60000e+01	
0.82452   	-2.78938e+00		         0.21667	1.70000e+01	
0.83065   	-3.83718e+00		         0.21833	1.90000e+01	
0.83679   	-5.10522e+00		         0.22000	2.10000e+01	
0.84293   	-6.44977e+00		         0.22167	2.30000e+01	
0.84934   	-7.84128e+00		         0.22333	2.40000e+01	
0.85548   	-9.00215e+00		         0.22500	2.60000e+01	
0.86161   	-1.00263e+01		         0.22667	2.70000e+01	
0.86775   	-1.07415e+01		         0.22833	2.80000e+01	
0.87416   	-1.11857e+01		         0.23000	3.00000e+01	
0.88030   	-1.11697e+01		         0.23167	3.20000e+01	
0.88644   	-1.07686e+01		         0.23333	3.30000e+01	
0.89257   	-9.93504e+00		         0.23500	3.50000e+01	
0.89898   	-8.79583e+00		         0.23667	3.60000e+01	
0.90512   	-7.32028e+00		         0.23833	3.70000e+01	
0.91126   	-5.78428e+00		         0.24000	3.80000e+01	
0.91740   	-4.33844e+00		         0.24167	3.90000e+01	
0.92381   	-3.23600e+00		         0.24333	4.10000e+01	
0.92994   	-2.42525e+00		         0.24500	4.20000e+01	
0.93608   	-1.64123e+00		         0.24667	4.40000e+01	
0.94222   	-9.56931e-01		         0.24833	4.50000e+01	
0.94863   	-2.26425e-01		         0.25000	4.60000e+01	
0.95477   	6.04097e-01		         0.25167	4.70000e+01	
0.96090   	1.49990e+00		         0.25333	4.80000e+01	
0.96704   	1.93410e+00		         0.25500	5.00000e+01	
0.97345   	1.98764e+00		         0.25667	5.10000e+01	
0.97959   	1.50512e+00		         0.25833	5.30000e+01	
0.98573   	7.76020e-01		         0.26000	5.50000e+01	
0.99186   	-1.09615e-02		         0.26167	5.80000e+01	
0.99827   	-5.86810e-01		         0.26333	6.10000e+01	
1.00441   	-9.69565e-01		         0.26500	6.40000e+01	
1.01055   	-8.72030e-01		         0.26667	6.70000e+01	
1.01669   	-7.13134e-01		         0.26833	6.90000e+01	
1.02309   	-6.00104e-01		         0.27000	7.20000e+01	
1.02923   	-5.95989e-01		         0.27167	7.40000e+01	
1.03537   	-6.38040e-02		         0.27333	7.60000e+01	
1.04151   	4.50550e-01		         0.27500	7.80000e+01	
1.04792   	9.64356e-01		         0.27667	7.90000e+01	
1.05406   	1.44244e+00		         0.27833	8.00000e+01	
1.06019   	1.97040e+00		         0.28000	8.10000e+01	
1.06633   	2.09487e+00		         0.28167	8.10000e+01	
1.07274   	2.00264e+00		         0.28333	8.10000e+01	
1.07915   	2.22844e+00		         0.28500	8.10000e+01	
1.08502   	2.74362e+00		         0.28667	8.00000e+01	
1.09115   	3.48629e+00		         0.28833	7.80000e+01	
1.09756   	4.26149e+00		         0.29000	7.70000e+01	
1.10370   	5.07792e+00		         0.29167	7.50000e+01	
1.10983   	5.64357e+00		         0.29333	7.30000e+01	
1.11598   	6.02109e+00		         0.29500	7.10000e+01	
1.12238   	6.14273e+00		         0.29667	6.90000e+01	
1.12852   	6.14771e+00		         0.29833	6.70000e+01	
1.13466   	6.15408e+00		         0.30000	6.50000e+01	
1.14079   	6.22638e+00		         0.30167	6.20000e+01	
1.14721   	6.26575e+00		         0.30333	6.00000e+01	
1.15334   	6.32162e+00		         0.30500	5.70000e+01	
1.15948   	6.39235e+00		         0.30667	5.40000e+01	
1.16562   	6.44864e+00		         0.30833	5.10000e+01	
1.17203   	6.41594e+00		         0.31000	4.90000e+01	
1.17816   	6.37906e+00		         0.31167	4.60000e+01	
1.18430   	6.36214e+00		         0.31333	4.20000e+01	
1.19044   	6.28919e+00		         0.31500	3.90000e+01	
1.19685   	6.20335e+00		         0.31667	3.50000e+01	
1.20298   	6.20988e+00		         0.31833	3.00000e+01	
1.20912   	6.23150e+00		         0.32000	2.60000e+01	
1.21526   	6.20132e+00		         0.32167	2.10000e+01	
1.22167   	6.15790e+00		         0.32333	1.50000e+01	
1.22781   	6.15192e+00		         0.32500	1.00000e+01	
1.23395   	6.02573e+00		         0.32667	5.00000e+00	
1.24008   	5.88399e+00		         0.32833	-1.00000e+00	
1.24650   	5.73314e+00		         0.33000	-6.00000e+00	
1.25263   	5.58942e+00		         0.33167	-1.10000e+01	
1.25876   	5.41534e+00		         0.33333	-1.60000e+01	
1.26490   	5.26874e+00		         0.33500	-2.10000e+01	
1.27131   	5.10238e+00		         0.33667	-2.60000e+01	
1.27745   	4.88930e+00		         0.33833	-3.00000e+01	
1.28359   	4.79581e+00		         0.34000	-3.40000e+01	
1.28973   	4.65718e+00		         0.34167	-3.70000e+01	
1.29614   	4.50568e+00		         0.34333	-4.10000e+01	
1.30228   	4.36615e+00		         0.34500	-4.30000e+01	
1.30840   	4.23951e+00		         0.34667	-4.50000e+01	
1.31455   	4.04009e+00		         0.34833	-4.70000e+01	
1.32096   	3.87352e+00		         0.35000	-4.90000e+01	
1.32709   	3.69761e+00		         0.35167	-5.10000e+01	
1.33323   	3.50436e+00		         0.35333	-5.20000e+01	
1.33937   	3.33681e+00		         0.35500	-5.30000e+01	
1.34578   	3.09449e+00		         0.35667	-5.40000e+01	
1.35192   	2.85728e+00		         0.35833	-5.40000e+01	
1.35811   	2.56993e+00		         0.36000	-5.50000e+01	
1.36419   	2.29174e+00		         0.36167	-5.60000e+01	
1.37060   	1.71113e+00		         0.36333	-5.60000e+01	
1.37674   	1.15338e+00		         0.36500	-5.60000e+01	
1.38288   	3.50770e-01		         0.36667	-5.60000e+01	
1.38901   	-4.16141e-01		         0.36833	-5.60000e+01	
1.39542   	-7.35259e-01		         0.37000	-5.60000e+01	
1.40156   	-3.78458e-01		         0.37167	-5.60000e+01	
1.40790   	-1.00426e-01		         0.37333	-5.50000e+01	
1.41384   	5.55192e-01		         0.37500	-5.40000e+01	
1.42025   	1.25711e+00		         0.37667	-5.30000e+01	
1.42638   	1.59274e+00		         0.37833	-5.10000e+01	
1.43252   	1.68866e+00		         0.38000	-5.00000e+01	
1.43866   	1.90437e+00		         0.38167	-4.80000e+01	
1.44507   	2.08657e+00		         0.38333	-4.70000e+01	
1.45120   	2.20861e+00		         0.38500	-4.70000e+01	
1.45773   	2.24528e+00		         0.38667	-4.60000e+01	
1.46348   	2.12785e+00		         0.38833	-4.60000e+01	
1.46989   	1.92105e+00		         0.39000	-4.60000e+01	
1.47602   	1.35727e+00		         0.39167	-4.70000e+01	
1.48217   	6.63472e-01		         0.39333	-4.70000e+01	
1.48830   	-1.73003e-01		         0.39500	-4.70000e+01	
1.49471   	-1.26607e+00		         0.39667	-4.80000e+01	
1.50085   	-2.40628e+00		         0.39833	-4.80000e+01	
1.50699   	-3.35656e+00		         0.40000	-4.90000e+01	
1.51312   	-4.14067e+00		         0.40167	-4.90000e+01	
1.51953   	-4.84316e+00		         0.40333	-4.90000e+01	
1.52567   	-5.26334e+00		         0.40500	-4.90000e+01	
1.53181   	-5.50129e+00		         0.40667	-4.80000e+01	
1.53795   	-5.66239e+00		         0.40833	-4.80000e+01	
1.54435   	-5.70666e+00		         0.41000	-4.70000e+01	
1.55049   	-5.54323e+00		         0.41167	-4.70000e+01	
1.55663   	-5.30846e+00		         0.41333	-4.60000e+01	
1.56277   	-5.00096e+00		         0.41500	-4.50000e+01	
1.56918   	-4.63711e+00		         0.41667	-4.40000e+01	
1.57531   	-4.31323e+00		         0.41833	-4.40000e+01	
1.58145   	-4.03756e+00		         0.42000	-4.30000e+01	
1.58759   	-3.80505e+00		         0.42167	-4.20000e+01	
1.59400   	-3.63799e+00		         0.42333	-4.00000e+01	
1.60014   	-3.44311e+00		         0.42500	-3.90000e+01	
1.60627   	-3.24031e+00		         0.42667	-3.80000e+01	
1.61240   	-3.05933e+00		         0.42833	-3.70000e+01	
1.61882   	-2.86392e+00		         0.43000	-3.50000e+01	
1.62496   	-2.67310e+00		         0.43167	-3.30000e+01	
1.63110   	-2.49242e+00		         0.43333	-3.20000e+01	
1.63723   	-2.25202e+00		         0.43500	-3.00000e+01	
1.64364   	-2.03626e+00		         0.43667	-2.90000e+01	
1.64978   	-1.81568e+00		         0.43833	-2.80000e+01	
1.65592   	-1.57876e+00		         0.44000	-2.70000e+01	
1.66206   	-1.36646e+00		         0.44167	-2.60000e+01	
1.66847   	-1.21819e+00		         0.44333	-2.50000e+01	
1.67460   	-1.07161e+00		         0.44500	-2.40000e+01	
1.68074   	-8.48676e-01		         0.44667	-2.20000e+01	
1.68688   	-7.07991e-01		         0.44833	-2.10000e+01	
1.69329   	-5.73864e-01		         0.45000	-2.00000e+01	
1.69942   	-4.23851e-01		         0.45167	-1.90000e+01	
1.70556   	-2.07592e-01		         0.45333	-1.80000e+01	
1.71170   	-1.25363e-01		         0.45500	-1.70000e+01	
1.71811   	3.96304e-03		         0.45667	-1.60000e+01	
1.72424   	1.14446e-01		         0.45833	-1.40000e+01	
1.73038   	1.73596e-01		         0.46000	-1.30000e+01	
1.73652   	1.47650e-01		         0.46167	-1.20000e+01	
1.74293   	1.14913e-01		         0.46333	-1.10000e+01	
1.74907   	5.14979e-02		         0.46500	-1.00000e+01	
1.75520   	-1.98949e-02		         0.46667	-1.00000e+01	
1.76135   	-9.53162e-02		         0.46833	-9.00000e+00	
1.76775   	-1.62059e-01		         0.47000	-9.00000e+00	
1.77389   	-2.16039e-01		         0.47167	-9.00000e+00	
1.78003   	-3.11856e-01		         0.47333	-9.00000e+00	
1.78617   	-4.80159e-01		         0.47500	-9.00000e+00	
1.79257   	-6.92362e-01		         0.47667	-9.00000e+00	
1.79871   	-9.90669e-01		         0.47833	-9.00000e+00	
1.80485   	-1.44927e+00		         0.48000	-9.00000e+00	
1.81099   	-2.04552e+00		         0.48167	-1.00000e+01	
1.81740   	-2.84344e+00		         0.48333	-1.00000e+01	
1.82353   	-3.85313e+00		         0.48500	-1.10000e+01	
1.82967   	-5.04875e+00		         0.48667	-1.10000e+01	
1.83581   	-6.35447e+00		         0.48833	-1.20000e+01	
1.84222   	-7.71520e+00		         0.49000	-1.30000e+01	
1.84836   	-8.95467e+00		         0.49167	-1.40000e+01	
1.85449   	-1.00181e+01		         0.49333	-1.50000e+01	
1.86063   	-1.07901e+01		         0.49500	-1.60000e+01	
1.86704   	-1.12326e+01		         0.49667	-1.70000e+01	
1.87318   	-1.12943e+01		         0.49833	-1.80000e+01	
1.87932   	-1.08421e+01		         0.50000	-1.90000e+01	
1.88545   	-9.91418e+00		         0.50167	-1.90000e+01	
1.89186   	-8.71744e+00		         0.50333	-2.00000e+01	
1.89800   	-7.22386e+00		         0.50500	-2.00000e+01	
1.90414   	-5.58354e+00		         0.50667	-1.90000e+01	
1.91028   	-4.35961e+00		         0.50833	-1.90000e+01	
1.91668   	-3.44673e+00		         0.51000	-1.80000e+01	
1.92282   	-2.76087e+00		         0.51167	-1.70000e+01	
1.92896   	-2.09054e+00		         0.51333	-1.60000e+01	
1.93510   	-1.35703e+00		         0.51500	-1.40000e+01	
1.94151   	-4.23897e-01		         0.51667	-1.20000e+01	
1.94764   	5.75982e-01		         0.51833	-1.10000e+01	
1.95378   	1.55647e+00		         0.52000	-9.00000e+00	
1.95992   	2.06958e+00		         0.52167	-7.00000e+00	
1.96633   	1.91968e+00		         0.52333	-5.00000e+00	
1.97261   	1.43295e+00		         0.52500	-4.00000e+00	
1.97860   	6.86309e-01		         0.52667	-3.00000e+00	
1.98474   	-7.27770e-02		         0.52833	-2.00000e+00	
1.99115   	-6.27524e-01		         0.53000	-1.00000e+00	
1.99729   	-9.35440e-01		         0.53167	-1.00000e+00	
2.00342   	-9.57385e-01		         0.53333	-1.00000e+00	
2.00956   	-8.58460e-01		         0.53500	-2.00000e+00	
2.01597   	-9.70160e-01		         0.53667	-2.00000e+00	
2.02211   	-9.44714e-01		         0.53833	-3.00000e+00	
2.02825   	-5.46279e-01		         0.54000	-3.00000e+00	
2.03439   	4.61442e-02		         0.54167	-4.00000e+00	
2.04079   	5.68103e-01		         0.54333	-4.00000e+00	
2.04693   	1.45007e+00		         0.54500	-5.00000e+00	
2.05307   	2.12905e+00		         0.54667	-6.00000e+00	
2.05921   	2.50487e+00		         0.54833	-6.00000e+00	
2.06562   	2.45418e+00		         0.55000	-6.00000e+00	
2.07188   	2.70580e+00		         0.55167	-5.00000e+00	
2.07789   	2.98575e+00		         0.55333	-5.00000e+00	
2.08403   	3.46855e+00		         0.55500	-5.00000e+00	
2.09044   	4.09547e+00		         0.55667	-4.00000e+00	
2.09658   	4.89508e+00		         0.55833	-5.00000e+00	
2.10271   	5.44983e+00		         0.56000	-5.00000e+00	
2.10885   	5.77595e+00		         0.56167	-6.00000e+00	
2.11526   	5.96884e+00		         0.56333	-7.00000e+00	
2.12139   	6.01048e+00		         0.56500	-7.00000e+00	
2.12754   	6.03732e+00		         0.56667	-8.00000e+00	
2.13367   	6.12565e+00		         0.56833	-9.00000e+00	
2.14008   	6.25041e+00		         0.57000	-1.00000e+01	
2.14622   	6.30661e+00		         0.57167	-1.00000e+01	
2.15236   	6.33152e+00		         0.57333	-1.10000e+01	
2.15849   	6.32630e+00		         0.57500	-1.10000e+01	
2.16490   	6.28399e+00		         0.57667	-1.20000e+01	
2.17104   	6.18737e+00		         0.57833	-1.20000e+01	
2.17718   	6.10127e+00		         0.58000	-1.10000e+01	
2.18332   	6.02840e+00		         0.58167	-1.10000e+01	
2.18972   	5.95898e+00		         0.58333	-1.10000e+01	
2.19586   	5.88180e+00		         0.58500	-1.00000e+01	
2.20200   	5.85670e+00		         0.58667	-9.00000e+00	
2.20814   	5.82629e+00		         0.58833	-8.00000e+00	
2.21455   	5.81019e+00		         0.59000	-7.00000e+00	
2.22068   	5.78819e+00		         0.59167	-5.00000e+00	
2.22683   	5.75090e+00		         0.59333	-4.00000e+00	
2.23296   	5.64978e+00		         0.59500	-3.00000e+00	
2.23937   	5.51380e+00		         0.59667	-3.00000e+00	
2.24551   	5.38032e+00		         0.59833	-2.00000e+00	
2.25164   	5.24264e+00		         0.60000	-2.00000e+00	
2.25778   	5.07962e+00		         0.60167	-2.00000e+00	
2.26419   	4.95768e+00		         0.60333	-2.00000e+00	
2.27033   	4.83464e+00		         0.60500	-2.00000e+00	
2.27647   	4.68473e+00		         0.60667	-2.00000e+00	
2.28260   	4.53091e+00		         0.60833	-3.00000e+00	
2.28901   	4.37204e+00		         0.61000	-3.00000e+00	
2.29515   	4.17551e+00		         0.61167	-4.00000e+00	
2.30129   	3.96789e+00		         0.61333	-4.00000e+00	
2.30743   	3.76002e+00		         0.61500	-4.00000e+00	
2.31384   	3.54450e+00		         0.61667	-4.00000e+00	
2.31997   	3.31633e+00		         0.61833	-4.00000e+00	
2.32611   	3.16483e+00		         0.62000	-3.00000e+00	
2.33225   	2.97719e+00		         0.62167	-3.00000e+00	
2.33866   	2.78463e+00		         0.62333	-2.00000e+00	
2.34480   	2.64397e+00		         0.62500	-1.00000e+00	
2.35093   	2.42075e+00		         0.62667	-1.00000e+00	
2.35707   	2.08116e+00		         0.62833	0.00000e+00	
2.36348   	1.66563e+00		         0.63000	0.00000e+00	
2.36961   	1.10451e+00		         0.63167	1.00000e+00	
2.37576   	2.41633e-01		         0.63333	1.00000e+00	
2.38189   	-3.56577e-01		         0.63500	1.00000e+00	
2.38830   	-5.75947e-01		         0.63667	1.00000e+00	
2.39444   	-2.41701e-01		         0.63833	1.00000e+00	
2.40057   	1.78560e-01		         0.64000	0.00000e+00	
2.40671   	8.04019e-01		         0.64167	0.00000e+00	
2.41312   	1.40238e+00		         0.64333	-1.00000e+00	
2.41926   	1.65147e+00		         0.64500	-2.00000e+00	
2.42540   	1.70217e+00		         0.64667	-3.00000e+00	
2.43153   	1.76637e+00		         0.64833	-4.00000e+00	
2.43794   	1.98332e+00		         0.65000	-4.00000e+00	
2.44408   	2.04348e+00		         0.65167	-5.00000e+00	
2.45022   	2.12751e+00		         0.65333	-6.00000e+00	
2.45636   	1.88570e+00		         0.65500	-7.00000e+00	
2.46277   	1.64985e+00		         0.65667	-7.00000e+00	
2.46890   	1.25369e+00		         0.65833	-8.00000e+00	
2.47505   	5.53612e-01		         0.66000	-8.00000e+00	
2.48118   	-3.95215e-01		         0.66167	-9.00000e+00	
2.48759   	-1.37563e+00		         0.66333	-9.00000e+00	
2.49373   	-2.43607e+00		         0.66500	-9.00000e+00	
2.49986   	-3.57015e+00		         0.66667	-1.00000e+01	
2.50600   	-4.41587e+00		         0.66833	-1.00000e+01	
2.51240   	-5.05730e+00		         0.67000	-1.00000e+01	
2.51855   	-5.55893e+00		         0.67167	-1.00000e+01	
2.52469   	-5.81405e+00		         0.67333	-1.00000e+01	
2.53082   	-5.88098e+00		         0.67500	-1.00000e+01	
2.53723   	-5.79287e+00		         0.67667	-1.00000e+01	
2.54337   	-5.52323e+00		         0.67833	-1.00000e+01	
2.54951   	-5.17877e+00		         0.68000	-9.00000e+00	
2.55564   	-4.88140e+00		         0.68167	-9.00000e+00	
2.56206   	-4.57850e+00		         0.68333	-9.00000e+00	
2.56819   	-4.32190e+00		         0.68500	-9.00000e+00	
2.57433   	-4.11402e+00		         0.68667	-8.00000e+00	
2.58047   	-3.92167e+00		         0.68833	-8.00000e+00	
2.58688   	-3.72060e+00		         0.69000	-7.00000e+00	
2.59301   	-3.51111e+00		         0.69167	-7.00000e+00	
2.59915   	-3.30177e+00		         0.69333	-7.00000e+00	
2.60529   	-3.10255e+00		         0.69500	-6.00000e+00	
2.61170   	-2.90616e+00		         0.69667	-4.00000e+00	
2.61783   	-2.69429e+00		         0.69833	-2.00000e+00	
2.62397   	-2.50392e+00		         0.70000	0.00000e+00	
2.63011   	-2.28938e+00		         0.70167	2.00000e+00	
2.63652   	-2.11856e+00		         0.70333	4.00000e+00	
2.64266   	-1.91428e+00		         0.70500	5.00000e+00	
2.64880   	-1.73193e+00		         0.70667	7.00000e+00	
2.65493   	-1.52307e+00		         0.70833	8.00000e+00	
2.66134   	-1.35383e+00		         0.71000	1.00000e+01	
2.66748   	-1.13966e+00		         0.71167	1.00000e+01	
2.67362   	-9.45554e-01		         0.71333	1.00000e+01	
2.67976   	-7.63431e-01		         0.71500	1.00000e+01	
2.68630   	-6.08720e-01		         0.71667	9.00000e+00	
2.69230   	-4.18432e-01		         0.71833	7.00000e+00	
2.69844   	-2.58206e-01		         0.72000	6.00000e+00	
2.70458   	-1.33361e-01		         0.72167	4.00000e+00	
2.71099   	-4.02405e-02		         0.72333	3.00000e+00	
2.71712   	-3.14331e-03		         0.72500	2.00000e+00	
2.72326   	-2.45769e-02		         0.72667	0.00000e+00	
2.72940   	-6.89826e-02		         0.72833	-2.00000e+00	
2.73618   	-1.15137e-01		         0.73000	-3.00000e+00	
2.74195   	-1.57565e-01		         0.73167	-5.00000e+00	
2.74808   	-1.68219e-01		         0.73333	-6.00000e+00	
2.75422   	-1.86962e-01		         0.73500	-6.00000e+00	
2.76063   	-2.26265e-01		         0.73667	-7.00000e+00	
2.76677   	-2.92145e-01		         0.73833	-7.00000e+00	
2.77290   	-3.97908e-01		         0.74000	-8.00000e+00	
2.77904   	-5.52831e-01		         0.74167	-8.00000e+00	
2.78545   	-7.56547e-01		         0.74333	-8.00000e+00	
2.79159   	-9.92314e-01		         0.74500	-7.00000e+00	
2.79773   	-1.27093e+00		         0.74667	-6.00000e+00	
2.80386   	-1.63929e+00		         0.74833	-5.00000e+00	
2.81028   	-2.17547e+00		         0.75000	-4.00000e+00	
2.81640   	-2.90087e+00		         0.75167	-3.00000e+00	
2.82255   	-3.88789e+00		         0.75333	-2.00000e+00	
2.82869   	-5.06995e+00		         0.75500	-1.00000e+00	
2.83510   	-6.45545e+00		         0.75667	0.00000e+00	
2.84123   	-7.79448e+00		         0.75833	1.00000e+00	
2.84737   	-9.01018e+00		         0.76000	2.00000e+00	
2.85351   	-9.96468e+00		         0.76167	2.00000e+00	
2.85992   	-1.06493e+01		         0.76333	2.00000e+00	
2.86605   	-1.10608e+01		         0.76500	2.00000e+00	
2.87219   	-1.11074e+01		         0.76667	1.00000e+00	
2.87833   	-1.07899e+01		         0.76833	1.00000e+00	
2.88474   	-1.00494e+01		         0.77000	0.00000e+00	
2.89088   	-8.97586e+00		         0.77167	-1.00000e+00	
2.89701   	-7.56954e+00		         0.77333	-1.00000e+00	
2.90315   	-6.07844e+00		         0.77500	-2.00000e+00	
2.90956   	-4.66251e+00		         0.77667	-2.00000e+00	
2.91570   	-3.70568e+00		         0.77833	-2.00000e+00	
2.92184   	-3.01479e+00		         0.78000	-2.00000e+00	
2.92798   	-2.33260e+00		         0.78167	-1.00000e+00	
2.93438   	-1.50506e+00		         0.78333	-1.00000e+00	
2.94052   	-6.67258e-01		         0.78500	0.00000e+00	
2.94666   	3.23111e-01		         0.78667	0.00000e+00	
2.95279   	1.21638e+00		         0.78833	2.00000e+00	
2.95921   	1.83164e+00		         0.79000	3.00000e+00	
2.96534   	1.75240e+00		         0.79167	4.00000e+00	
2.97148   	1.21903e+00		         0.79333	6.00000e+00	
2.97762   	5.12849e-01		         0.79500	7.00000e+00	
2.98402   	-1.55982e-01		         0.79667	8.00000e+00	
2.99017   	-7.22640e-01		         0.79833	8.00000e+00	
2.99630   	-9.57992e-01		         0.80000	9.00000e+00	
3.00244   	-8.85106e-01		         0.80167	1.00000e+01	
3.00885   	-7.84523e-01		         0.80333	1.10000e+01	
3.01499   	-8.38580e-01		         0.80500	1.10000e+01	
3.02112   	-1.00939e+00		         0.80667	1.20000e+01	
3.02726   	-1.12344e+00		         0.80833	1.20000e+01	
3.03367   	-1.35856e+00		         0.81000	1.20000e+01	
			         0.81167	1.30000e+01	
			         0.81333	1.30000e+01	
			         0.81500	1.40000e+01	
			         0.81667	1.40000e+01	
			         0.81833	1.50000e+01	
			         0.82000	1.60000e+01	
			         0.82167	1.60000e+01	
			         0.82333	1.70000e+01	
			         0.82500	1.70000e+01	
			         0.82667	1.70000e+01	
			         0.82833	1.60000e+01	
			         0.83000	1.50000e+01	
			         0.83167	1.40000e+01	
			         0.83333	1.30000e+01	
			         0.83500	1.10000e+01	
			         0.83667	9.00000e+00	
			         0.83833	7.00000e+00	
			         0.84000	5.00000e+00	
			         0.84167	3.00000e+00	
			         0.84333	1.00000e+00	
			         0.84500	-1.00000e+00	
			         0.84667	-3.00000e+00	
			         0.84833	-4.00000e+00	
			         0.85000	-5.00000e+00	
			         0.85167	-5.00000e+00	
			         0.85333	-6.00000e+00	
			         0.85500	-6.00000e+00	
			         0.85667	-6.00000e+00	
			         0.85833	-7.00000e+00	
			         0.86000	-7.00000e+00	
			         0.86167	-7.00000e+00	
			         0.86333	-7.00000e+00	
			         0.86500	-7.00000e+00	
			         0.86667	-8.00000e+00	
			         0.86833	-8.00000e+00	
			         0.87000	-8.00000e+00	
			         0.87167	-8.00000e+00	
			         0.87333	-7.00000e+00	
			         0.87500	-7.00000e+00	
			         0.87667	-6.00000e+00	
			         0.87833	-6.00000e+00	
			         0.88000	-6.00000e+00	
			         0.88167	-6.00000e+00	
			         0.88333	-6.00000e+00	
			         0.88500	-7.00000e+00	
			         0.88667	-7.00000e+00	
			         0.88833	-8.00000e+00	
			         0.89000	-8.00000e+00	
			         0.89167	-9.00000e+00	
			         0.89333	-1.00000e+01	
			         0.89500	-1.00000e+01	
			         0.89667	-1.10000e+01	
			         0.89833	-1.10000e+01	
			         0.90000	-1.00000e+01	
			         0.90167	-1.00000e+01	
			         0.90333	-9.00000e+00	
			         0.90500	-8.00000e+00	
			         0.90667	-7.00000e+00	
			         0.90833	-6.00000e+00	
			         0.91000	-6.00000e+00	
			         0.91167	-6.00000e+00	
			         0.91333	-6.00000e+00	
			         0.91500	-7.00000e+00	
			         0.91667	-8.00000e+00	
			         0.91833	-1.00000e+01	
			         0.92000	-1.10000e+01	
			         0.92167	-1.20000e+01	
			         0.92333	-1.20000e+01	
			         0.92500	-1.30000e+01	
			         0.92667	-1.30000e+01	
			         0.92833	-1.30000e+01	
			         0.93000	-1.30000e+01	
			         0.93167	-1.30000e+01	
			         0.93333	-1.20000e+01	
			         0.93500	-1.10000e+01	
			         0.93667	-1.00000e+01	
			         0.93833	-9.00000e+00	
			         0.94000	-8.00000e+00	
			         0.94167	-7.00000e+00	
			         0.94333	-7.00000e+00	
			         0.94500	-7.00000e+00	
			         0.94667	-7.00000e+00	
			         0.94833	-6.00000e+00	
			         0.95000	-6.00000e+00	
			         0.95167	-5.00000e+00	
			         0.95333	-5.00000e+00	
			         0.95500	-4.00000e+00	
			         0.95667	-3.00000e+00	
			         0.95833	-3.00000e+00	
			         0.96000	-2.00000e+00	
			         0.96167	-2.00000e+00	
			         0.96333	-1.00000e+00	
			         0.96500	0.00000e+00	
			         0.96667	0.00000e+00	
			         0.96833	0.00000e+00	
			         0.97000	1.00000e+00	
			         0.97167	1.00000e+00	
			         0.97333	0.00000e+00	
			         0.97500	0.00000e+00	
			         0.97667	-1.00000e+00	
			         0.97833	-1.00000e+00	
			         0.98000	-1.00000e+00	
			         0.98167	-1.00000e+00	
			         0.98333	0.00000e+00	
			         0.98500	1.00000e+00	
			         0.98667	3.00000e+00	
			         0.98833	5.00000e+00	
			         0.99000	8.00000e+00	
			         0.99167	1.30000e+01	
			         0.99333	1.90000e+01	
			         0.99500	2.60000e+01	
			         0.99667	3.50000e+01	
			         0.99833	4.60000e+01	
			         1.00000	5.80000e+01	
			         1.00167	7.20000e+01	
			         1.00333	8.70000e+01	
			         1.00500	1.04000e+02	
			         1.00667	1.22000e+02	
			         1.00833	1.41000e+02	
			         1.01000	1.60000e+02	
			         1.01167	1.78000e+02	
			         1.01333	1.95000e+02	
			         1.01500	2.10000e+02	
			         1.01667	2.22000e+02	
			         1.01833	2.30000e+02	
			         1.02000	2.33000e+02	
			         1.02167	2.31000e+02	
			         1.02333	2.24000e+02	
			         1.02500	2.11000e+02	
			         1.02667	1.92000e+02	
			         1.02833	1.68000e+02	
			         1.03000	1.40000e+02	
			         1.03167	1.09000e+02	
			         1.03333	7.50000e+01	
			         1.03500	4.00000e+01	
			         1.03667	6.00000e+00	
			         1.03833	-2.70000e+01	
			         1.04000	-5.80000e+01	
			         1.04167	-8.50000e+01	
			         1.04333	-1.08000e+02	
			         1.04500	-1.27000e+02	
			         1.04667	-1.41000e+02	
			         1.04833	-1.51000e+02	
			         1.05000	-1.57000e+02	
			         1.05167	-1.58000e+02	
			         1.05333	-1.57000e+02	
			         1.05500	-1.52000e+02	
			         1.05667	-1.45000e+02	
			         1.05833	-1.37000e+02	
			         1.06000	-1.27000e+02	
			         1.06167	-1.16000e+02	
			         1.06333	-1.06000e+02	
			         1.06500	-9.50000e+01	
			         1.06667	-8.40000e+01	
			         1.06833	-7.50000e+01	
			         1.07000	-6.50000e+01	
			         1.07167	-5.70000e+01	
			         1.07333	-5.00000e+01	
			         1.07500	-4.30000e+01	
			         1.07667	-3.80000e+01	
			         1.07833	-3.30000e+01	
			         1.08000	-2.90000e+01	
			         1.08167	-2.60000e+01	
			         1.08333	-2.40000e+01	
			         1.08500	-2.20000e+01	
			         1.08667	-2.00000e+01	
			         1.08833	-1.80000e+01	
			         1.09000	-1.70000e+01	
			         1.09167	-1.60000e+01	
			         1.09333	-1.60000e+01	
			         1.09500	-1.60000e+01	
			         1.09667	-1.60000e+01	
			         1.09833	-1.60000e+01	
			         1.10000	-1.60000e+01	
			         1.10167	-1.60000e+01	
			         1.10333	-1.60000e+01	
			         1.10500	-1.60000e+01	
			         1.10667	-1.60000e+01	
			         1.10833	-1.50000e+01	
			         1.11000	-1.50000e+01	
			         1.11167	-1.40000e+01	
			         1.11333	-1.30000e+01	
			         1.11500	-1.10000e+01	
			         1.11667	-9.00000e+00	
			         1.11833	-7.00000e+00	
			         1.12000	-4.00000e+00	
			         1.12167	-2.00000e+00	
			         1.12333	0.00000e+00	
			         1.12500	2.00000e+00	
			         1.12667	3.00000e+00	
			         1.12833	4.00000e+00	
			         1.13000	5.00000e+00	
			         1.13167	6.00000e+00	
			         1.13333	5.00000e+00	
			         1.13500	5.00000e+00	
			         1.13667	3.00000e+00	
			         1.13833	2.00000e+00	
			         1.14000	0.00000e+00	
			         1.14167	-2.00000e+00	
			         1.14333	-3.00000e+00	
			         1.14500	-4.00000e+00	
			         1.14667	-5.00000e+00	
			         1.14833	-5.00000e+00	
			         1.15000	-5.00000e+00	
			         1.15167	-4.00000e+00	
			         1.15333	-3.00000e+00	
			         1.15500	-2.00000e+00	
			         1.15667	0.00000e+00	
			         1.15833	2.00000e+00	
			         1.16000	4.00000e+00	
			         1.16167	5.00000e+00	
			         1.16333	7.00000e+00	
			         1.16500	8.00000e+00	
			         1.16667	9.00000e+00	
			         1.16833	9.00000e+00	
			         1.17000	1.00000e+01	
			         1.17167	1.00000e+01	
			         1.17333	1.10000e+01	
			         1.17500	1.10000e+01	
			         1.17667	1.10000e+01	
			         1.17833	1.10000e+01	
			         1.18000	1.10000e+01	
			         1.18167	1.10000e+01	
			         1.18333	1.20000e+01	
			         1.18500	1.30000e+01	
			         1.18667	1.40000e+01	
			         1.18833	1.50000e+01	
			         1.19000	1.60000e+01	
			         1.19167	1.70000e+01	
			         1.19333	1.90000e+01	
			         1.19500	2.00000e+01	
			         1.19667	2.20000e+01	
			         1.19833	2.40000e+01	
			         1.20000	2.60000e+01	
			         1.20167	2.70000e+01	
			         1.20333	2.90000e+01	
			         1.20500	3.00000e+01	
			         1.20667	3.10000e+01	
			         1.20833	3.10000e+01	
			         1.21000	3.20000e+01	
			         1.21167	3.20000e+01	
			         1.21333	3.20000e+01	
			         1.21500	3.20000e+01	
			         1.21667	3.20000e+01	
			         1.21833	3.10000e+01	
			         1.22000	3.10000e+01	
			         1.22167	3.10000e+01	
			         1.22333	3.10000e+01	
			         1.22500	3.20000e+01	
			         1.22667	3.40000e+01	
			         1.22833	3.60000e+01	
			         1.23000	3.80000e+01	
			         1.23167	4.00000e+01	
			         1.23333	4.30000e+01	
			         1.23500	4.60000e+01	
			         1.23667	4.90000e+01	
			         1.23833	5.20000e+01	
			         1.24000	5.50000e+01	
			         1.24167	5.80000e+01	
			         1.24333	6.00000e+01	
			         1.24500	6.20000e+01	
			         1.24667	6.40000e+01	
			         1.24833	6.40000e+01	
			         1.25000	6.50000e+01	
			         1.25167	6.60000e+01	
			         1.25333	6.70000e+01	
			         1.25500	6.70000e+01	
			         1.25667	6.80000e+01	
			         1.25833	6.80000e+01	
			         1.26000	6.90000e+01	
			         1.26167	6.90000e+01	
			         1.26333	6.90000e+01	
			         1.26500	7.00000e+01	
			         1.26667	7.00000e+01	
			         1.26833	7.10000e+01	
			         1.27000	7.20000e+01	
			         1.27167	7.30000e+01	
			         1.27333	7.30000e+01	
			         1.27500	7.30000e+01	
			         1.27667	7.30000e+01	
			         1.27833	7.30000e+01	
			         1.28000	7.30000e+01	
			         1.28167	7.20000e+01	
			         1.28333	7.20000e+01	
			         1.28500	7.10000e+01	
			         1.28667	6.90000e+01	
			         1.28833	6.70000e+01	
			         1.29000	6.40000e+01	
			         1.29167	6.00000e+01	
			         1.29333	5.60000e+01	
			         1.29500	5.20000e+01	
			         1.29667	4.70000e+01	
			         1.29833	4.10000e+01	
			         1.30000	3.50000e+01	
			         1.30167	2.90000e+01	
			         1.30333	2.30000e+01	
			         1.30500	1.60000e+01	
			         1.30667	1.00000e+01	
			         1.30833	4.00000e+00	
			         1.31000	-2.00000e+00	
			         1.31167	-8.00000e+00	
			         1.31333	-1.30000e+01	
			         1.31500	-1.90000e+01	
			         1.31667	-2.30000e+01	
			         1.31833	-2.80000e+01	
			         1.32000	-3.20000e+01	
			         1.32167	-3.60000e+01	
			         1.32333	-3.90000e+01	
			         1.32500	-4.20000e+01	
			         1.32667	-4.50000e+01	
			         1.32833	-4.70000e+01	
			         1.33000	-5.00000e+01	
			         1.33167	-5.20000e+01	
			         1.33333	-5.50000e+01	
			         1.33500	-5.70000e+01	
			         1.33667	-5.90000e+01	
			         1.33833	-6.10000e+01	
			         1.34000	-6.30000e+01	
			         1.34167	-6.50000e+01	
			         1.34333	-6.60000e+01	
			         1.34500	-6.80000e+01	
			         1.34667	-6.90000e+01	
			         1.34833	-7.00000e+01	
			         1.35000	-7.10000e+01	
			         1.35167	-7.10000e+01	
			         1.35333	-7.10000e+01	
			         1.35500	-7.10000e+01	
			         1.35667	-7.00000e+01	
			         1.35833	-6.90000e+01	
			         1.36000	-6.90000e+01	
			         1.36167	-6.80000e+01	
			         1.36333	-6.60000e+01	
			         1.36500	-6.50000e+01	
			         1.36667	-6.40000e+01	
			         1.36833	-6.20000e+01	
			         1.37000	-6.10000e+01	
			         1.37167	-6.00000e+01	
			         1.37333	-5.90000e+01	
			         1.37500	-5.80000e+01	
			         1.37667	-5.70000e+01	
			         1.37833	-5.60000e+01	
			         1.38000	-5.50000e+01	
			         1.38167	-5.40000e+01	
			         1.38333	-5.20000e+01	
			         1.38500	-5.10000e+01	
			         1.38667	-5.00000e+01	
			         1.38833	-4.90000e+01	
			         1.39000	-4.70000e+01	
			         1.39167	-4.60000e+01	
			         1.39333	-4.50000e+01	
			         1.39500	-4.40000e+01	
			         1.39667	-4.30000e+01	
			         1.39833	-4.20000e+01	
			         1.40000	-4.10000e+01	
			         1.40167	-4.10000e+01	
			         1.40333	-4.10000e+01	
			         1.40500	-4.10000e+01	
			         1.40667	-4.10000e+01	
			         1.40833	-4.00000e+01	
			         1.41000	-4.00000e+01	
			         1.41167	-3.90000e+01	
			         1.41333	-3.90000e+01	
			         1.41500	-3.80000e+01	
			         1.41667	-3.70000e+01	
			         1.41833	-3.60000e+01	
			         1.42000	-3.50000e+01	
			         1.42167	-3.40000e+01	
			         1.42333	-3.30000e+01	
			         1.42500	-3.20000e+01	
			         1.42667	-3.10000e+01	
			         1.42833	-3.00000e+01	
			         1.43000	-3.00000e+01	
			         1.43167	-2.90000e+01	
			         1.43333	-2.90000e+01	
			         1.43500	-2.90000e+01	
			         1.43667	-2.90000e+01	
			         1.43833	-2.80000e+01	
			         1.44000	-2.80000e+01	
			         1.44167	-2.70000e+01	
			         1.44333	-2.70000e+01	
			         1.44500	-2.70000e+01	
			         1.44667	-2.70000e+01	
			         1.44833	-2.70000e+01	
			         1.45000	-2.70000e+01	
			         1.45167	-2.70000e+01	
			         1.45333	-2.70000e+01	
			         1.45500	-2.70000e+01	
			         1.45667	-2.70000e+01	
			         1.45833	-2.80000e+01	
			         1.46000	-2.80000e+01	
			         1.46167	-2.80000e+01	
			         1.46333	-2.70000e+01	
			         1.46500	-2.70000e+01	
			         1.46667	-2.70000e+01	
			         1.46833	-2.60000e+01	
			         1.47000	-2.50000e+01	
			         1.47167	-2.40000e+01	
			         1.47333	-2.30000e+01	
			         1.47500	-2.20000e+01	
			         1.47667	-2.10000e+01	
			         1.47833	-2.00000e+01	
			         1.48000	-1.80000e+01	
			         1.48167	-1.70000e+01	
			         1.48333	-1.60000e+01	
			         1.48500	-1.50000e+01	
			         1.48667	-1.40000e+01	
			         1.48833	-1.30000e+01	
			         1.49000	-1.20000e+01	
			         1.49167	-1.20000e+01	
			         1.49333	-1.20000e+01	
			         1.49500	-1.20000e+01	
			         1.49667	-1.30000e+01	
			         1.49833	-1.30000e+01	
			         1.50000	-1.30000e+01	
			         1.50167	-1.20000e+01	
			         1.50333	-1.20000e+01	
			         1.50500	-1.10000e+01	
			         1.50667	-1.10000e+01	
			         1.50833	-1.10000e+01	
			         1.51000	-1.00000e+01	
			         1.51167	-1.00000e+01	
			         1.51333	-9.00000e+00	
			         1.51500	-8.00000e+00	
			         1.51667	-8.00000e+00	
			         1.51833	-8.00000e+00	
			         1.52000	-8.00000e+00	
			         1.52167	-8.00000e+00	
			         1.52333	-8.00000e+00	
			         1.52500	-9.00000e+00	
			         1.52667	-1.00000e+01	
			         1.52833	-1.10000e+01	
			         1.53000	-1.10000e+01	
			         1.53167	-1.20000e+01	
			         1.53333	-1.30000e+01	
			         1.53500	-1.30000e+01	
			         1.53667	-1.20000e+01	
			         1.53833	-1.20000e+01	
			         1.54000	-1.10000e+01	
			         1.54167	-1.10000e+01	
			         1.54333	-1.00000e+01	
			         1.54500	-1.00000e+01	
			         1.54667	-9.00000e+00	
			         1.54833	-8.00000e+00	
			         1.55000	-8.00000e+00	
			         1.55167	-8.00000e+00	
			         1.55333	-7.00000e+00	
			         1.55500	-7.00000e+00	
			         1.55667	-7.00000e+00	
			         1.55833	-7.00000e+00	
			         1.56000	-7.00000e+00	
			         1.56167	-7.00000e+00	
			         1.56333	-6.00000e+00	
			         1.56500	-6.00000e+00	
			         1.56667	-6.00000e+00	
			         1.56833	-6.00000e+00	
			         1.57000	-5.00000e+00	
			         1.57167	-5.00000e+00	
			         1.57333	-5.00000e+00	
			         1.57500	-5.00000e+00	
			         1.57667	-5.00000e+00	
			         1.57833	-6.00000e+00	
			         1.58000	-6.00000e+00	
			         1.58167	-6.00000e+00	
			         1.58333	-6.00000e+00	
			         1.58500	-6.00000e+00	
			         1.58667	-5.00000e+00	
			         1.58833	-5.00000e+00	
			         1.59000	-4.00000e+00	
			         1.59167	-3.00000e+00	
			         1.59333	-1.00000e+00	
			         1.59500	0.00000e+00	
			         1.59667	2.00000e+00	
			         1.59833	3.00000e+00	
			         1.60000	3.00000e+00	
			         1.60167	3.00000e+00	
			         1.60333	3.00000e+00	
			         1.60500	2.00000e+00	
			         1.60667	1.00000e+00	
			         1.60833	0.00000e+00	
			         1.61000	-1.00000e+00	
			         1.61167	-3.00000e+00	
			         1.61333	-5.00000e+00	
			         1.61500	-7.00000e+00	
			         1.61667	-9.00000e+00	
			         1.61833	-1.00000e+01	
			         1.62000	-1.10000e+01	
			         1.62167	-1.20000e+01	
			         1.62333	-1.20000e+01	
			         1.62500	-1.20000e+01	
			         1.62667	-1.20000e+01	
			         1.62833	-1.10000e+01	
			         1.63000	-1.10000e+01	
			         1.63167	-1.00000e+01	
			         1.63333	-1.00000e+01	
			         1.63500	-9.00000e+00	
			         1.63667	-9.00000e+00	
			         1.63833	-8.00000e+00	
			         1.64000	-8.00000e+00	
			         1.64167	-7.00000e+00	
			         1.64333	-6.00000e+00	
			         1.64500	-6.00000e+00	
			         1.64667	-5.00000e+00	
			         1.64833	-4.00000e+00	
			         1.65000	-4.00000e+00	
			         1.65167	-4.00000e+00	
			         1.65333	-3.00000e+00	
			         1.65500	-2.00000e+00	
			         1.65667	-1.00000e+00	
			         1.65833	0.00000e+00	
			         1.66000	1.00000e+00	
			         1.66167	1.00000e+00	
			         1.66333	2.00000e+00	
			         1.66500	2.00000e+00	
			         1.66667	2.00000e+00	
			         1.66833	3.00000e+00	
			         1.67000	3.00000e+00	
			         1.67167	4.00000e+00	
			         1.67333	4.00000e+00	
			         1.67500	4.00000e+00	
			         1.67667	4.00000e+00	
			         1.67833	4.00000e+00	
			         1.68000	4.00000e+00	
			         1.68167	5.00000e+00	
			         1.68333	5.00000e+00	
			         1.68500	5.00000e+00	
			         1.68667	5.00000e+00	
			         1.68833	4.00000e+00	
			         1.69000	4.00000e+00	
			         1.69167	2.00000e+00	
			         1.69333	1.00000e+00	
			         1.69500	0.00000e+00	
			         1.69667	-2.00000e+00	
			         1.69833	-4.00000e+00	
			         1.70000	-6.00000e+00	
			         1.70167	-8.00000e+00	
			         1.70333	-9.00000e+00	
			         1.70500	-1.10000e+01	
			         1.70667	-1.20000e+01	
			         1.70833	-1.20000e+01	
			         1.71000	-1.30000e+01	
			         1.71167	-1.20000e+01	
			         1.71333	-1.20000e+01	
			         1.71500	-1.00000e+01	
			         1.71667	-9.00000e+00	
			         1.71833	-7.00000e+00	
			         1.72000	-5.00000e+00	
			         1.72167	-3.00000e+00	
			         1.72333	-1.00000e+00	
			         1.72500	1.00000e+00	
			         1.72667	3.00000e+00	
			         1.72833	5.00000e+00	
			         1.73000	7.00000e+00	
			         1.73167	9.00000e+00	
			         1.73333	1.00000e+01	
			         1.73500	1.10000e+01	
			         1.73667	1.10000e+01	
			         1.73833	1.00000e+01	
			         1.74000	9.00000e+00	
			         1.74167	8.00000e+00	
			         1.74333	6.00000e+00	
			         1.74500	4.00000e+00	
			         1.74667	1.00000e+00	
			         1.74833	-1.00000e+00	
			         1.75000	-4.00000e+00	
			         1.75167	-6.00000e+00	
			         1.75333	-8.00000e+00	
			         1.75500	-8.00000e+00	
			         1.75667	-8.00000e+00	
			         1.75833	-8.00000e+00	
			         1.76000	-7.00000e+00	
			         1.76167	-6.00000e+00	
			         1.76333	-5.00000e+00	
			         1.76500	-3.00000e+00	
			         1.76667	-2.00000e+00	
			         1.76833	-1.00000e+00	
			         1.77000	0.00000e+00	
			         1.77167	1.00000e+00	
			         1.77333	2.00000e+00	
			         1.77500	2.00000e+00	
			         1.77667	2.00000e+00	
			         1.77833	2.00000e+00	
			         1.78000	2.00000e+00	
			         1.78167	2.00000e+00	
			         1.78333	3.00000e+00	
			         1.78500	3.00000e+00	
			         1.78667	3.00000e+00	
			         1.78833	3.00000e+00	
			         1.79000	4.00000e+00	
			         1.79167	4.00000e+00	
			         1.79333	4.00000e+00	
			         1.79500	5.00000e+00	
			         1.79667	5.00000e+00	
			         1.79833	6.00000e+00	
			         1.80000	7.00000e+00	
			         1.80167	8.00000e+00	
			         1.80333	9.00000e+00	
			         1.80500	1.10000e+01	
			         1.80667	1.30000e+01	
			         1.80833	1.40000e+01	
			         1.81000	1.60000e+01	
			         1.81167	1.80000e+01	
			         1.81333	1.90000e+01	
			         1.81500	2.10000e+01	
			         1.81667	2.10000e+01	
			         1.81833	2.20000e+01	
			         1.82000	2.20000e+01	
			         1.82167	2.10000e+01	
			         1.82333	2.00000e+01	
			         1.82500	1.80000e+01	
			         1.82667	1.60000e+01	
			         1.82833	1.30000e+01	
			         1.83000	1.10000e+01	
			         1.83167	9.00000e+00	
			         1.83333	7.00000e+00	
			         1.83500	6.00000e+00	
			         1.83667	4.00000e+00	
			         1.83833	1.00000e+00	
			         1.84000	-1.00000e+00	
			         1.84167	-3.00000e+00	
			         1.84333	-5.00000e+00	
			         1.84500	-6.00000e+00	
			         1.84667	-7.00000e+00	
			         1.84833	-8.00000e+00	
			         1.85000	-8.00000e+00	
			         1.85167	-9.00000e+00	
			         1.85333	-9.00000e+00	
			         1.85500	-9.00000e+00	
			         1.85667	-8.00000e+00	
			         1.85833	-6.00000e+00	
			         1.86000	-5.00000e+00	
			         1.86167	-3.00000e+00	
			         1.86333	-2.00000e+00	
			         1.86500	-2.00000e+00	
			         1.86667	-1.00000e+00	
			         1.86833	-2.00000e+00	
			         1.87000	-2.00000e+00	
			         1.87167	-3.00000e+00	
			         1.87333	-5.00000e+00	
			         1.87500	-6.00000e+00	
			         1.87667	-8.00000e+00	
			         1.87833	-1.00000e+01	
			         1.88000	-1.20000e+01	
			         1.88167	-1.30000e+01	
			         1.88333	-1.40000e+01	
			         1.88500	-1.40000e+01	
			         1.88667	-1.50000e+01	
			         1.88833	-1.40000e+01	
			         1.89000	-1.40000e+01	
			         1.89167	-1.30000e+01	
			         1.89333	-1.20000e+01	
			         1.89500	-1.10000e+01	
			         1.89667	-1.00000e+01	
			         1.89833	-1.00000e+01	
			         1.90000	-9.00000e+00	
			         1.90167	-9.00000e+00	
			         1.90333	-8.00000e+00	
			         1.90500	-8.00000e+00	
			         1.90667	-8.00000e+00	
			         1.90833	-8.00000e+00	
			         1.91000	-9.00000e+00	
			         1.91167	-9.00000e+00	
			         1.91333	-9.00000e+00	
			         1.91500	-8.00000e+00	
			         1.91667	-8.00000e+00	
			         1.91833	-8.00000e+00	
			         1.92000	-8.00000e+00	
			         1.92167	-7.00000e+00	
			         1.92333	-7.00000e+00	
			         1.92500	-6.00000e+00	
			         1.92667	-5.00000e+00	
			         1.92833	-5.00000e+00	
			         1.93000	-4.00000e+00	
			         1.93167	-3.00000e+00	
			         1.93333	-2.00000e+00	
			         1.93500	-1.00000e+00	
			         1.93667	0.00000e+00	
			         1.93833	1.00000e+00	
			         1.94000	2.00000e+00	
			         1.94167	3.00000e+00	
			         1.94333	4.00000e+00	
			         1.94500	5.00000e+00	
			         1.94667	5.00000e+00	
			         1.94833	5.00000e+00	
			         1.95000	4.00000e+00	
			         1.95167	3.00000e+00	
			         1.95333	2.00000e+00	
			         1.95500	0.00000e+00	
			         1.95667	-1.00000e+00	
			         1.95833	-3.00000e+00	
			         1.96000	-4.00000e+00	
			         1.96167	-6.00000e+00	
			         1.96333	-7.00000e+00	
			         1.96500	-9.00000e+00	
			         1.96667	-1.00000e+01	
			         1.96833	-1.00000e+01	
			         1.97000	-1.00000e+01	
			         1.97167	-9.00000e+00	
			         1.97333	-8.00000e+00	
			         1.97500	-7.00000e+00	
			         1.97667	-5.00000e+00	
			         1.97833	-3.00000e+00	
			         1.98000	0.00000e+00	
			         1.98167	4.00000e+00	
			         1.98333	9.00000e+00	
			         1.98500	1.50000e+01	
			         1.98667	2.20000e+01	
			         1.98833	3.10000e+01	
			         1.99000	4.10000e+01	
			         1.99167	5.30000e+01	
			         1.99333	6.60000e+01	
			         1.99500	8.20000e+01	
			         1.99667	9.80000e+01	
			         1.99833	1.16000e+02	
			         2.00000	1.34000e+02	
			         2.00167	1.53000e+02	
			         2.00333	1.71000e+02	
			         2.00500	1.88000e+02	
			         2.00667	2.04000e+02	
			         2.00833	2.17000e+02	
			         2.01000	2.26000e+02	
			         2.01167	2.32000e+02	
			         2.01333	2.33000e+02	
			         2.01500	2.28000e+02	
			         2.01667	2.19000e+02	
			         2.01833	2.04000e+02	
			         2.02000	1.84000e+02	
			         2.02167	1.60000e+02	
			         2.02333	1.32000e+02	
			         2.02500	1.00000e+02	
			         2.02667	6.60000e+01	
			         2.02833	3.20000e+01	
			         2.03000	-2.00000e+00	
			         2.03167	-3.50000e+01	
			         2.03333	-6.50000e+01	
			         2.03500	-9.10000e+01	
			         2.03667	-1.13000e+02	
			         2.03833	-1.30000e+02	
			         2.04000	-1.43000e+02	
			         2.04167	-1.51000e+02	
			         2.04333	-1.55000e+02	
			         2.04500	-1.54000e+02	
			         2.04667	-1.50000e+02	
			         2.04833	-1.44000e+02	
			         2.05000	-1.35000e+02	
			         2.05167	-1.25000e+02	
			         2.05333	-1.14000e+02	
			         2.05500	-1.03000e+02	
			         2.05667	-9.20000e+01	
			         2.05833	-8.10000e+01	
			         2.06000	-7.10000e+01	
			         2.06167	-6.20000e+01	
			         2.06333	-5.40000e+01	
			         2.06500	-4.70000e+01	
			         2.06667	-4.10000e+01	
			         2.06833	-3.70000e+01	
			         2.07000	-3.30000e+01	
			         2.07167	-3.00000e+01	
			         2.07333	-2.80000e+01	
			         2.07500	-2.60000e+01	
			         2.07667	-2.50000e+01	
			         2.07833	-2.40000e+01	
			         2.08000	-2.30000e+01	
			         2.08167	-2.30000e+01	
			         2.08333	-2.20000e+01	
			         2.08500	-2.10000e+01	
			         2.08667	-2.00000e+01	
			         2.08833	-1.90000e+01	
			         2.09000	-1.70000e+01	
			         2.09167	-1.50000e+01	
			         2.09333	-1.30000e+01	
			         2.09500	-1.10000e+01	
			         2.09667	-9.00000e+00	
			         2.09833	-7.00000e+00	
			         2.10000	-6.00000e+00	
			         2.10167	-5.00000e+00	
			         2.10333	-4.00000e+00	
			         2.10500	-4.00000e+00	
			         2.10667	-2.00000e+00	
			         2.10833	-1.00000e+00	
			         2.11000	-1.00000e+00	
			         2.11167	0.00000e+00	
			         2.11333	0.00000e+00	
			         2.11500	0.00000e+00	
			         2.11667	1.00000e+00	
			         2.11833	2.00000e+00	
			         2.12000	2.00000e+00	
			         2.12167	3.00000e+00	
			         2.12333	3.00000e+00	
			         2.12500	3.00000e+00	
			         2.12667	2.00000e+00	
			         2.12833	1.00000e+00	
			         2.13000	-1.00000e+00	
			         2.13167	-2.00000e+00	
			         2.13333	-3.00000e+00	
			         2.13500	-4.00000e+00	
			         2.13667	-5.00000e+00	
			         2.13833	-5.00000e+00	
			         2.14000	-5.00000e+00	
			         2.14167	-5.00000e+00	
			         2.14333	-4.00000e+00	
			         2.14500	-3.00000e+00	
			         2.14667	-2.00000e+00	
			         2.14833	0.00000e+00	
			         2.15000	1.00000e+00	
			         2.15167	3.00000e+00	
			         2.15333	5.00000e+00	
			         2.15500	6.00000e+00	
			         2.15667	7.00000e+00	
			         2.15833	9.00000e+00	
			         2.16000	9.00000e+00	
			         2.16167	1.00000e+01	
			         2.16333	1.00000e+01	
			         2.16500	1.00000e+01	
			         2.16667	1.00000e+01	
			         2.16833	1.10000e+01	
			         2.17000	1.10000e+01	
			         2.17167	1.10000e+01	
			         2.17333	1.10000e+01	
			         2.17500	1.10000e+01	
			         2.17667	1.10000e+01	
			         2.17833	1.10000e+01	
			         2.18000	1.20000e+01	
			         2.18167	1.20000e+01	
			         2.18333	1.30000e+01	
			         2.18500	1.40000e+01	
			         2.18667	1.50000e+01	
			         2.18833	1.60000e+01	
			         2.19000	1.60000e+01	
			         2.19167	1.70000e+01	
			         2.19333	1.80000e+01	
			         2.19500	1.90000e+01	
			         2.19667	2.00000e+01	
			         2.19833	2.20000e+01	
			         2.20000	2.40000e+01	
			         2.20167	2.50000e+01	
			         2.20333	2.70000e+01	
			         2.20500	2.80000e+01	
			         2.20667	2.90000e+01	
			         2.20833	3.00000e+01	
			         2.21000	3.10000e+01	
			         2.21167	3.20000e+01	
			         2.21333	3.30000e+01	
			         2.21500	3.40000e+01	
			         2.21667	3.50000e+01	
			         2.21833	3.50000e+01	
			         2.22000	3.60000e+01	
			         2.22167	3.70000e+01	
			         2.22333	3.80000e+01	
			         2.22500	3.90000e+01	
			         2.22667	4.10000e+01	
			         2.22833	4.20000e+01	
			         2.23000	4.40000e+01	
			         2.23167	4.60000e+01	
			         2.23333	4.70000e+01	
			         2.23500	4.90000e+01	
			         2.23667	5.20000e+01	
			         2.23833	5.40000e+01	
			         2.24000	5.60000e+01	
			         2.24167	5.80000e+01	
			         2.24333	6.00000e+01	
			         2.24500	6.20000e+01	
			         2.24667	6.50000e+01	
			         2.24833	6.70000e+01	
			         2.25000	7.00000e+01	
			         2.25167	7.30000e+01	
			         2.25333	7.50000e+01	
			         2.25500	7.80000e+01	
			         2.25667	7.90000e+01	
			         2.25833	8.10000e+01	
			         2.26000	8.20000e+01	
			         2.26167	8.30000e+01	
			         2.26333	8.30000e+01	
			         2.26500	8.20000e+01	
			         2.26667	8.10000e+01	
			         2.26833	8.00000e+01	
			         2.27000	7.80000e+01	
			         2.27167	7.70000e+01	
			         2.27333	7.50000e+01	
			         2.27500	7.30000e+01	
			         2.27667	7.10000e+01	
			         2.27833	6.80000e+01	
			         2.28000	6.50000e+01	
			         2.28167	6.20000e+01	
			         2.28333	5.80000e+01	
			         2.28500	5.40000e+01	
			         2.28667	4.90000e+01	
			         2.28833	4.40000e+01	
			         2.29000	3.90000e+01	
			         2.29167	3.40000e+01	
			         2.29333	2.90000e+01	
			         2.29500	2.30000e+01	
			         2.29667	1.80000e+01	
			         2.29833	1.20000e+01	
			         2.30000	7.00000e+00	
			         2.30167	2.00000e+00	
			         2.30333	-3.00000e+00	
			         2.30500	-8.00000e+00	
			         2.30667	-1.30000e+01	
			         2.30833	-1.70000e+01	
			         2.31000	-2.20000e+01	
			         2.31167	-2.60000e+01	
			         2.31333	-3.00000e+01	
			         2.31500	-3.40000e+01	
			         2.31667	-3.80000e+01	
			         2.31833	-4.20000e+01	
			         2.32000	-4.50000e+01	
			         2.32167	-4.80000e+01	
			         2.32333	-5.00000e+01	
			         2.32500	-5.20000e+01	
			         2.32667	-5.30000e+01	
			         2.32833	-5.50000e+01	
			         2.33000	-5.50000e+01	
			         2.33167	-5.60000e+01	
			         2.33333	-5.70000e+01	
			         2.33500	-5.70000e+01	
			         2.33667	-5.70000e+01	
			         2.33833	-5.60000e+01	
			         2.34000	-5.60000e+01	
			         2.34167	-5.60000e+01	
			         2.34333	-5.60000e+01	
			         2.34500	-5.50000e+01	
			         2.34667	-5.50000e+01	
			         2.34833	-5.40000e+01	
			         2.35000	-5.30000e+01	
			         2.35167	-5.30000e+01	
			         2.35333	-5.30000e+01	
			         2.35500	-5.40000e+01	
			         2.35667	-5.40000e+01	
			         2.35833	-5.50000e+01	
			         2.36000	-5.50000e+01	
			         2.36167	-5.50000e+01	
			         2.36333	-5.40000e+01	
			         2.36500	-5.40000e+01	
			         2.36667	-5.30000e+01	
			         2.36833	-5.30000e+01	
			         2.37000	-5.20000e+01	
			         2.37167	-5.20000e+01	
			         2.37333	-5.10000e+01	
			         2.37500	-5.00000e+01	
			         2.37667	-4.90000e+01	
			         2.37833	-4.80000e+01	
			         2.38000	-4.70000e+01	
			         2.38167	-4.60000e+01	
			         2.38333	-4.60000e+01	
			         2.38500	-4.60000e+01	
			         2.38667	-4.60000e+01	
			         2.38833	-4.60000e+01	
			         2.39000	-4.60000e+01	
			         2.39167	-4.50000e+01	
			         2.39333	-4.50000e+01	
			         2.39500	-4.40000e+01	
			         2.39667	-4.40000e+01	
			         2.39833	-4.30000e+01	
			         2.40000	-4.20000e+01	
			         2.40167	-4.20000e+01	
			         2.40333	-4.10000e+01	
			         2.40500	-4.10000e+01	
			         2.40667	-4.00000e+01	
			         2.40833	-3.90000e+01	
			         2.41000	-3.80000e+01	
			         2.41167	-3.60000e+01	
			         2.41333	-3.50000e+01	
			         2.41500	-3.30000e+01	
			         2.41667	-3.20000e+01	
			         2.41833	-3.10000e+01	
			         2.42000	-3.00000e+01	
			         2.42167	-2.90000e+01	
			         2.42333	-2.80000e+01	
			         2.42500	-2.70000e+01	
			         2.42667	-2.60000e+01	
			         2.42833	-2.50000e+01	
			         2.43000	-2.50000e+01	
			         2.43167	-2.40000e+01	
			         2.43333	-2.40000e+01	
			         2.43500	-2.40000e+01	
			         2.43667	-2.30000e+01	
			         2.43833	-2.30000e+01	
			         2.44000	-2.20000e+01	
			         2.44167	-2.20000e+01	
			         2.44333	-2.10000e+01	
			         2.44500	-2.00000e+01	
			         2.44667	-2.00000e+01	
			         2.44833	-1.90000e+01	
			         2.45000	-1.80000e+01	
			         2.45167	-1.70000e+01	
			         2.45333	-1.60000e+01	
			         2.45500	-1.50000e+01	
			         2.45667	-1.40000e+01	
			         2.45833	-1.30000e+01	
			         2.46000	-1.10000e+01	
			         2.46167	-1.00000e+01	
			         2.46333	-9.00000e+00	
			         2.46500	-9.00000e+00	
			         2.46667	-9.00000e+00	
			         2.46833	-9.00000e+00	
			         2.47000	-1.00000e+01	
			         2.47167	-1.10000e+01	
			         2.47333	-1.10000e+01	
			         2.47500	-1.20000e+01	
			         2.47667	-1.40000e+01	
			         2.47833	-1.50000e+01	
			         2.48000	-1.60000e+01	
			         2.48167	-1.70000e+01	
			         2.48333	-1.80000e+01	
			         2.48500	-1.80000e+01	
			         2.48667	-1.70000e+01	
			         2.48833	-1.60000e+01	
			         2.49000	-1.40000e+01	
			         2.49167	-1.30000e+01	
			         2.49333	-1.10000e+01	
			         2.49500	-1.00000e+01	
			         2.49667	-9.00000e+00	
			         2.49833	-8.00000e+00	
			         2.50000	-7.00000e+00	
			         2.50167	-6.00000e+00	
			         2.50333	-6.00000e+00	
			         2.50500	-6.00000e+00	
			         2.50667	-5.00000e+00	
			         2.50833	-5.00000e+00	
			         2.51000	-5.00000e+00	
			         2.51167	-5.00000e+00	
			         2.51333	-4.00000e+00	
			         2.51500	-4.00000e+00	
			         2.51667	-4.00000e+00	
			         2.51833	-3.00000e+00	
			         2.52000	-3.00000e+00	
			         2.52167	-3.00000e+00	
			         2.52333	-3.00000e+00	
			         2.52500	-3.00000e+00	
			         2.52667	-2.00000e+00	
			         2.52833	-3.00000e+00	
			         2.53000	-3.00000e+00	
			         2.53167	-4.00000e+00	
			         2.53333	-4.00000e+00	
			         2.53500	-4.00000e+00	
			         2.53667	-4.00000e+00	
			         2.53833	-4.00000e+00	
			         2.54000	-4.00000e+00	
			         2.54167	-4.00000e+00	
			         2.54333	-4.00000e+00	
			         2.54500	-4.00000e+00	
			         2.54667	-4.00000e+00	
			         2.54833	-4.00000e+00	
			         2.55000	-4.00000e+00	
			         2.55167	-3.00000e+00	
			         2.55333	-3.00000e+00	
			         2.55500	-2.00000e+00	
			         2.55667	-2.00000e+00	
			         2.55833	-2.00000e+00	
			         2.56000	-1.00000e+00	
			         2.56167	-1.00000e+00	
			         2.56333	-1.00000e+00	
			         2.56500	0.00000e+00	
			         2.56667	0.00000e+00	
			         2.56833	0.00000e+00	
			         2.57000	-1.00000e+00	
			         2.57167	-1.00000e+00	
			         2.57333	-2.00000e+00	
			         2.57500	-3.00000e+00	
			         2.57667	-4.00000e+00	
			         2.57833	-5.00000e+00	
			         2.58000	-6.00000e+00	
			         2.58167	-7.00000e+00	
			         2.58333	-8.00000e+00	
			         2.58500	-8.00000e+00	
			         2.58667	-9.00000e+00	
			         2.58833	-9.00000e+00	
			         2.59000	-9.00000e+00	
			         2.59167	-9.00000e+00	
			         2.59333	-8.00000e+00	
			         2.59500	-7.00000e+00	
			         2.59667	-7.00000e+00	
			         2.59833	-6.00000e+00	
			         2.60000	-6.00000e+00	
			         2.60167	-6.00000e+00	
			         2.60333	-6.00000e+00	
			         2.60500	-7.00000e+00	
			         2.60667	-7.00000e+00	
			         2.60833	-8.00000e+00	
			         2.61000	-8.00000e+00	
			         2.61167	-9.00000e+00	
			         2.61333	-1.00000e+01	
			         2.61500	-1.00000e+01	
			         2.61667	-1.10000e+01	
			         2.61833	-1.10000e+01	
			         2.62000	-1.00000e+01	
			         2.62167	-1.00000e+01	
			         2.62333	-9.00000e+00	
			         2.62500	-7.00000e+00	
			         2.62667	-6.00000e+00	
			         2.62833	-4.00000e+00	
			         2.63000	-3.00000e+00	
			         2.63167	-1.00000e+00	
			         2.63333	0.00000e+00	
			         2.63500	1.00000e+00	
			         2.63667	1.00000e+00	
			         2.63833	2.00000e+00	
			         2.64000	1.00000e+00	
			         2.64167	1.00000e+00	
			         2.64333	0.00000e+00	
			         2.64500	0.00000e+00	
			         2.64667	-1.00000e+00	
			         2.64833	-2.00000e+00	
			         2.65000	-3.00000e+00	
			         2.65167	-4.00000e+00	
			         2.65333	-4.00000e+00	
			         2.65500	-4.00000e+00	
			         2.65667	-4.00000e+00	
			         2.65833	-4.00000e+00	
			         2.66000	-3.00000e+00	
			         2.66167	-2.00000e+00	
			         2.66333	-1.00000e+00	
			         2.66500	-1.00000e+00	
			         2.66667	0.00000e+00	
			         2.66833	0.00000e+00	
			         2.67000	0.00000e+00	
			         2.67167	-1.00000e+00	
			         2.67333	-1.00000e+00	
			         2.67500	-1.00000e+00	
			         2.67667	-2.00000e+00	
			         2.67833	-3.00000e+00	
			         2.68000	-4.00000e+00	
			         2.68167	-6.00000e+00	
			         2.68333	-7.00000e+00	
			         2.68500	-8.00000e+00	
			         2.68667	-9.00000e+00	
			         2.68833	-1.00000e+01	
			         2.69000	-1.10000e+01	
			         2.69167	-1.20000e+01	
			         2.69333	-1.20000e+01	
			         2.69500	-1.20000e+01	
			         2.69667	-1.20000e+01	
			         2.69833	-1.20000e+01	
			         2.70000	-1.10000e+01	
			         2.70167	-1.00000e+01	
			         2.70333	-9.00000e+00	
			         2.70500	-8.00000e+00	
			         2.70667	-7.00000e+00	
			         2.70833	-6.00000e+00	
			         2.71000	-6.00000e+00	
			         2.71167	-5.00000e+00	
			         2.71333	-5.00000e+00	
			         2.71500	-4.00000e+00	
			         2.71667	-4.00000e+00	
			         2.71833	-4.00000e+00	
			         2.72000	-4.00000e+00	
			         2.72167	-3.00000e+00	
			         2.72333	-3.00000e+00	
			         2.72500	-2.00000e+00	
			         2.72667	-1.00000e+00	
			         2.72833	0.00000e+00	
			         2.73000	0.00000e+00	
			         2.73167	1.00000e+00	
			         2.73333	1.00000e+00	
			         2.73500	1.00000e+00	
			         2.73667	1.00000e+00	
			         2.73833	2.00000e+00	
			         2.74000	2.00000e+00	
			         2.74167	3.00000e+00	
			         2.74333	4.00000e+00	
			         2.74500	4.00000e+00	
			         2.74667	5.00000e+00	
			         2.74833	5.00000e+00	
			         2.75000	5.00000e+00	
			         2.75167	5.00000e+00	
			         2.75333	5.00000e+00	
			         2.75500	5.00000e+00	
			         2.75667	5.00000e+00	
			         2.75833	5.00000e+00	
			         2.76000	4.00000e+00	
			         2.76167	3.00000e+00	
			         2.76333	2.00000e+00	
			         2.76500	1.00000e+00	
			         2.76667	1.00000e+00	
			         2.76833	0.00000e+00	
			         2.77000	0.00000e+00	
			         2.77167	0.00000e+00	
			         2.77333	0.00000e+00	
			         2.77500	0.00000e+00	
			         2.77667	0.00000e+00	
			         2.77833	0.00000e+00	
			         2.78000	0.00000e+00	
			         2.78167	0.00000e+00	
			         2.78333	1.00000e+00	
			         2.78500	1.00000e+00	
			         2.78667	2.00000e+00	
			         2.78833	2.00000e+00	
			         2.79000	3.00000e+00	
			         2.79167	5.00000e+00	
			         2.79333	6.00000e+00	
			         2.79500	8.00000e+00	
			         2.79667	9.00000e+00	
			         2.79833	1.10000e+01	
			         2.80000	1.20000e+01	
			         2.80167	1.40000e+01	
			         2.80333	1.60000e+01	
			         2.80500	1.80000e+01	
			         2.80667	2.00000e+01	
			         2.80833	2.20000e+01	
			         2.81000	2.30000e+01	
			         2.81167	2.40000e+01	
			         2.81333	2.50000e+01	
			         2.81500	2.50000e+01	
			         2.81667	2.50000e+01	
			         2.81833	2.50000e+01	
			         2.82000	2.40000e+01	
			         2.82167	2.30000e+01	
			         2.82333	2.10000e+01	
			         2.82500	1.90000e+01	
			         2.82667	1.60000e+01	
			         2.82833	1.30000e+01	
			         2.83000	1.00000e+01	
			         2.83167	8.00000e+00	
			         2.83333	5.00000e+00	
			         2.83500	3.00000e+00	
			         2.83667	1.00000e+00	
			         2.83833	0.00000e+00	
			         2.84000	-2.00000e+00	
			         2.84167	-3.00000e+00	
			         2.84333	-4.00000e+00	
			         2.84500	-4.00000e+00	
			         2.84667	-4.00000e+00	
			         2.84833	-4.00000e+00	
			         2.85000	-4.00000e+00	
			         2.85167	-4.00000e+00	
			         2.85333	-3.00000e+00	
			         2.85500	-3.00000e+00	
			         2.85667	-3.00000e+00	
			         2.85833	-3.00000e+00	
			         2.86000	-3.00000e+00	
			         2.86167	-3.00000e+00	
			         2.86333	-3.00000e+00	
			         2.86500	-4.00000e+00	
			         2.86667	-6.00000e+00	
			         2.86833	-7.00000e+00	
			         2.87000	-8.00000e+00	
			         2.87167	-9.00000e+00	
			         2.87333	-1.00000e+01	
			         2.87500	-1.00000e+01	
			         2.87667	-1.00000e+01	
			         2.87833	-1.10000e+01	
			         2.88000	-1.10000e+01	
			         2.88167	-1.20000e+01	
			         2.88333	-1.20000e+01	
			         2.88500	-1.20000e+01	
			         2.88667	-1.10000e+01	
			         2.88833	-1.10000e+01	
			         2.89000	-1.10000e+01	
			         2.89167	-1.00000e+01	
			         2.89333	-1.00000e+01	
			         2.89500	-1.00000e+01	
			         2.89667	-9.00000e+00	
			         2.89833	-9.00000e+00	
			         2.90000	-9.00000e+00	
			         2.90167	-8.00000e+00	
			         2.90333	-9.00000e+00	
			         2.90500	-9.00000e+00	
			         2.90667	-9.00000e+00	
			         2.90833	-1.00000e+01	
			         2.91000	-1.00000e+01	
			         2.91167	-1.10000e+01	
			         2.91333	-1.10000e+01	
			         2.91500	-1.20000e+01	
			         2.91667	-1.30000e+01	
			         2.91833	-1.30000e+01	
			         2.92000	-1.30000e+01	
			         2.92167	-1.30000e+01	
			         2.92333	-1.20000e+01	
			         2.92500	-1.10000e+01	
			         2.92667	-9.00000e+00	
			         2.92833	-8.00000e+00	
			         2.93000	-7.00000e+00	
			         2.93167	-5.00000e+00	
			         2.93333	-4.00000e+00	
			         2.93500	-3.00000e+00	
			         2.93667	-2.00000e+00	
			         2.93833	-1.00000e+00	
			         2.94000	0.00000e+00	
			         2.94167	1.00000e+00	
			         2.94333	1.00000e+00	
			         2.94500	1.00000e+00	
			         2.94667	1.00000e+00	
			         2.94833	1.00000e+00	
			         2.95000	0.00000e+00	
			         2.95167	0.00000e+00	
			         2.95333	-1.00000e+00	
			         2.95500	-1.00000e+00	
			         2.95667	-1.00000e+00	
			         2.95833	-1.00000e+00	
			         2.96000	-1.00000e+00	
			         2.96167	-1.00000e+00	
			         2.96333	0.00000e+00	
			         2.96500	0.00000e+00	
			         2.96667	1.00000e+00	
			         2.96833	2.00000e+00	
			         2.97000	3.00000e+00	
			         2.97167	5.00000e+00	
			         2.97333	6.00000e+00	
			         2.97500	8.00000e+00	
			         2.97667	1.00000e+01	
			         2.97833	1.20000e+01	
			         2.98000	1.40000e+01	
			         2.98167	1.70000e+01	
			         2.98333	2.10000e+01	
			         2.98500	2.50000e+01	
			         2.98667	3.10000e+01	
			         2.98833	3.90000e+01	
			         2.99000	4.90000e+01	
			         2.99167	6.00000e+01	
			         2.99333	7.30000e+01	
			         2.99500	8.80000e+01	
			         2.99667	1.04000e+02	
			         2.99833	1.21000e+02	
			         3.00000	1.39000e+02	
			         3.00167	1.57000e+02	
			         3.00333	1.76000e+02	
			         3.00500	1.93000e+02	
			         3.00667	2.09000e+02	
			         3.00833	2.22000e+02	
			         3.01000	2.31000e+02	
			         3.01167	2.36000e+02	
			         3.01333	2.36000e+02	
			         3.01500	2.31000e+02	
			         3.01667	2.20000e+02	
			         3.01833	2.05000e+02	
			         3.02000	1.84000e+02	
			         3.02167	1.59000e+02	
			         3.02333	1.30000e+02	
			         3.02500	9.80000e+01	
			         3.02667	6.50000e+01	
			         3.02833	3.00000e+01	
			         3.03000	-3.00000e+00	
			         3.03167	-3.40000e+01	
			         3.03333	-6.20000e+01	
			         3.03500	-8.70000e+01	
			         3.03667	-1.08000e+02	
			         3.03833	-1.24000e+02	
			         3.04000	-1.36000e+02	
			         3.04167	-1.43000e+02	
			         3.04333	-1.47000e+02	
			         3.04500	-1.47000e+02	
			         3.04667	-1.44000e+02	
			         3.04833	-1.38000e+02	
			         3.05000	-1.30000e+02	
			         3.05167	-1.21000e+02	
			         3.05333	-1.11000e+02	
			         3.05500	-1.01000e+02	
			         3.05667	-9.10000e+01	
			         3.05833	-8.10000e+01	
			         3.06000	-7.10000e+01	
			         3.06167	-6.20000e+01	
			         3.06333	-5.40000e+01	
			         3.06500	-4.70000e+01	
			         3.06667	-4.10000e+01	
			         3.06833	-3.60000e+01	
			         3.07000	-3.20000e+01	
			         3.07167	-2.90000e+01	
			         3.07333	-2.70000e+01	
			         3.07500	-2.50000e+01	
			         3.07667	-2.40000e+01	
			         3.07833	-2.30000e+01	
			         3.08000	-2.20000e+01	
