Velocity (TVI), in cm/s

Time (s) :	Trace 1 : 		Ecg : 		
0.00610   	-2.58117e-01		         0.00000	2.80000e+01	
0.01220   	4.72778e-01		         0.00167	5.90000e+01	
0.01831   	9.33373e-01		         0.00333	9.60000e+01	
0.02441   	1.62352e+00		         0.00500	1.39000e+02	
0.03079   	2.40453e+00		         0.00667	1.87000e+02	
0.03689   	2.79381e+00		         0.00833	2.41000e+02	
0.04300   	2.54896e+00		         0.01000	3.00000e+02	
0.04910   	2.01326e+00		         0.01167	3.63000e+02	
0.05548   	1.41359e+00		         0.01333	4.28000e+02	
0.06158   	1.03238e+00		         0.01500	4.94000e+02	
0.06769   	9.74506e-01		         0.01667	5.59000e+02	
0.07379   	1.33388e+00		         0.01833	6.22000e+02	
0.08017   	2.24363e+00		         0.02000	6.79000e+02	
0.08627   	3.26378e+00		         0.02167	7.28000e+02	
0.09238   	3.85283e+00		         0.02333	7.67000e+02	
0.09848   	4.23928e+00		         0.02500	7.93000e+02	
0.10486   	4.60830e+00		         0.02667	8.06000e+02	
0.11096   	4.64066e+00		         0.02833	8.04000e+02	
0.11707   	4.65855e+00		         0.03000	7.86000e+02	
0.12317   	4.83293e+00		         0.03167	7.53000e+02	
0.12955   	5.00689e+00		         0.03333	7.04000e+02	
0.13565   	5.09610e+00		         0.03500	6.41000e+02	
0.14176   	5.08609e+00		         0.03667	5.65000e+02	
0.14786   	5.23878e+00		         0.03833	4.80000e+02	
0.15424   	5.30418e+00		         0.04000	3.89000e+02	
0.16034   	5.30049e+00		         0.04167	2.94000e+02	
0.16644   	5.33661e+00		         0.04333	1.99000e+02	
0.17255   	5.51900e+00		         0.04500	1.08000e+02	
0.17893   	5.52915e+00		         0.04667	2.20000e+01	
0.18503   	5.65177e+00		         0.04833	-5.60000e+01	
0.19114   	5.76006e+00		         0.05000	-1.26000e+02	
0.19724   	5.79117e+00		         0.05167	-1.86000e+02	
0.20383   	5.80960e+00		         0.05333	-2.34000e+02	
0.20972   	5.76210e+00		         0.05500	-2.72000e+02	
0.21583   	5.61302e+00		         0.05667	-3.00000e+02	
0.22193   	5.45345e+00		         0.05833	-3.18000e+02	
0.22831   	5.33389e+00		         0.06000	-3.28000e+02	
0.23441   	5.14791e+00		         0.06167	-3.32000e+02	
0.24052   	5.07518e+00		         0.06333	-3.30000e+02	
0.24662   	4.96583e+00		         0.06500	-3.23000e+02	
0.25300   	4.79304e+00		         0.06667	-3.15000e+02	
0.25910   	4.59534e+00		         0.06833	-3.04000e+02	
0.26521   	4.48000e+00		         0.07000	-2.92000e+02	
0.27131   	4.30649e+00		         0.07167	-2.81000e+02	
0.27769   	4.15318e+00		         0.07333	-2.70000e+02	
0.28380   	4.07766e+00		         0.07500	-2.59000e+02	
0.28990   	3.95261e+00		         0.07667	-2.50000e+02	
0.29600   	3.79767e+00		         0.07833	-2.41000e+02	
0.30238   	3.67692e+00		         0.08000	-2.34000e+02	
0.30848   	3.55221e+00		         0.08167	-2.27000e+02	
0.31459   	3.34595e+00		         0.08333	-2.22000e+02	
0.32069   	3.16392e+00		         0.08500	-2.17000e+02	
0.32707   	3.00432e+00		         0.08667	-2.13000e+02	
0.33317   	2.81254e+00		         0.08833	-2.09000e+02	
0.33928   	2.60450e+00		         0.09000	-2.05000e+02	
0.34538   	2.50178e+00		         0.09167	-2.01000e+02	
0.35176   	2.39272e+00		         0.09333	-1.98000e+02	
0.35786   	2.23189e+00		         0.09500	-1.94000e+02	
0.36397   	2.05071e+00		         0.09667	-1.90000e+02	
0.37008   	1.83406e+00		         0.09833	-1.86000e+02	
0.37644   	1.59050e+00		         0.10000	-1.82000e+02	
0.38255   	1.41746e+00		         0.10167	-1.78000e+02	
0.38866   	1.85040e+00		         0.10333	-1.74000e+02	
0.39476   	1.39764e+00		         0.10500	-1.70000e+02	
0.40114   	1.30373e+00		         0.10667	-1.65000e+02	
0.40724   	9.57033e-01		         0.10833	-1.61000e+02	
0.41335   	5.34516e-01		         0.11000	-1.57000e+02	
0.41983   	-3.93653e-01		         0.11167	-1.53000e+02	
0.42583   	-4.04705e-01		         0.11333	-1.49000e+02	
0.43193   	-6.94962e-01		         0.11500	-1.45000e+02	
0.43804   	-7.27657e-01		         0.11667	-1.41000e+02	
0.44414   	-6.84516e-01		         0.11833	-1.38000e+02	
0.45052   	-6.92381e-01		         0.12000	-1.34000e+02	
0.45662   	-7.16372e-01		         0.12167	-1.31000e+02	
0.46273   	-8.55648e-01		         0.12333	-1.28000e+02	
0.46883   	-1.11208e+00		         0.12500	-1.24000e+02	
0.47521   	-1.51655e+00		         0.12667	-1.21000e+02	
0.48131   	-1.89539e+00		         0.12833	-1.17000e+02	
0.48742   	-2.46558e+00		         0.13000	-1.13000e+02	
0.49352   	-3.15391e+00		         0.13167	-1.10000e+02	
0.49990   	-3.86743e+00		         0.13333	-1.06000e+02	
0.50600   	-4.59611e+00		         0.13500	-1.02000e+02	
0.51211   	-5.39081e+00		         0.13667	-9.80000e+01	
0.51821   	-6.03294e+00		         0.13833	-9.40000e+01	
0.52459   	-6.40400e+00		         0.14000	-9.00000e+01	
0.53069   	-6.60606e+00		         0.14167	-8.60000e+01	
0.53680   	-6.59327e+00		         0.14333	-8.30000e+01	
0.54290   	-6.48231e+00		         0.14500	-7.90000e+01	
0.54928   	-6.18550e+00		         0.14667	-7.50000e+01	
0.55538   	-5.86051e+00		         0.14833	-7.20000e+01	
0.56149   	-5.43636e+00		         0.15000	-6.90000e+01	
0.56759   	-4.98032e+00		         0.15167	-6.60000e+01	
0.57397   	-4.47510e+00		         0.15333	-6.40000e+01	
0.58007   	-3.93903e+00		         0.15500	-6.20000e+01	
0.58618   	-3.42859e+00		         0.15667	-6.00000e+01	
0.59228   	-2.95342e+00		         0.15833	-5.80000e+01	
0.59866   	-2.47294e+00		         0.16000	-5.70000e+01	
0.60476   	-2.06786e+00		         0.16167	-5.60000e+01	
0.61087   	-1.71021e+00		         0.16333	-5.40000e+01	
0.61697   	-1.30832e+00		         0.16500	-5.40000e+01	
0.62335   	-9.40590e-01		         0.16667	-5.30000e+01	
0.62946   	-6.72419e-01		         0.16833	-5.20000e+01	
0.63570   	-3.89472e-01		         0.17000	-5.00000e+01	
0.64167   	-1.99864e-01		         0.17167	-4.90000e+01	
0.64804   	-1.37340e-01		         0.17333	-4.70000e+01	
0.65414   	-1.69676e-01		         0.17500	-4.50000e+01	
0.66025   	-3.25938e-01		         0.17667	-4.20000e+01	
0.66635   	-7.93711e-01		         0.17833	-3.90000e+01	
0.67273   	-1.47652e+00		         0.18000	-3.50000e+01	
0.67883   	-2.47325e+00		         0.18167	-3.00000e+01	
0.68494   	-3.71544e+00		         0.18333	-2.50000e+01	
0.69104   	-5.21567e+00		         0.18500	-2.00000e+01	
0.69742   	-6.56599e+00		         0.18667	-1.40000e+01	
0.70352   	-7.94385e+00		         0.18833	-9.00000e+00	
0.70963   	-9.03777e+00		         0.19000	-4.00000e+00	
0.71573   	-9.88848e+00		         0.19167	1.00000e+00	
0.72211   	-1.04025e+01		         0.19333	5.00000e+00	
0.72821   	-1.04869e+01		         0.19500	1.00000e+01	
0.73432   	-1.01125e+01		         0.19667	1.40000e+01	
0.74043   	-9.25306e+00		         0.19833	1.80000e+01	
0.74680   	-8.07464e+00		         0.20000	2.20000e+01	
0.75290   	-6.76449e+00		         0.20167	2.50000e+01	
0.75901   	-5.60743e+00		         0.20333	2.80000e+01	
0.76511   	-4.42130e+00		         0.20500	3.10000e+01	
0.77149   	-3.38746e+00		         0.20667	3.40000e+01	
0.77759   	-2.51122e+00		         0.20833	3.70000e+01	
0.78370   	-1.68946e+00		         0.21000	4.10000e+01	
0.78981   	-8.79792e-01		         0.21167	4.40000e+01	
0.79618   	-1.72440e-01		         0.21333	4.80000e+01	
0.80228   	4.94652e-01		         0.21500	5.20000e+01	
0.80839   	1.26786e+00		         0.21667	5.50000e+01	
0.81450   	2.07459e+00		         0.21833	5.90000e+01	
0.82087   	2.77353e+00		         0.22000	6.30000e+01	
0.82697   	3.06411e+00		         0.22167	6.80000e+01	
0.83308   	2.85776e+00		         0.22333	7.30000e+01	
0.83919   	2.29053e+00		         0.22500	7.80000e+01	
0.84556   	1.41585e+00		         0.22667	8.40000e+01	
0.85167   	4.25534e-01		         0.22833	9.00000e+01	
0.85777   	1.65924e-01		         0.23000	9.70000e+01	
0.86387   	4.46423e-01		         0.23167	1.04000e+02	
0.87025   	1.17822e+00		         0.23333	1.11000e+02	
0.87636   	2.27465e+00		         0.23500	1.19000e+02	
0.88246   	3.43304e+00		         0.23667	1.27000e+02	
0.88856   	4.17360e+00		         0.23833	1.34000e+02	
0.89494   	4.64350e+00		         0.24000	1.41000e+02	
0.90104   	4.89022e+00		         0.24167	1.48000e+02	
0.90715   	4.98272e+00		         0.24333	1.54000e+02	
0.91326   	5.16466e+00		         0.24500	1.59000e+02	
0.91963   	5.35964e+00		         0.24667	1.63000e+02	
0.92574   	5.50378e+00		         0.24833	1.65000e+02	
0.93184   	5.56683e+00		         0.25000	1.67000e+02	
0.93794   	5.63114e+00		         0.25167	1.68000e+02	
0.94432   	5.59064e+00		         0.25333	1.68000e+02	
0.95042   	5.51772e+00		         0.25500	1.67000e+02	
0.95653   	5.53673e+00		         0.25667	1.65000e+02	
0.96263   	5.57777e+00		         0.25833	1.63000e+02	
0.96901   	5.62193e+00		         0.26000	1.60000e+02	
0.97512   	5.71089e+00		         0.26167	1.58000e+02	
0.98122   	5.74522e+00		         0.26333	1.55000e+02	
0.98732   	5.76025e+00		         0.26500	1.52000e+02	
0.99370   	5.69226e+00		         0.26667	1.50000e+02	
0.99980   	5.58829e+00		         0.26833	1.47000e+02	
1.00591   	5.52664e+00		         0.27000	1.45000e+02	
1.01202   	5.38037e+00		         0.27167	1.42000e+02	
1.01839   	5.20854e+00		         0.27333	1.40000e+02	
1.02450   	5.10799e+00		         0.27500	1.37000e+02	
1.03060   	5.04010e+00		         0.27667	1.35000e+02	
1.03671   	4.88513e+00		         0.27833	1.32000e+02	
1.04308   	4.86170e+00		         0.28000	1.29000e+02	
1.04918   	4.78214e+00		         0.28167	1.25000e+02	
1.05529   	4.59802e+00		         0.28333	1.21000e+02	
1.06140   	4.42365e+00		         0.28500	1.16000e+02	
1.06777   	4.26541e+00		         0.28667	1.11000e+02	
1.07388   	4.11500e+00		         0.28833	1.05000e+02	
1.07998   	3.98723e+00		         0.29000	9.80000e+01	
1.08608   	3.92593e+00		         0.29167	9.10000e+01	
1.09246   	3.79080e+00		         0.29333	8.40000e+01	
1.09856   	3.65378e+00		         0.29500	7.60000e+01	
1.10467   	3.50550e+00		         0.29667	6.70000e+01	
1.11078   	3.32845e+00		         0.29833	5.80000e+01	
1.11715   	3.15967e+00		         0.30000	4.80000e+01	
1.12326   	3.04218e+00		         0.30167	3.80000e+01	
1.12936   	2.90973e+00		         0.30333	2.70000e+01	
1.13547   	2.73648e+00		         0.30500	1.60000e+01	
1.14184   	2.60279e+00		         0.30667	5.00000e+00	
1.14794   	2.43796e+00		         0.30833	-7.00000e+00	
1.15405   	2.23840e+00		         0.31000	-1.80000e+01	
1.16016   	2.01738e+00		         0.31167	-2.90000e+01	
1.16667   	1.73321e+00		         0.31333	-3.90000e+01	
1.17263   	1.37175e+00		         0.31500	-4.90000e+01	
1.17874   	9.44148e-01		         0.31667	-5.80000e+01	
1.18484   	3.58065e-01		         0.31833	-6.70000e+01	
1.19122   	-3.38148e-01		         0.32000	-7.40000e+01	
1.19732   	-8.93789e-01		         0.32167	-8.10000e+01	
1.20343   	-1.19216e+00		         0.32333	-8.70000e+01	
1.20954   	-1.35104e+00		         0.32500	-9.20000e+01	
1.21591   	-1.30789e+00		         0.32667	-9.60000e+01	
1.22202   	-1.05963e+00		         0.32833	-1.00000e+02	
1.22812   	-8.05824e-01		         0.33000	-1.03000e+02	
1.23423   	-6.41155e-01		         0.33167	-1.06000e+02	
1.24060   	-5.77984e-01		         0.33333	-1.09000e+02	
1.24671   	-4.36820e-01		         0.33500	-1.11000e+02	
1.25281   	-4.29368e-01		         0.33667	-1.13000e+02	
1.25892   	-5.00281e-01		         0.33833	-1.14000e+02	
1.26529   	-7.56808e-01		         0.34000	-1.16000e+02	
1.27140   	-1.08291e+00		         0.34167	-1.17000e+02	
1.27750   	-1.58115e+00		         0.34333	-1.18000e+02	
1.28360   	-2.13033e+00		         0.34500	-1.19000e+02	
1.28998   	-2.85071e+00		         0.34667	-1.19000e+02	
1.29609   	-3.64776e+00		         0.34833	-1.20000e+02	
1.30219   	-4.44001e+00		         0.35000	-1.19000e+02	
1.30830   	-5.16592e+00		         0.35167	-1.19000e+02	
1.31467   	-5.72745e+00		         0.35333	-1.19000e+02	
1.32078   	-6.12037e+00		         0.35500	-1.18000e+02	
1.32688   	-6.33657e+00		         0.35667	-1.18000e+02	
1.33308   	-6.40978e+00		         0.35833	-1.17000e+02	
1.33936   	-6.37375e+00		         0.36000	-1.16000e+02	
1.34546   	-6.26450e+00		         0.36167	-1.15000e+02	
1.35157   	-6.08502e+00		         0.36333	-1.14000e+02	
1.35768   	-5.73968e+00		         0.36500	-1.13000e+02	
1.36405   	-5.28158e+00		         0.36667	-1.11000e+02	
1.37016   	-4.77077e+00		         0.36833	-1.09000e+02	
1.37626   	-4.28217e+00		         0.37000	-1.08000e+02	
1.38237   	-3.73983e+00		         0.37167	-1.06000e+02	
1.38874   	-3.24434e+00		         0.37333	-1.03000e+02	
1.39485   	-2.77257e+00		         0.37500	-1.01000e+02	
1.40095   	-2.37875e+00		         0.37667	-9.80000e+01	
1.40706   	-1.95640e+00		         0.37833	-9.50000e+01	
1.41343   	-1.57135e+00		         0.38000	-9.20000e+01	
1.41954   	-1.17963e+00		         0.38167	-8.90000e+01	
1.42564   	-8.54773e-01		         0.38333	-8.60000e+01	
1.43174   	-5.56532e-01		         0.38500	-8.30000e+01	
1.43813   	-3.15672e-01		         0.38667	-8.10000e+01	
1.44422   	-1.22370e-01		         0.38833	-7.80000e+01	
1.45033   	-7.26465e-02		         0.39000	-7.70000e+01	
1.45644   	-1.61693e-01		         0.39167	-7.50000e+01	
1.46281   	-5.00667e-01		         0.39333	-7.40000e+01	
1.46892   	-1.20097e+00		         0.39500	-7.30000e+01	
1.47502   	-2.35733e+00		         0.39667	-7.20000e+01	
1.48112   	-3.85199e+00		         0.39833	-7.10000e+01	
1.48750   	-5.44788e+00		         0.40000	-7.00000e+01	
1.49361   	-7.10440e+00		         0.40167	-6.90000e+01	
1.49971   	-8.75739e+00		         0.40333	-6.90000e+01	
1.50582   	-1.00020e+01		         0.40500	-6.80000e+01	
1.51219   	-1.08738e+01		         0.40667	-6.70000e+01	
1.51830   	-1.14168e+01		         0.40833	-6.60000e+01	
1.52440   	-1.14207e+01		         0.41000	-6.50000e+01	
1.53051   	-1.07968e+01		         0.41167	-6.40000e+01	
1.53688   	-9.86363e+00		         0.41333	-6.30000e+01	
1.54299   	-8.38845e+00		         0.41500	-6.20000e+01	
1.54909   	-6.75136e+00		         0.41667	-6.00000e+01	
1.55520   	-5.34765e+00		         0.41833	-5.90000e+01	
1.56157   	-4.12984e+00		         0.42000	-5.70000e+01	
1.56768   	-2.93338e+00		         0.42167	-5.60000e+01	
1.57378   	-2.23487e+00		         0.42333	-5.40000e+01	
1.57989   	-1.63621e+00		         0.42500	-5.20000e+01	
1.58627   	-9.77149e-01		         0.42667	-5.00000e+01	
1.59237   	-2.31576e-01		         0.42833	-4.80000e+01	
1.59872   	5.38079e-01		         0.43000	-4.60000e+01	
1.60458   	1.47270e+00		         0.43167	-4.40000e+01	
1.61095   	2.23340e+00		         0.43333	-4.20000e+01	
1.61706   	2.96161e+00		         0.43500	-4.00000e+01	
1.62316   	3.32847e+00		         0.43667	-3.90000e+01	
1.62927   	3.13563e+00		         0.43833	-3.80000e+01	
1.63564   	2.29277e+00		         0.44000	-3.70000e+01	
1.64175   	1.10162e+00		         0.44167	-3.60000e+01	
1.64785   	4.45796e-01		         0.44333	-3.60000e+01	
1.65396   	1.52704e-01		         0.44500	-3.60000e+01	
1.66033   	3.18639e-01		         0.44667	-3.60000e+01	
1.66644   	1.26829e+00		         0.44833	-3.60000e+01	
1.67254   	2.79094e+00		         0.45000	-3.60000e+01	
1.67865   	3.69597e+00		         0.45167	-3.60000e+01	
1.68502   	4.41292e+00		         0.45333	-3.60000e+01	
1.69113   	4.98905e+00		         0.45500	-3.60000e+01	
1.69723   	5.20922e+00		         0.45667	-3.50000e+01	
1.70334   	5.35585e+00		         0.45833	-3.50000e+01	
1.70971   	5.56118e+00		         0.46000	-3.40000e+01	
1.71582   	5.81470e+00		         0.46167	-3.30000e+01	
1.72192   	6.02276e+00		         0.46333	-3.20000e+01	
1.72803   	6.20255e+00		         0.46500	-3.10000e+01	
1.73440   	6.25737e+00		         0.46667	-2.90000e+01	
1.74051   	6.21527e+00		         0.46833	-2.80000e+01	
1.74661   	6.13779e+00		         0.47000	-2.60000e+01	
1.75272   	6.06754e+00		         0.47167	-2.40000e+01	
1.75909   	6.06537e+00		         0.47333	-2.20000e+01	
1.76520   	6.04492e+00		         0.47500	-2.00000e+01	
1.77130   	6.09196e+00		         0.47667	-1.80000e+01	
1.77741   	6.13129e+00		         0.47833	-1.60000e+01	
1.78378   	6.13931e+00		         0.48000	-1.40000e+01	
1.78989   	6.08723e+00		         0.48167	-1.30000e+01	
1.79599   	6.04660e+00		         0.48333	-1.20000e+01	
1.80210   	5.93718e+00		         0.48500	-1.10000e+01	
1.80847   	5.77638e+00		         0.48667	-1.10000e+01	
1.81479   	5.67844e+00		         0.48833	-1.10000e+01	
1.82068   	5.61909e+00		         0.49000	-1.20000e+01	
1.82679   	5.59418e+00		         0.49167	-1.20000e+01	
1.83316   	5.57476e+00		         0.49333	-1.30000e+01	
1.83927   	5.48936e+00		         0.49500	-1.40000e+01	
1.84537   	5.39573e+00		         0.49667	-1.50000e+01	
1.85148   	5.23783e+00		         0.49833	-1.60000e+01	
1.85786   	5.05632e+00		         0.50000	-1.70000e+01	
1.86396   	4.90349e+00		         0.50167	-1.70000e+01	
1.87006   	4.83229e+00		         0.50333	-1.70000e+01	
1.87617   	4.67138e+00		         0.50500	-1.60000e+01	
1.88254   	4.50862e+00		         0.50667	-1.50000e+01	
1.88865   	4.30368e+00		         0.50833	-1.40000e+01	
1.89475   	4.11874e+00		         0.51000	-1.20000e+01	
1.90086   	3.93456e+00		         0.51167	-1.10000e+01	
1.90724   	3.75754e+00		         0.51333	-8.00000e+00	
1.91334   	3.58558e+00		         0.51500	-6.00000e+00	
1.91944   	3.37739e+00		         0.51667	-4.00000e+00	
1.92555   	3.20349e+00		         0.51833	-2.00000e+00	
1.93192   	2.94696e+00		         0.52000	-1.00000e+00	
1.93803   	2.74349e+00		         0.52167	0.00000e+00	
1.94413   	2.54350e+00		         0.52333	1.00000e+00	
1.95024   	2.33699e+00		         0.52500	1.00000e+00	
1.95662   	2.00609e+00		         0.52667	0.00000e+00	
1.96272   	1.71038e+00		         0.52833	0.00000e+00	
1.96882   	1.29714e+00		         0.53000	-1.00000e+00	
1.97493   	7.91530e-01		         0.53167	-3.00000e+00	
1.98130   	1.26211e-01		         0.53333	-4.00000e+00	
1.98741   	-4.45186e-01		         0.53500	-6.00000e+00	
1.99351   	-1.06663e+00		         0.53667	-8.00000e+00	
1.99962   	-1.41963e+00		         0.53833	-9.00000e+00	
2.00600   	-1.61805e+00		         0.54000	-1.10000e+01	
2.01210   	-1.47180e+00		         0.54167	-1.20000e+01	
2.01821   	-1.29212e+00		         0.54333	-1.20000e+01	
2.02431   	-9.65803e-01		         0.54500	-1.20000e+01	
2.03068   	-6.76899e-01		         0.54667	-1.20000e+01	
2.03679   	-5.44445e-01		         0.54833	-1.20000e+01	
2.04289   	-5.83197e-01		         0.55000	-1.20000e+01	
2.04900   	-7.99714e-01		         0.55167	-1.10000e+01	
2.05538   	-1.09270e+00		         0.55333	-1.00000e+01	
2.06148   	-1.48313e+00		         0.55500	-8.00000e+00	
2.06759   	-1.89061e+00		         0.55667	-7.00000e+00	
2.07369   	-2.32086e+00		         0.55833	-5.00000e+00	
2.08006   	-2.87458e+00		         0.56000	-4.00000e+00	
2.08617   	-3.50727e+00		         0.56167	-2.00000e+00	
2.09227   	-4.35658e+00		         0.56333	-1.00000e+00	
2.09838   	-5.07874e+00		         0.56500	1.00000e+00	
2.10476   	-5.92868e+00		         0.56667	2.00000e+00	
2.11086   	-6.54126e+00		         0.56833	2.00000e+00	
2.11697   	-7.00253e+00		         0.57000	3.00000e+00	
2.12307   	-7.19154e+00		         0.57167	3.00000e+00	
2.12970   	-7.26151e+00		         0.57333	2.00000e+00	
2.13555   	-7.09375e+00		         0.57500	1.00000e+00	
2.14166   	-6.74122e+00		         0.57667	0.00000e+00	
2.14776   	-6.28505e+00		         0.57833	-2.00000e+00	
2.15414   	-5.81916e+00		         0.58000	-5.00000e+00	
2.16024   	-5.28749e+00		         0.58167	-7.00000e+00	
2.16634   	-4.64111e+00		         0.58333	-9.00000e+00	
2.17246   	-4.04928e+00		         0.58500	-1.10000e+01	
2.17882   	-3.48282e+00		         0.58667	-1.30000e+01	
2.18493   	-2.87514e+00		         0.58833	-1.40000e+01	
2.19104   	-2.32869e+00		         0.59000	-1.40000e+01	
2.19714   	-1.88570e+00		         0.59167	-1.40000e+01	
2.20352   	-1.49715e+00		         0.59333	-1.40000e+01	
2.20962   	-1.15781e+00		         0.59500	-1.30000e+01	
2.21572   	-9.20480e-01		         0.59667	-1.20000e+01	
2.22183   	-7.47174e-01		         0.59833	-1.00000e+01	
2.22820   	-6.02843e-01		         0.60000	-8.00000e+00	
2.23431   	-4.64336e-01		         0.60167	-6.00000e+00	
2.24042   	-3.79619e-01		         0.60333	-3.00000e+00	
2.24652   	-2.92261e-01		         0.60500	-1.00000e+00	
2.25290   	-2.65047e-01		         0.60667	2.00000e+00	
2.25900   	-3.67237e-01		         0.60833	5.00000e+00	
2.26510   	-6.92816e-01		         0.61000	8.00000e+00	
2.27121   	-1.34262e+00		         0.61167	1.10000e+01	
2.27758   	-2.33582e+00		         0.61333	1.50000e+01	
2.28369   	-3.66353e+00		         0.61500	1.80000e+01	
2.28980   	-5.21397e+00		         0.61667	2.10000e+01	
2.29590   	-6.82399e+00		         0.61833	2.50000e+01	
2.30228   	-8.33854e+00		         0.62000	2.80000e+01	
2.30838   	-9.71236e+00		         0.62167	3.20000e+01	
2.31449   	-1.07592e+01		         0.62333	3.50000e+01	
2.32059   	-1.13682e+01		         0.62500	3.80000e+01	
2.32697   	-1.15762e+01		         0.62667	4.10000e+01	
2.33307   	-1.12015e+01		         0.62833	4.40000e+01	
2.33918   	-1.03601e+01		         0.63000	4.70000e+01	
2.34528   	-8.99384e+00		         0.63167	5.00000e+01	
2.35166   	-7.42672e+00		         0.63333	5.30000e+01	
2.35776   	-5.76521e+00		         0.63500	5.50000e+01	
2.36386   	-4.46754e+00		         0.63667	5.70000e+01	
2.36997   	-3.36921e+00		         0.63833	6.00000e+01	
2.37635   	-2.50486e+00		         0.64000	6.20000e+01	
2.38245   	-2.00207e+00		         0.64167	6.30000e+01	
2.38855   	-1.55680e+00		         0.64333	6.50000e+01	
2.39466   	-8.23068e-01		         0.64500	6.60000e+01	
2.40104   	3.66871e-02		         0.64667	6.70000e+01	
2.40714   	8.18002e-01		         0.64833	6.80000e+01	
2.41325   	1.83111e+00		         0.65000	6.90000e+01	
2.41935   	2.71679e+00		         0.65167	6.90000e+01	
2.42573   	3.17335e+00		         0.65333	7.00000e+01	
2.43183   	3.46716e+00		         0.65500	7.00000e+01	
2.43794   	3.68222e+00		         0.65667	6.90000e+01	
			         0.65833	6.90000e+01	
			         0.66000	6.80000e+01	
			         0.66167	6.70000e+01	
			         0.66333	6.60000e+01	
			         0.66500	6.50000e+01	
			         0.66667	6.40000e+01	
			         0.66833	6.20000e+01	
			         0.67000	6.00000e+01	
			         0.67167	5.80000e+01	
			         0.67333	5.60000e+01	
			         0.67500	5.30000e+01	
			         0.67667	5.00000e+01	
			         0.67833	4.70000e+01	
			         0.68000	4.30000e+01	
			         0.68167	3.90000e+01	
			         0.68333	3.50000e+01	
			         0.68500	3.00000e+01	
			         0.68667	2.50000e+01	
			         0.68833	1.90000e+01	
			         0.69000	1.40000e+01	
			         0.69167	7.00000e+00	
			         0.69333	1.00000e+00	
			         0.69500	-6.00000e+00	
			         0.69667	-1.30000e+01	
			         0.69833	-2.00000e+01	
			         0.70000	-2.70000e+01	
			         0.70167	-3.40000e+01	
			         0.70333	-4.10000e+01	
			         0.70500	-4.80000e+01	
			         0.70667	-5.50000e+01	
			         0.70833	-6.20000e+01	
			         0.71000	-6.80000e+01	
			         0.71167	-7.40000e+01	
			         0.71333	-8.00000e+01	
			         0.71500	-8.50000e+01	
			         0.71667	-8.90000e+01	
			         0.71833	-9.30000e+01	
			         0.72000	-9.60000e+01	
			         0.72167	-9.90000e+01	
			         0.72333	-1.01000e+02	
			         0.72500	-1.03000e+02	
			         0.72667	-1.04000e+02	
			         0.72833	-1.04000e+02	
			         0.73000	-1.03000e+02	
			         0.73167	-1.02000e+02	
			         0.73333	-1.01000e+02	
			         0.73500	-1.00000e+02	
			         0.73667	-9.80000e+01	
			         0.73833	-9.60000e+01	
			         0.74000	-9.40000e+01	
			         0.74167	-9.10000e+01	
			         0.74333	-8.90000e+01	
			         0.74500	-8.60000e+01	
			         0.74667	-8.40000e+01	
			         0.74833	-8.20000e+01	
			         0.75000	-8.10000e+01	
			         0.75167	-7.90000e+01	
			         0.75333	-7.80000e+01	
			         0.75500	-7.70000e+01	
			         0.75667	-7.50000e+01	
			         0.75833	-7.40000e+01	
			         0.76000	-7.20000e+01	
			         0.76167	-7.10000e+01	
			         0.76333	-6.90000e+01	
			         0.76500	-6.80000e+01	
			         0.76667	-6.60000e+01	
			         0.76833	-6.50000e+01	
			         0.77000	-6.30000e+01	
			         0.77167	-6.20000e+01	
			         0.77333	-6.10000e+01	
			         0.77500	-6.00000e+01	
			         0.77667	-5.90000e+01	
			         0.77833	-5.90000e+01	
			         0.78000	-5.90000e+01	
			         0.78167	-5.70000e+01	
			         0.78333	-5.50000e+01	
			         0.78500	-5.10000e+01	
			         0.78667	-4.50000e+01	
			         0.78833	-3.50000e+01	
			         0.79000	-2.10000e+01	
			         0.79167	-4.00000e+00	
			         0.79333	1.90000e+01	
			         0.79500	4.70000e+01	
			         0.79667	8.00000e+01	
			         0.79833	1.19000e+02	
			         0.80000	1.63000e+02	
			         0.80167	2.13000e+02	
			         0.80333	2.67000e+02	
			         0.80500	3.25000e+02	
			         0.80667	3.86000e+02	
			         0.80833	4.48000e+02	
			         0.81000	5.11000e+02	
			         0.81167	5.71000e+02	
			         0.81333	6.28000e+02	
			         0.81500	6.78000e+02	
			         0.81667	7.20000e+02	
			         0.81833	7.50000e+02	
			         0.82000	7.68000e+02	
			         0.82167	7.71000e+02	
			         0.82333	7.60000e+02	
			         0.82500	7.34000e+02	
			         0.82667	6.93000e+02	
			         0.82833	6.38000e+02	
			         0.83000	5.70000e+02	
			         0.83167	4.92000e+02	
			         0.83333	4.06000e+02	
			         0.83500	3.16000e+02	
			         0.83667	2.25000e+02	
			         0.83833	1.36000e+02	
			         0.84000	5.20000e+01	
			         0.84167	-2.60000e+01	
			         0.84333	-9.60000e+01	
			         0.84500	-1.57000e+02	
			         0.84667	-2.07000e+02	
			         0.84833	-2.47000e+02	
			         0.85000	-2.76000e+02	
			         0.85167	-2.96000e+02	
			         0.85333	-3.08000e+02	
			         0.85500	-3.13000e+02	
			         0.85667	-3.13000e+02	
			         0.85833	-3.08000e+02	
			         0.86000	-3.01000e+02	
			         0.86167	-2.91000e+02	
			         0.86333	-2.81000e+02	
			         0.86500	-2.71000e+02	
			         0.86667	-2.61000e+02	
			         0.86833	-2.51000e+02	
			         0.87000	-2.43000e+02	
			         0.87167	-2.35000e+02	
			         0.87333	-2.28000e+02	
			         0.87500	-2.23000e+02	
			         0.87667	-2.18000e+02	
			         0.87833	-2.13000e+02	
			         0.88000	-2.09000e+02	
			         0.88167	-2.05000e+02	
			         0.88333	-2.01000e+02	
			         0.88500	-1.97000e+02	
			         0.88667	-1.94000e+02	
			         0.88833	-1.90000e+02	
			         0.89000	-1.86000e+02	
			         0.89167	-1.82000e+02	
			         0.89333	-1.79000e+02	
			         0.89500	-1.75000e+02	
			         0.89667	-1.71000e+02	
			         0.89833	-1.67000e+02	
			         0.90000	-1.63000e+02	
			         0.90167	-1.59000e+02	
			         0.90333	-1.55000e+02	
			         0.90500	-1.51000e+02	
			         0.90667	-1.47000e+02	
			         0.90833	-1.43000e+02	
			         0.91000	-1.39000e+02	
			         0.91167	-1.36000e+02	
			         0.91333	-1.32000e+02	
			         0.91500	-1.28000e+02	
			         0.91667	-1.25000e+02	
			         0.91833	-1.21000e+02	
			         0.92000	-1.18000e+02	
			         0.92167	-1.14000e+02	
			         0.92333	-1.11000e+02	
			         0.92500	-1.07000e+02	
			         0.92667	-1.03000e+02	
			         0.92833	-9.90000e+01	
			         0.93000	-9.50000e+01	
			         0.93167	-9.10000e+01	
			         0.93333	-8.80000e+01	
			         0.93500	-8.40000e+01	
			         0.93667	-8.00000e+01	
			         0.93833	-7.60000e+01	
			         0.94000	-7.20000e+01	
			         0.94167	-6.90000e+01	
			         0.94333	-6.60000e+01	
			         0.94500	-6.30000e+01	
			         0.94667	-6.00000e+01	
			         0.94833	-5.80000e+01	
			         0.95000	-5.60000e+01	
			         0.95167	-5.40000e+01	
			         0.95333	-5.20000e+01	
			         0.95500	-5.10000e+01	
			         0.95667	-5.00000e+01	
			         0.95833	-4.80000e+01	
			         0.96000	-4.70000e+01	
			         0.96167	-4.60000e+01	
			         0.96333	-4.40000e+01	
			         0.96500	-4.20000e+01	
			         0.96667	-4.00000e+01	
			         0.96833	-3.80000e+01	
			         0.97000	-3.50000e+01	
			         0.97167	-3.30000e+01	
			         0.97333	-3.00000e+01	
			         0.97500	-2.70000e+01	
			         0.97667	-2.40000e+01	
			         0.97833	-2.00000e+01	
			         0.98000	-1.70000e+01	
			         0.98167	-1.40000e+01	
			         0.98333	-1.00000e+01	
			         0.98500	-7.00000e+00	
			         0.98667	-3.00000e+00	
			         0.98833	1.00000e+00	
			         0.99000	4.00000e+00	
			         0.99167	8.00000e+00	
			         0.99333	1.20000e+01	
			         0.99500	1.60000e+01	
			         0.99667	2.00000e+01	
			         0.99833	2.40000e+01	
			         1.00000	2.90000e+01	
			         1.00167	3.30000e+01	
			         1.00333	3.80000e+01	
			         1.00500	4.30000e+01	
			         1.00667	4.80000e+01	
			         1.00833	5.30000e+01	
			         1.01000	5.90000e+01	
			         1.01167	6.40000e+01	
			         1.01333	7.00000e+01	
			         1.01500	7.60000e+01	
			         1.01667	8.20000e+01	
			         1.01833	8.70000e+01	
			         1.02000	9.30000e+01	
			         1.02167	9.90000e+01	
			         1.02333	1.04000e+02	
			         1.02500	1.10000e+02	
			         1.02667	1.15000e+02	
			         1.02833	1.20000e+02	
			         1.03000	1.25000e+02	
			         1.03167	1.30000e+02	
			         1.03333	1.35000e+02	
			         1.03500	1.39000e+02	
			         1.03667	1.43000e+02	
			         1.03833	1.46000e+02	
			         1.04000	1.50000e+02	
			         1.04167	1.53000e+02	
			         1.04333	1.55000e+02	
			         1.04500	1.58000e+02	
			         1.04667	1.59000e+02	
			         1.04833	1.61000e+02	
			         1.05000	1.62000e+02	
			         1.05167	1.63000e+02	
			         1.05333	1.63000e+02	
			         1.05500	1.63000e+02	
			         1.05667	1.62000e+02	
			         1.05833	1.61000e+02	
			         1.06000	1.60000e+02	
			         1.06167	1.58000e+02	
			         1.06333	1.56000e+02	
			         1.06500	1.53000e+02	
			         1.06667	1.51000e+02	
			         1.06833	1.47000e+02	
			         1.07000	1.44000e+02	
			         1.07167	1.40000e+02	
			         1.07333	1.36000e+02	
			         1.07500	1.32000e+02	
			         1.07667	1.27000e+02	
			         1.07833	1.22000e+02	
			         1.08000	1.16000e+02	
			         1.08167	1.09000e+02	
			         1.08333	1.02000e+02	
			         1.08500	9.40000e+01	
			         1.08667	8.60000e+01	
			         1.08833	7.70000e+01	
			         1.09000	6.80000e+01	
			         1.09167	5.90000e+01	
			         1.09333	4.90000e+01	
			         1.09500	3.90000e+01	
			         1.09667	2.90000e+01	
			         1.09833	2.00000e+01	
			         1.10000	1.10000e+01	
			         1.10167	2.00000e+00	
			         1.10333	-7.00000e+00	
			         1.10500	-1.50000e+01	
			         1.10667	-2.30000e+01	
			         1.10833	-3.10000e+01	
			         1.11000	-3.80000e+01	
			         1.11167	-4.50000e+01	
			         1.11333	-5.10000e+01	
			         1.11500	-5.80000e+01	
			         1.11667	-6.40000e+01	
			         1.11833	-7.00000e+01	
			         1.12000	-7.50000e+01	
			         1.12167	-8.10000e+01	
			         1.12333	-8.60000e+01	
			         1.12500	-9.10000e+01	
			         1.12667	-9.50000e+01	
			         1.12833	-9.90000e+01	
			         1.13000	-1.03000e+02	
			         1.13167	-1.06000e+02	
			         1.13333	-1.09000e+02	
			         1.13500	-1.11000e+02	
			         1.13667	-1.13000e+02	
			         1.13833	-1.15000e+02	
			         1.14000	-1.16000e+02	
			         1.14167	-1.16000e+02	
			         1.14333	-1.16000e+02	
			         1.14500	-1.16000e+02	
			         1.14667	-1.15000e+02	
			         1.14833	-1.14000e+02	
			         1.15000	-1.13000e+02	
			         1.15167	-1.11000e+02	
			         1.15333	-1.09000e+02	
			         1.15500	-1.07000e+02	
			         1.15667	-1.05000e+02	
			         1.15833	-1.03000e+02	
			         1.16000	-1.00000e+02	
			         1.16167	-9.80000e+01	
			         1.16333	-9.50000e+01	
			         1.16500	-9.20000e+01	
			         1.16667	-9.00000e+01	
			         1.16833	-8.70000e+01	
			         1.17000	-8.50000e+01	
			         1.17167	-8.30000e+01	
			         1.17333	-8.10000e+01	
			         1.17500	-7.90000e+01	
			         1.17667	-7.70000e+01	
			         1.17833	-7.60000e+01	
			         1.18000	-7.50000e+01	
			         1.18167	-7.40000e+01	
			         1.18333	-7.30000e+01	
			         1.18500	-7.20000e+01	
			         1.18667	-7.20000e+01	
			         1.18833	-7.10000e+01	
			         1.19000	-7.10000e+01	
			         1.19167	-7.00000e+01	
			         1.19333	-6.90000e+01	
			         1.19500	-6.80000e+01	
			         1.19667	-6.70000e+01	
			         1.19833	-6.50000e+01	
			         1.20000	-6.30000e+01	
			         1.20167	-6.00000e+01	
			         1.20333	-5.80000e+01	
			         1.20500	-5.50000e+01	
			         1.20667	-5.20000e+01	
			         1.20833	-5.00000e+01	
			         1.21000	-4.70000e+01	
			         1.21167	-4.50000e+01	
			         1.21333	-4.30000e+01	
			         1.21500	-4.20000e+01	
			         1.21667	-4.00000e+01	
			         1.21833	-3.90000e+01	
			         1.22000	-3.70000e+01	
			         1.22167	-3.60000e+01	
			         1.22333	-3.50000e+01	
			         1.22500	-3.50000e+01	
			         1.22667	-3.40000e+01	
			         1.22833	-3.30000e+01	
			         1.23000	-3.20000e+01	
			         1.23167	-3.20000e+01	
			         1.23333	-3.10000e+01	
			         1.23500	-3.00000e+01	
			         1.23667	-3.00000e+01	
			         1.23833	-2.90000e+01	
			         1.24000	-2.80000e+01	
			         1.24167	-2.80000e+01	
			         1.24333	-2.70000e+01	
			         1.24500	-2.70000e+01	
			         1.24667	-2.60000e+01	
			         1.24833	-2.60000e+01	
			         1.25000	-2.50000e+01	
			         1.25167	-2.40000e+01	
			         1.25333	-2.30000e+01	
			         1.25500	-2.30000e+01	
			         1.25667	-2.20000e+01	
			         1.25833	-2.10000e+01	
			         1.26000	-2.00000e+01	
			         1.26167	-1.90000e+01	
			         1.26333	-1.80000e+01	
			         1.26500	-1.70000e+01	
			         1.26667	-1.60000e+01	
			         1.26833	-1.40000e+01	
			         1.27000	-1.30000e+01	
			         1.27167	-1.20000e+01	
			         1.27333	-1.00000e+01	
			         1.27500	-9.00000e+00	
			         1.27667	-8.00000e+00	
			         1.27833	-7.00000e+00	
			         1.28000	-7.00000e+00	
			         1.28167	-6.00000e+00	
			         1.28333	-6.00000e+00	
			         1.28500	-6.00000e+00	
			         1.28667	-6.00000e+00	
			         1.28833	-6.00000e+00	
			         1.29000	-6.00000e+00	
			         1.29167	-6.00000e+00	
			         1.29333	-6.00000e+00	
			         1.29500	-6.00000e+00	
			         1.29667	-5.00000e+00	
			         1.29833	-4.00000e+00	
			         1.30000	-2.00000e+00	
			         1.30167	0.00000e+00	
			         1.30333	2.00000e+00	
			         1.30500	4.00000e+00	
			         1.30667	7.00000e+00	
			         1.30833	9.00000e+00	
			         1.31000	1.00000e+01	
			         1.31167	1.10000e+01	
			         1.31333	1.10000e+01	
			         1.31500	1.10000e+01	
			         1.31667	1.10000e+01	
			         1.31833	1.00000e+01	
			         1.32000	9.00000e+00	
			         1.32167	7.00000e+00	
			         1.32333	5.00000e+00	
			         1.32500	3.00000e+00	
			         1.32667	2.00000e+00	
			         1.32833	0.00000e+00	
			         1.33000	-1.00000e+00	
			         1.33167	-1.00000e+00	
			         1.33333	-2.00000e+00	
			         1.33500	-2.00000e+00	
			         1.33667	-2.00000e+00	
			         1.33833	-2.00000e+00	
			         1.34000	-2.00000e+00	
			         1.34167	-2.00000e+00	
			         1.34333	-2.00000e+00	
			         1.34500	-2.00000e+00	
			         1.34667	-2.00000e+00	
			         1.34833	-2.00000e+00	
			         1.35000	-3.00000e+00	
			         1.35167	-3.00000e+00	
			         1.35333	-4.00000e+00	
			         1.35500	-4.00000e+00	
			         1.35667	-4.00000e+00	
			         1.35833	-5.00000e+00	
			         1.36000	-5.00000e+00	
			         1.36167	-6.00000e+00	
			         1.36333	-6.00000e+00	
			         1.36500	-7.00000e+00	
			         1.36667	-8.00000e+00	
			         1.36833	-8.00000e+00	
			         1.37000	-9.00000e+00	
			         1.37167	-9.00000e+00	
			         1.37333	-8.00000e+00	
			         1.37500	-8.00000e+00	
			         1.37667	-7.00000e+00	
			         1.37833	-7.00000e+00	
			         1.38000	-6.00000e+00	
			         1.38167	-5.00000e+00	
			         1.38333	-3.00000e+00	
			         1.38500	-2.00000e+00	
			         1.38667	-1.00000e+00	
			         1.38833	1.00000e+00	
			         1.39000	2.00000e+00	
			         1.39167	3.00000e+00	
			         1.39333	4.00000e+00	
			         1.39500	5.00000e+00	
			         1.39667	6.00000e+00	
			         1.39833	7.00000e+00	
			         1.40000	8.00000e+00	
			         1.40167	9.00000e+00	
			         1.40333	1.00000e+01	
			         1.40500	1.20000e+01	
			         1.40667	1.30000e+01	
			         1.40833	1.50000e+01	
			         1.41000	1.70000e+01	
			         1.41167	1.90000e+01	
			         1.41333	2.20000e+01	
			         1.41500	2.50000e+01	
			         1.41667	2.70000e+01	
			         1.41833	3.00000e+01	
			         1.42000	3.30000e+01	
			         1.42167	3.60000e+01	
			         1.42333	4.00000e+01	
			         1.42500	4.30000e+01	
			         1.42667	4.70000e+01	
			         1.42833	5.00000e+01	
			         1.43000	5.30000e+01	
			         1.43167	5.60000e+01	
			         1.43333	5.90000e+01	
			         1.43500	6.10000e+01	
			         1.43667	6.30000e+01	
			         1.43833	6.50000e+01	
			         1.44000	6.60000e+01	
			         1.44167	6.60000e+01	
			         1.44333	6.60000e+01	
			         1.44500	6.60000e+01	
			         1.44667	6.60000e+01	
			         1.44833	6.60000e+01	
			         1.45000	6.60000e+01	
			         1.45167	6.50000e+01	
			         1.45333	6.50000e+01	
			         1.45500	6.50000e+01	
			         1.45667	6.60000e+01	
			         1.45833	6.60000e+01	
			         1.46000	6.60000e+01	
			         1.46167	6.60000e+01	
			         1.46333	6.70000e+01	
			         1.46500	6.60000e+01	
			         1.46667	6.60000e+01	
			         1.46833	6.50000e+01	
			         1.47000	6.30000e+01	
			         1.47167	6.20000e+01	
			         1.47333	5.90000e+01	
			         1.47500	5.60000e+01	
			         1.47667	5.20000e+01	
			         1.47833	4.80000e+01	
			         1.48000	4.40000e+01	
			         1.48167	3.90000e+01	
			         1.48333	3.30000e+01	
			         1.48500	2.70000e+01	
			         1.48667	2.00000e+01	
			         1.48833	1.30000e+01	
			         1.49000	5.00000e+00	
			         1.49167	-3.00000e+00	
			         1.49333	-1.10000e+01	
			         1.49500	-1.90000e+01	
			         1.49667	-2.80000e+01	
			         1.49833	-3.60000e+01	
			         1.50000	-4.40000e+01	
			         1.50167	-5.20000e+01	
			         1.50333	-5.90000e+01	
			         1.50500	-6.50000e+01	
			         1.50667	-7.10000e+01	
			         1.50833	-7.70000e+01	
			         1.51000	-8.10000e+01	
			         1.51167	-8.50000e+01	
			         1.51333	-8.80000e+01	
			         1.51500	-9.00000e+01	
			         1.51667	-9.10000e+01	
			         1.51833	-9.20000e+01	
			         1.52000	-9.20000e+01	
			         1.52167	-9.20000e+01	
			         1.52333	-9.10000e+01	
			         1.52500	-9.00000e+01	
			         1.52667	-8.90000e+01	
			         1.52833	-8.80000e+01	
			         1.53000	-8.70000e+01	
			         1.53167	-8.50000e+01	
			         1.53333	-8.40000e+01	
			         1.53500	-8.20000e+01	
			         1.53667	-8.10000e+01	
			         1.53833	-7.90000e+01	
			         1.54000	-7.80000e+01	
			         1.54167	-7.70000e+01	
			         1.54333	-7.50000e+01	
			         1.54500	-7.30000e+01	
			         1.54667	-7.10000e+01	
			         1.54833	-6.90000e+01	
			         1.55000	-6.80000e+01	
			         1.55167	-6.60000e+01	
			         1.55333	-6.40000e+01	
			         1.55500	-6.20000e+01	
			         1.55667	-6.00000e+01	
			         1.55833	-5.80000e+01	
			         1.56000	-5.60000e+01	
			         1.56167	-5.40000e+01	
			         1.56333	-5.20000e+01	
			         1.56500	-5.10000e+01	
			         1.56667	-5.00000e+01	
			         1.56833	-4.90000e+01	
			         1.57000	-4.80000e+01	
			         1.57167	-4.70000e+01	
			         1.57333	-4.70000e+01	
			         1.57500	-4.70000e+01	
			         1.57667	-4.60000e+01	
			         1.57833	-4.50000e+01	
			         1.58000	-4.20000e+01	
			         1.58167	-3.70000e+01	
			         1.58333	-2.90000e+01	
			         1.58500	-1.80000e+01	
			         1.58667	-4.00000e+00	
			         1.58833	1.50000e+01	
			         1.59000	3.90000e+01	
			         1.59167	6.80000e+01	
			         1.59333	1.02000e+02	
			         1.59500	1.42000e+02	
			         1.59667	1.87000e+02	
			         1.59833	2.37000e+02	
			         1.60000	2.91000e+02	
			         1.60167	3.49000e+02	
			         1.60333	4.08000e+02	
			         1.60500	4.69000e+02	
			         1.60667	5.28000e+02	
			         1.60833	5.85000e+02	
			         1.61000	6.38000e+02	
			         1.61167	6.83000e+02	
			         1.61333	7.18000e+02	
			         1.61500	7.42000e+02	
			         1.61667	7.53000e+02	
			         1.61833	7.51000e+02	
			         1.62000	7.34000e+02	
			         1.62167	7.04000e+02	
			         1.62333	6.59000e+02	
			         1.62500	6.02000e+02	
			         1.62667	5.33000e+02	
			         1.62833	4.56000e+02	
			         1.63000	3.72000e+02	
			         1.63167	2.86000e+02	
			         1.63333	1.99000e+02	
			         1.63500	1.16000e+02	
			         1.63667	3.70000e+01	
			         1.63833	-3.40000e+01	
			         1.64000	-9.80000e+01	
			         1.64167	-1.53000e+02	
			         1.64333	-1.98000e+02	
			         1.64500	-2.33000e+02	
			         1.64667	-2.59000e+02	
			         1.64833	-2.76000e+02	
			         1.65000	-2.87000e+02	
			         1.65167	-2.90000e+02	
			         1.65333	-2.89000e+02	
			         1.65500	-2.85000e+02	
			         1.65667	-2.77000e+02	
			         1.65833	-2.68000e+02	
			         1.66000	-2.58000e+02	
			         1.66167	-2.48000e+02	
			         1.66333	-2.38000e+02	
			         1.66500	-2.29000e+02	
			         1.66667	-2.21000e+02	
			         1.66833	-2.14000e+02	
			         1.67000	-2.08000e+02	
			         1.67167	-2.03000e+02	
			         1.67333	-1.98000e+02	
			         1.67500	-1.94000e+02	
			         1.67667	-1.91000e+02	
			         1.67833	-1.88000e+02	
			         1.68000	-1.84000e+02	
			         1.68167	-1.81000e+02	
			         1.68333	-1.78000e+02	
			         1.68500	-1.74000e+02	
			         1.68667	-1.70000e+02	
			         1.68833	-1.66000e+02	
			         1.69000	-1.62000e+02	
			         1.69167	-1.57000e+02	
			         1.69333	-1.52000e+02	
			         1.69500	-1.48000e+02	
			         1.69667	-1.43000e+02	
			         1.69833	-1.39000e+02	
			         1.70000	-1.35000e+02	
			         1.70167	-1.31000e+02	
			         1.70333	-1.27000e+02	
			         1.70500	-1.24000e+02	
			         1.70667	-1.20000e+02	
			         1.70833	-1.17000e+02	
			         1.71000	-1.14000e+02	
			         1.71167	-1.11000e+02	
			         1.71333	-1.08000e+02	
			         1.71500	-1.05000e+02	
			         1.71667	-1.02000e+02	
			         1.71833	-9.90000e+01	
			         1.72000	-9.60000e+01	
			         1.72167	-9.20000e+01	
			         1.72333	-8.90000e+01	
			         1.72500	-8.50000e+01	
			         1.72667	-8.20000e+01	
			         1.72833	-7.80000e+01	
			         1.73000	-7.50000e+01	
			         1.73167	-7.20000e+01	
			         1.73333	-6.90000e+01	
			         1.73500	-6.60000e+01	
			         1.73667	-6.40000e+01	
			         1.73833	-6.10000e+01	
			         1.74000	-5.80000e+01	
			         1.74167	-5.60000e+01	
			         1.74333	-5.30000e+01	
			         1.74500	-5.10000e+01	
			         1.74667	-4.90000e+01	
			         1.74833	-4.70000e+01	
			         1.75000	-4.50000e+01	
			         1.75167	-4.20000e+01	
			         1.75333	-4.00000e+01	
			         1.75500	-3.80000e+01	
			         1.75667	-3.60000e+01	
			         1.75833	-3.40000e+01	
			         1.76000	-3.20000e+01	
			         1.76167	-3.00000e+01	
			         1.76333	-2.80000e+01	
			         1.76500	-2.50000e+01	
			         1.76667	-2.30000e+01	
			         1.76833	-2.10000e+01	
			         1.77000	-1.80000e+01	
			         1.77167	-1.60000e+01	
			         1.77333	-1.30000e+01	
			         1.77500	-1.00000e+01	
			         1.77667	-7.00000e+00	
			         1.77833	-4.00000e+00	
			         1.78000	-1.00000e+00	
			         1.78167	2.00000e+00	
			         1.78333	6.00000e+00	
			         1.78500	1.00000e+01	
			         1.78667	1.40000e+01	
			         1.78833	1.80000e+01	
			         1.79000	2.20000e+01	
			         1.79167	2.70000e+01	
			         1.79333	3.10000e+01	
			         1.79500	3.60000e+01	
			         1.79667	4.00000e+01	
			         1.79833	4.40000e+01	
			         1.80000	4.80000e+01	
			         1.80167	5.20000e+01	
			         1.80333	5.60000e+01	
			         1.80500	6.00000e+01	
			         1.80667	6.40000e+01	
			         1.80833	6.90000e+01	
			         1.81000	7.30000e+01	
			         1.81167	7.80000e+01	
			         1.81333	8.30000e+01	
			         1.81500	8.90000e+01	
			         1.81667	9.50000e+01	
			         1.81833	1.01000e+02	
			         1.82000	1.07000e+02	
			         1.82167	1.13000e+02	
			         1.82333	1.19000e+02	
			         1.82500	1.25000e+02	
			         1.82667	1.30000e+02	
			         1.82833	1.35000e+02	
			         1.83000	1.39000e+02	
			         1.83167	1.43000e+02	
			         1.83333	1.47000e+02	
			         1.83500	1.50000e+02	
			         1.83667	1.52000e+02	
			         1.83833	1.54000e+02	
			         1.84000	1.56000e+02	
			         1.84167	1.58000e+02	
			         1.84333	1.59000e+02	
			         1.84500	1.60000e+02	
			         1.84667	1.61000e+02	
			         1.84833	1.62000e+02	
			         1.85000	1.62000e+02	
			         1.85167	1.63000e+02	
			         1.85333	1.63000e+02	
			         1.85500	1.62000e+02	
			         1.85667	1.62000e+02	
			         1.85833	1.60000e+02	
			         1.86000	1.58000e+02	
			         1.86167	1.56000e+02	
			         1.86333	1.53000e+02	
			         1.86500	1.50000e+02	
			         1.86667	1.46000e+02	
			         1.86833	1.42000e+02	
			         1.87000	1.37000e+02	
			         1.87167	1.31000e+02	
			         1.87333	1.25000e+02	
			         1.87500	1.18000e+02	
			         1.87667	1.11000e+02	
			         1.87833	1.04000e+02	
			         1.88000	9.70000e+01	
			         1.88167	8.90000e+01	
			         1.88333	8.10000e+01	
			         1.88500	7.30000e+01	
			         1.88667	6.40000e+01	
			         1.88833	5.60000e+01	
			         1.89000	4.70000e+01	
			         1.89167	3.90000e+01	
			         1.89333	3.00000e+01	
			         1.89500	2.10000e+01	
			         1.89667	1.20000e+01	
			         1.89833	2.00000e+00	
			         1.90000	-7.00000e+00	
			         1.90167	-1.60000e+01	
			         1.90333	-2.50000e+01	
			         1.90500	-3.30000e+01	
			         1.90667	-4.10000e+01	
			         1.90833	-4.90000e+01	
			         1.91000	-5.60000e+01	
			         1.91167	-6.30000e+01	
			         1.91333	-6.90000e+01	
			         1.91500	-7.50000e+01	
			         1.91667	-8.00000e+01	
			         1.91833	-8.50000e+01	
			         1.92000	-8.90000e+01	
			         1.92167	-9.30000e+01	
			         1.92333	-9.60000e+01	
			         1.92500	-9.90000e+01	
			         1.92667	-1.01000e+02	
			         1.92833	-1.03000e+02	
			         1.93000	-1.05000e+02	
			         1.93167	-1.06000e+02	
			         1.93333	-1.08000e+02	
			         1.93500	-1.08000e+02	
			         1.93667	-1.09000e+02	
			         1.93833	-1.09000e+02	
			         1.94000	-1.09000e+02	
			         1.94167	-1.09000e+02	
			         1.94333	-1.09000e+02	
			         1.94500	-1.08000e+02	
			         1.94667	-1.07000e+02	
			         1.94833	-1.06000e+02	
			         1.95000	-1.05000e+02	
			         1.95167	-1.04000e+02	
			         1.95333	-1.02000e+02	
			         1.95500	-9.90000e+01	
			         1.95667	-9.70000e+01	
			         1.95833	-9.40000e+01	
			         1.96000	-9.10000e+01	
			         1.96167	-8.80000e+01	
			         1.96333	-8.50000e+01	
			         1.96500	-8.20000e+01	
			         1.96667	-7.90000e+01	
			         1.96833	-7.60000e+01	
			         1.97000	-7.30000e+01	
			         1.97167	-7.10000e+01	
			         1.97333	-6.80000e+01	
			         1.97500	-6.60000e+01	
			         1.97667	-6.50000e+01	
			         1.97833	-6.30000e+01	
			         1.98000	-6.20000e+01	
			         1.98167	-6.20000e+01	
			         1.98333	-6.10000e+01	
			         1.98500	-6.10000e+01	
			         1.98667	-6.00000e+01	
			         1.98833	-5.90000e+01	
			         1.99000	-5.80000e+01	
			         1.99167	-5.70000e+01	
			         1.99333	-5.60000e+01	
			         1.99500	-5.40000e+01	
			         1.99667	-5.10000e+01	
			         1.99833	-4.90000e+01	
			         2.00000	-4.60000e+01	
			         2.00167	-4.30000e+01	
			         2.00333	-4.10000e+01	
			         2.00500	-3.80000e+01	
			         2.00667	-3.60000e+01	
			         2.00833	-3.50000e+01	
			         2.01000	-3.30000e+01	
			         2.01167	-3.30000e+01	
			         2.01333	-3.20000e+01	
			         2.01500	-3.20000e+01	
			         2.01667	-3.20000e+01	
			         2.01833	-3.30000e+01	
			         2.02000	-3.30000e+01	
			         2.02167	-3.40000e+01	
			         2.02333	-3.40000e+01	
			         2.02500	-3.40000e+01	
			         2.02667	-3.40000e+01	
			         2.02833	-3.30000e+01	
			         2.03000	-3.30000e+01	
			         2.03167	-3.10000e+01	
			         2.03333	-3.00000e+01	
			         2.03500	-2.80000e+01	
			         2.03667	-2.60000e+01	
			         2.03833	-2.40000e+01	
			         2.04000	-2.10000e+01	
			         2.04167	-1.80000e+01	
			         2.04333	-1.60000e+01	
			         2.04500	-1.30000e+01	
			         2.04667	-1.10000e+01	
			         2.04833	-1.00000e+01	
			         2.05000	-8.00000e+00	
			         2.05167	-7.00000e+00	
			         2.05333	-7.00000e+00	
			         2.05500	-6.00000e+00	
			         2.05667	-6.00000e+00	
			         2.05833	-5.00000e+00	
			         2.06000	-5.00000e+00	
			         2.06167	-5.00000e+00	
			         2.06333	-5.00000e+00	
			         2.06500	-4.00000e+00	
			         2.06667	-4.00000e+00	
			         2.06833	-3.00000e+00	
			         2.07000	-2.00000e+00	
			         2.07167	0.00000e+00	
			         2.07333	1.00000e+00	
			         2.07500	2.00000e+00	
			         2.07667	3.00000e+00	
			         2.07833	4.00000e+00	
			         2.08000	4.00000e+00	
			         2.08167	5.00000e+00	
			         2.08333	5.00000e+00	
			         2.08500	6.00000e+00	
			         2.08667	6.00000e+00	
			         2.08833	6.00000e+00	
			         2.09000	6.00000e+00	
			         2.09167	6.00000e+00	
			         2.09333	7.00000e+00	
			         2.09500	7.00000e+00	
			         2.09667	7.00000e+00	
			         2.09833	8.00000e+00	
			         2.10000	8.00000e+00	
			         2.10167	9.00000e+00	
			         2.10333	9.00000e+00	
			         2.10500	1.00000e+01	
			         2.10667	1.00000e+01	
			         2.10833	1.00000e+01	
			         2.11000	1.00000e+01	
			         2.11167	1.00000e+01	
			         2.11333	1.00000e+01	
			         2.11500	9.00000e+00	
			         2.11667	8.00000e+00	
			         2.11833	8.00000e+00	
			         2.12000	7.00000e+00	
			         2.12167	6.00000e+00	
			         2.12333	5.00000e+00	
			         2.12500	5.00000e+00	
			         2.12667	5.00000e+00	
			         2.12833	5.00000e+00	
			         2.13000	5.00000e+00	
			         2.13167	5.00000e+00	
			         2.13333	5.00000e+00	
			         2.13500	6.00000e+00	
			         2.13667	6.00000e+00	
			         2.13833	7.00000e+00	
			         2.14000	8.00000e+00	
			         2.14167	8.00000e+00	
			         2.14333	9.00000e+00	
			         2.14500	9.00000e+00	
			         2.14667	8.00000e+00	
			         2.14833	8.00000e+00	
			         2.15000	7.00000e+00	
			         2.15167	5.00000e+00	
			         2.15333	4.00000e+00	
			         2.15500	3.00000e+00	
			         2.15667	1.00000e+00	
			         2.15833	-1.00000e+00	
			         2.16000	-2.00000e+00	
			         2.16167	-4.00000e+00	
			         2.16333	-5.00000e+00	
			         2.16500	-6.00000e+00	
			         2.16667	-6.00000e+00	
			         2.16833	-6.00000e+00	
			         2.17000	-6.00000e+00	
			         2.17167	-5.00000e+00	
			         2.17333	-4.00000e+00	
			         2.17500	-3.00000e+00	
			         2.17667	-2.00000e+00	
			         2.17833	-1.00000e+00	
			         2.18000	0.00000e+00	
			         2.18167	2.00000e+00	
			         2.18333	2.00000e+00	
			         2.18500	3.00000e+00	
			         2.18667	3.00000e+00	
			         2.18833	3.00000e+00	
			         2.19000	3.00000e+00	
			         2.19167	2.00000e+00	
			         2.19333	2.00000e+00	
			         2.19500	2.00000e+00	
			         2.19667	3.00000e+00	
			         2.19833	3.00000e+00	
			         2.20000	4.00000e+00	
			         2.20167	5.00000e+00	
			         2.20333	7.00000e+00	
			         2.20500	9.00000e+00	
			         2.20667	1.10000e+01	
			         2.20833	1.40000e+01	
			         2.21000	1.80000e+01	
			         2.21167	2.10000e+01	
			         2.21333	2.50000e+01	
			         2.21500	2.80000e+01	
			         2.21667	3.20000e+01	
			         2.21833	3.50000e+01	
			         2.22000	3.80000e+01	
			         2.22167	4.10000e+01	
			         2.22333	4.40000e+01	
			         2.22500	4.60000e+01	
			         2.22667	4.80000e+01	
			         2.22833	5.00000e+01	
			         2.23000	5.20000e+01	
			         2.23167	5.30000e+01	
			         2.23333	5.50000e+01	
			         2.23500	5.60000e+01	
			         2.23667	5.80000e+01	
			         2.23833	6.00000e+01	
			         2.24000	6.20000e+01	
			         2.24167	6.30000e+01	
			         2.24333	6.50000e+01	
			         2.24500	6.60000e+01	
			         2.24667	6.80000e+01	
			         2.24833	7.00000e+01	
			         2.25000	7.10000e+01	
			         2.25167	7.20000e+01	
			         2.25333	7.30000e+01	
			         2.25500	7.40000e+01	
			         2.25667	7.40000e+01	
			         2.25833	7.50000e+01	
			         2.26000	7.50000e+01	
			         2.26167	7.50000e+01	
			         2.26333	7.40000e+01	
			         2.26500	7.30000e+01	
			         2.26667	7.20000e+01	
			         2.26833	7.10000e+01	
			         2.27000	6.90000e+01	
			         2.27167	6.70000e+01	
			         2.27333	6.40000e+01	
			         2.27500	6.00000e+01	
			         2.27667	5.60000e+01	
			         2.27833	5.20000e+01	
			         2.28000	4.70000e+01	
			         2.28167	4.20000e+01	
			         2.28333	3.60000e+01	
			         2.28500	3.10000e+01	
			         2.28667	2.50000e+01	
			         2.28833	1.90000e+01	
			         2.29000	1.30000e+01	
			         2.29167	8.00000e+00	
			         2.29333	2.00000e+00	
			         2.29500	-4.00000e+00	
			         2.29667	-1.00000e+01	
			         2.29833	-1.60000e+01	
			         2.30000	-2.20000e+01	
			         2.30167	-2.80000e+01	
			         2.30333	-3.50000e+01	
			         2.30500	-4.10000e+01	
			         2.30667	-4.80000e+01	
			         2.30833	-5.40000e+01	
			         2.31000	-6.00000e+01	
			         2.31167	-6.60000e+01	
			         2.31333	-7.20000e+01	
			         2.31500	-7.60000e+01	
			         2.31667	-8.10000e+01	
			         2.31833	-8.40000e+01	
			         2.32000	-8.60000e+01	
			         2.32167	-8.80000e+01	
			         2.32333	-8.90000e+01	
			         2.32500	-8.80000e+01	
			         2.32667	-8.80000e+01	
			         2.32833	-8.70000e+01	
			         2.33000	-8.60000e+01	
			         2.33167	-8.40000e+01	
			         2.33333	-8.30000e+01	
			         2.33500	-8.10000e+01	
			         2.33667	-8.00000e+01	
			         2.33833	-7.90000e+01	
			         2.34000	-7.70000e+01	
			         2.34167	-7.70000e+01	
			         2.34333	-7.60000e+01	
			         2.34500	-7.50000e+01	
			         2.34667	-7.40000e+01	
			         2.34833	-7.30000e+01	
			         2.35000	-7.20000e+01	
			         2.35167	-7.10000e+01	
			         2.35333	-7.00000e+01	
			         2.35500	-6.80000e+01	
			         2.35667	-6.70000e+01	
			         2.35833	-6.50000e+01	
			         2.36000	-6.40000e+01	
			         2.36167	-6.30000e+01	
			         2.36333	-6.20000e+01	
			         2.36500	-6.10000e+01	
			         2.36667	-6.00000e+01	
			         2.36833	-6.00000e+01	
			         2.37000	-5.90000e+01	
			         2.37167	-5.90000e+01	
			         2.37333	-5.90000e+01	
			         2.37500	-5.90000e+01	
			         2.37667	-5.90000e+01	
			         2.37833	-5.80000e+01	
			         2.38000	-5.70000e+01	
			         2.38167	-5.50000e+01	
			         2.38333	-5.10000e+01	
			         2.38500	-4.50000e+01	
			         2.38667	-3.60000e+01	
			         2.38833	-2.30000e+01	
			         2.39000	-7.00000e+00	
			         2.39167	1.30000e+01	
			         2.39333	3.80000e+01	
			         2.39500	6.80000e+01	
			         2.39667	1.03000e+02	
			         2.39833	1.44000e+02	
			         2.40000	1.89000e+02	
			         2.40167	2.40000e+02	
			         2.40333	2.95000e+02	
			         2.40500	3.53000e+02	
			         2.40667	4.13000e+02	
			         2.40833	4.73000e+02	
			         2.41000	5.32000e+02	
			         2.41167	5.88000e+02	
			         2.41333	6.39000e+02	
			         2.41500	6.82000e+02	
			         2.41667	7.15000e+02	
			         2.41833	7.37000e+02	
			         2.42000	7.45000e+02	
			         2.42167	7.41000e+02	
			         2.42333	7.22000e+02	
			         2.42500	6.89000e+02	
			         2.42667	6.43000e+02	
			         2.42833	5.85000e+02	
			         2.43000	5.17000e+02	
			         2.43167	4.40000e+02	
			         2.43333	3.58000e+02	
			         2.43500	2.74000e+02	
			         2.43667	1.91000e+02	
			         2.43833	1.11000e+02	
			         2.44000	3.50000e+01	
			         2.44167	-3.40000e+01	
			         2.44333	-9.50000e+01	
			         2.44500	-1.48000e+02	
			         2.44667	-1.92000e+02	
			         2.44833	-2.28000e+02	
			         2.45000	-2.54000e+02	
			         2.45167	-2.74000e+02	
			         2.45333	-2.86000e+02	
			         2.45500	-2.92000e+02	
			         2.45667	-2.94000e+02	
			         2.45833	-2.92000e+02	
			         2.46000	-2.87000e+02	
			         2.46167	-2.81000e+02	
			         2.46333	-2.73000e+02	
			         2.46500	-2.65000e+02	
			         2.46667	-2.56000e+02	
			         2.46833	-2.48000e+02	
			         2.47000	-2.39000e+02	
			         2.47167	-2.32000e+02	
