Velocity (TVI), in cm/s

Time (s) :	Trace 1 : 		Ecg : 		
0.01773   	-9.59962e-02		         0.00000	9.10000e+01	
0.02383   	7.08078e-02		         0.00167	1.15000e+02	
0.03021   	4.08552e-01		         0.00333	1.40000e+02	
0.03631   	9.86451e-01		         0.00500	1.68000e+02	
0.04242   	1.45289e+00		         0.00667	1.97000e+02	
0.04852   	1.46912e+00		         0.00833	2.27000e+02	
0.05490   	1.02880e+00		         0.01000	2.56000e+02	
0.06100   	5.61707e-01		         0.01167	2.84000e+02	
0.06710   	4.85977e-01		         0.01333	3.09000e+02	
0.07321   	5.22856e-01		         0.01500	3.29000e+02	
0.07958   	7.10233e-01		         0.01667	3.43000e+02	
0.08569   	1.18284e+00		         0.01833	3.50000e+02	
0.09179   	2.01130e+00		         0.02000	3.49000e+02	
0.09789   	2.88527e+00		         0.02167	3.40000e+02	
0.10427   	3.47660e+00		         0.02333	3.24000e+02	
0.11037   	3.90611e+00		         0.02500	3.00000e+02	
0.11648   	4.06989e+00		         0.02667	2.69000e+02	
0.12258   	4.17434e+00		         0.02833	2.32000e+02	
0.12896   	4.03947e+00		         0.03000	1.91000e+02	
0.13506   	3.95888e+00		         0.03167	1.48000e+02	
0.14117   	3.75444e+00		         0.03333	1.04000e+02	
0.14727   	3.66532e+00		         0.03500	6.10000e+01	
0.15365   	3.50406e+00		         0.03667	2.00000e+01	
0.15975   	3.35202e+00		         0.03833	-1.80000e+01	
0.16585   	3.21788e+00		         0.04000	-5.10000e+01	
0.17196   	2.94143e+00		         0.04167	-8.00000e+01	
0.17833   	2.93115e+00		         0.04333	-1.03000e+02	
0.18444   	2.86085e+00		         0.04500	-1.21000e+02	
0.19055   	3.10028e+00		         0.04667	-1.34000e+02	
0.19669   	3.22224e+00		         0.04833	-1.43000e+02	
0.20302   	3.33445e+00		         0.05000	-1.48000e+02	
0.20912   	3.34901e+00		         0.05167	-1.50000e+02	
0.21523   	3.19806e+00		         0.05333	-1.50000e+02	
0.22133   	3.23915e+00		         0.05500	-1.48000e+02	
0.22771   	3.33544e+00		         0.05667	-1.45000e+02	
0.23381   	3.53594e+00		         0.05833	-1.40000e+02	
0.23992   	3.50939e+00		         0.06000	-1.35000e+02	
0.24602   	3.33499e+00		         0.06167	-1.29000e+02	
0.25240   	3.27585e+00		         0.06333	-1.23000e+02	
0.25850   	3.12686e+00		         0.06500	-1.16000e+02	
0.26460   	3.09836e+00		         0.06667	-1.09000e+02	
0.27071   	2.83591e+00		         0.06833	-1.02000e+02	
0.27708   	2.80849e+00		         0.07000	-9.50000e+01	
0.28319   	2.56844e+00		         0.07167	-8.80000e+01	
0.28929   	2.54239e+00		         0.07333	-8.20000e+01	
0.29539   	2.38986e+00		         0.07500	-7.60000e+01	
0.30177   	2.41495e+00		         0.07667	-7.10000e+01	
0.30787   	2.35998e+00		         0.07833	-6.70000e+01	
0.31398   	2.35967e+00		         0.08000	-6.40000e+01	
0.32008   	2.31300e+00		         0.08167	-6.10000e+01	
0.32646   	2.22184e+00		         0.08333	-5.90000e+01	
0.33256   	2.10658e+00		         0.08500	-5.70000e+01	
0.33867   	1.87780e+00		         0.08667	-5.60000e+01	
0.34477   	1.66128e+00		         0.08833	-5.60000e+01	
0.35115   	1.49497e+00		         0.09000	-5.50000e+01	
0.35725   	1.49007e+00		         0.09167	-5.60000e+01	
0.36335   	1.39490e+00		         0.09333	-5.60000e+01	
0.36946   	1.26559e+00		         0.09500	-5.60000e+01	
0.37583   	1.07609e+00		         0.09667	-5.60000e+01	
0.38194   	8.69856e-01		         0.09833	-5.60000e+01	
0.38804   	6.66060e-01		         0.10000	-5.60000e+01	
0.39415   	3.85294e-01		         0.10167	-5.50000e+01	
0.40053   	1.16187e-01		         0.10333	-5.50000e+01	
0.40662   	-2.36403e-01		         0.10500	-5.40000e+01	
0.41273   	-7.57535e-01		         0.10667	-5.30000e+01	
0.41883   	-1.30561e+00		         0.10833	-5.20000e+01	
0.42521   	-1.24446e+00		         0.11000	-5.00000e+01	
0.43131   	-8.90114e-01		         0.11167	-4.90000e+01	
0.43742   	-4.46961e-01		         0.11333	-4.70000e+01	
0.44352   	-5.67878e-01		         0.11500	-4.50000e+01	
0.44990   	-7.24331e-01		         0.11667	-4.30000e+01	
0.45600   	-5.93505e-01		         0.11833	-4.10000e+01	
0.46226   	-4.99774e-01		         0.12000	-3.90000e+01	
0.46821   	-4.28202e-01		         0.12167	-3.80000e+01	
0.47458   	-6.35086e-01		         0.12333	-3.60000e+01	
0.48069   	-8.14391e-01		         0.12500	-3.40000e+01	
0.48679   	-6.08053e-01		         0.12667	-3.30000e+01	
0.49289   	-6.91111e-01		         0.12833	-3.10000e+01	
0.49927   	-6.93517e-01		         0.13000	-3.00000e+01	
0.50537   	-1.25292e+00		         0.13167	-2.90000e+01	
0.51148   	-1.28156e+00		         0.13333	-2.80000e+01	
0.51758   	-1.56115e+00		         0.13500	-2.80000e+01	
0.52396   	-1.72427e+00		         0.13667	-2.70000e+01	
0.53006   	-2.32350e+00		         0.13833	-2.70000e+01	
0.53617   	-2.88225e+00		         0.14000	-2.60000e+01	
0.54227   	-3.51474e+00		         0.14167	-2.60000e+01	
0.54864   	-3.97892e+00		         0.14333	-2.60000e+01	
0.55475   	-4.42720e+00		         0.14500	-2.60000e+01	
0.56085   	-4.88465e+00		         0.14667	-2.50000e+01	
0.56696   	-5.24479e+00		         0.14833	-2.50000e+01	
0.57333   	-5.35710e+00		         0.15000	-2.40000e+01	
0.57944   	-5.08081e+00		         0.15167	-2.30000e+01	
0.58554   	-4.92467e+00		         0.15333	-2.10000e+01	
0.59165   	-4.74497e+00		         0.15500	-2.00000e+01	
0.59802   	-4.49229e+00		         0.15667	-1.90000e+01	
0.60412   	-4.07385e+00		         0.15833	-1.70000e+01	
0.61023   	-3.55835e+00		         0.16000	-1.60000e+01	
0.61633   	-3.22047e+00		         0.16167	-1.50000e+01	
0.62271   	-2.78651e+00		         0.16333	-1.40000e+01	
0.62881   	-2.30606e+00		         0.16500	-1.30000e+01	
0.63492   	-1.93749e+00		         0.16667	-1.20000e+01	
0.64102   	-1.62906e+00		         0.16833	-1.20000e+01	
0.64739   	-1.46111e+00		         0.17000	-1.20000e+01	
0.65350   	-1.18053e+00		         0.17167	-1.20000e+01	
0.65960   	-1.01477e+00		         0.17333	-1.20000e+01	
0.66571   	-9.71153e-01		         0.17500	-1.20000e+01	
0.67208   	-9.41930e-01		         0.17667	-1.20000e+01	
0.67819   	-9.09702e-01		         0.17833	-1.20000e+01	
0.68429   	-8.28440e-01		         0.18000	-1.20000e+01	
0.69040   	-7.72048e-01		         0.18167	-1.10000e+01	
0.69677   	-7.27756e-01		         0.18333	-1.10000e+01	
0.70287   	-6.58197e-01		         0.18500	-1.00000e+01	
0.70898   	-6.90891e-01		         0.18667	-9.00000e+00	
0.71508   	-6.49852e-01		         0.18833	-8.00000e+00	
0.72146   	-6.02831e-01		         0.19000	-6.00000e+00	
0.72756   	-4.58948e-01		         0.19167	-4.00000e+00	
0.73367   	-3.90107e-01		         0.19333	-2.00000e+00	
0.73977   	-3.27167e-01		         0.19500	0.00000e+00	
0.74615   	-2.74541e-01		         0.19667	2.00000e+00	
0.75225   	-1.95073e-01		         0.19833	4.00000e+00	
0.75835   	-1.67586e-01		         0.20000	6.00000e+00	
0.76446   	-1.50931e-01		         0.20167	7.00000e+00	
0.77083   	-1.96525e-01		         0.20333	9.00000e+00	
0.77693   	-2.14537e-01		         0.20500	1.00000e+01	
0.78304   	-2.39842e-01		         0.20667	1.10000e+01	
0.78915   	-2.63946e-01		         0.20833	1.10000e+01	
0.79552   	-3.03077e-01		         0.21000	1.20000e+01	
0.80162   	-3.56433e-01		         0.21167	1.20000e+01	
0.80773   	-3.70193e-01		         0.21333	1.10000e+01	
0.81383   	-3.91391e-01		         0.21500	1.10000e+01	
0.82021   	-4.12892e-01		         0.21667	1.10000e+01	
0.82631   	-4.40886e-01		         0.21833	1.10000e+01	
0.83242   	-4.58569e-01		         0.22000	1.10000e+01	
0.83852   	-4.50066e-01		         0.22167	1.10000e+01	
0.84489   	-4.39523e-01		         0.22333	1.10000e+01	
0.85100   	-4.14034e-01		         0.22500	1.20000e+01	
0.85710   	-3.96481e-01		         0.22667	1.20000e+01	
0.86321   	-3.85783e-01		         0.22833	1.40000e+01	
0.86958   	-3.38487e-01		         0.23000	1.50000e+01	
0.87569   	-2.82701e-01		         0.23167	1.70000e+01	
0.88179   	-2.33299e-01		         0.23333	1.90000e+01	
0.88790   	-3.21388e-01		         0.23500	2.10000e+01	
0.89427   	-5.09662e-01		         0.23667	2.20000e+01	
0.90037   	-1.03981e+00		         0.23833	2.40000e+01	
0.90648   	-1.86484e+00		         0.24000	2.60000e+01	
0.91258   	-3.13024e+00		         0.24167	2.70000e+01	
0.91896   	-4.49250e+00		         0.24333	2.90000e+01	
0.92506   	-5.57924e+00		         0.24500	3.00000e+01	
0.93117   	-6.29508e+00		         0.24667	3.10000e+01	
0.93727   	-6.57904e+00		         0.24833	3.20000e+01	
0.94378   	-6.73698e+00		         0.25000	3.40000e+01	
0.94975   	-6.43593e+00		         0.25167	3.50000e+01	
0.95585   	-5.90623e+00		         0.25333	3.60000e+01	
0.96196   	-5.10455e+00		         0.25500	3.70000e+01	
0.96833   	-4.50342e+00		         0.25667	3.80000e+01	
0.97444   	-3.97768e+00		         0.25833	3.90000e+01	
0.98054   	-3.63243e+00		         0.26000	4.00000e+01	
0.98665   	-3.19560e+00		         0.26167	4.20000e+01	
0.99302   	-2.62699e+00		         0.26333	4.30000e+01	
0.99912   	-2.03718e+00		         0.26500	4.50000e+01	
1.00523   	-1.38992e+00		         0.26667	4.70000e+01	
1.01133   	-8.68149e-01		         0.26833	4.90000e+01	
1.01771   	-4.09255e-01		         0.27000	5.10000e+01	
1.02381   	-1.76779e-01		         0.27167	5.30000e+01	
1.03004   	8.08719e-02		         0.27333	5.60000e+01	
1.03602   	4.00052e-01		         0.27500	5.80000e+01	
1.04240   	9.71095e-01		         0.27667	6.00000e+01	
1.04850   	1.58146e+00		         0.27833	6.20000e+01	
1.05460   	2.02608e+00		         0.28000	6.40000e+01	
1.06071   	1.68532e+00		         0.28167	6.50000e+01	
1.06708   	1.05231e+00		         0.28333	6.60000e+01	
1.07319   	3.42382e-01		         0.28500	6.60000e+01	
1.07929   	3.60983e-01		         0.28667	6.70000e+01	
1.08540   	3.78078e-01		         0.28833	6.70000e+01	
1.09177   	8.91953e-01		         0.29000	6.60000e+01	
1.09787   	1.65300e+00		         0.29167	6.60000e+01	
1.10398   	2.81848e+00		         0.29333	6.50000e+01	
1.11008   	3.76079e+00		         0.29500	6.40000e+01	
1.11646   	4.42313e+00		         0.29667	6.40000e+01	
1.12256   	4.76360e+00		         0.29833	6.30000e+01	
1.12867   	4.94145e+00		         0.30000	6.30000e+01	
1.13477   	4.84674e+00		         0.30167	6.30000e+01	
1.14114   	4.77304e+00		         0.30333	6.30000e+01	
1.14725   	4.55625e+00		         0.30500	6.30000e+01	
1.15335   	4.41675e+00		         0.30667	6.40000e+01	
1.15966   	4.14873e+00		         0.30833	6.40000e+01	
1.16583   	3.87906e+00		         0.31000	6.40000e+01	
1.17194   	3.68001e+00		         0.31167	6.30000e+01	
1.17804   	3.65035e+00		         0.31333	6.20000e+01	
1.18415   	3.79465e+00		         0.31500	6.10000e+01	
1.19052   	3.82110e+00		         0.31667	5.90000e+01	
1.19662   	3.76578e+00		         0.31833	5.70000e+01	
1.20273   	3.70473e+00		         0.32000	5.40000e+01	
1.20883   	3.65686e+00		         0.32167	5.10000e+01	
1.21521   	3.56339e+00		         0.32333	4.80000e+01	
1.22131   	3.49145e+00		         0.32500	4.40000e+01	
1.22741   	3.43746e+00		         0.32667	4.00000e+01	
1.23352   	3.45205e+00		         0.32833	3.60000e+01	
1.23990   	3.54374e+00		         0.33000	3.20000e+01	
1.24600   	3.51084e+00		         0.33167	2.70000e+01	
1.25210   	3.49160e+00		         0.33333	2.30000e+01	
1.25821   	3.44401e+00		         0.33500	1.90000e+01	
1.26458   	3.51160e+00		         0.33667	1.60000e+01	
1.27069   	3.56842e+00		         0.33833	1.20000e+01	
1.27679   	3.35634e+00		         0.34000	9.00000e+00	
1.28290   	3.22647e+00		         0.34167	6.00000e+00	
1.28927   	3.11156e+00		         0.34333	3.00000e+00	
1.29537   	3.03561e+00		         0.34500	0.00000e+00	
1.30148   	3.01642e+00		         0.34667	-3.00000e+00	
1.30758   	2.91274e+00		         0.34833	-6.00000e+00	
1.31396   	2.92835e+00		         0.35000	-9.00000e+00	
1.32006   	2.71472e+00		         0.35167	-1.20000e+01	
1.32616   	2.59428e+00		         0.35333	-1.50000e+01	
1.33227   	2.45000e+00		         0.35500	-1.80000e+01	
1.33865   	2.44879e+00		         0.35667	-2.00000e+01	
1.34475   	2.26799e+00		         0.35833	-2.30000e+01	
1.35085   	2.15014e+00		         0.36000	-2.60000e+01	
1.35696   	1.88985e+00		         0.36167	-2.90000e+01	
1.36333   	1.82946e+00		         0.36333	-3.10000e+01	
1.36944   	1.71826e+00		         0.36500	-3.30000e+01	
1.37554   	1.58244e+00		         0.36667	-3.50000e+01	
1.38165   	1.37065e+00		         0.36833	-3.70000e+01	
1.38802   	1.06832e+00		         0.37000	-3.80000e+01	
1.39412   	8.43106e-01		         0.37167	-3.90000e+01	
1.40023   	5.75567e-01		         0.37333	-4.00000e+01	
1.40633   	3.00682e-01		         0.37500	-4.10000e+01	
1.41271   	-1.15966e-01		         0.37667	-4.10000e+01	
1.41881   	-6.86661e-01		         0.37833	-4.10000e+01	
1.42523   	-1.33128e+00		         0.38000	-4.20000e+01	
1.43102   	-1.66767e+00		         0.38167	-4.20000e+01	
1.43740   	-1.18861e+00		         0.38333	-4.20000e+01	
1.44350   	-7.32933e-01		         0.38500	-4.20000e+01	
1.44960   	-4.63336e-01		         0.38667	-4.10000e+01	
1.45571   	-5.65934e-01		         0.38833	-4.10000e+01	
1.46208   	-4.43775e-01		         0.39000	-4.10000e+01	
1.46819   	-3.19663e-01		         0.39167	-4.10000e+01	
1.47429   	-2.78308e-01		         0.39333	-4.10000e+01	
1.48040   	-1.27287e-01		         0.39500	-4.00000e+01	
1.48677   	2.53444e-01		         0.39667	-4.00000e+01	
1.49287   	6.52087e-01		         0.39833	-4.00000e+01	
1.49898   	5.43326e-01		         0.40000	-3.90000e+01	
1.50508   	8.74693e-02		         0.40167	-3.90000e+01	
1.51146   	-6.14730e-01		         0.40333	-3.90000e+01	
1.51756   	-1.05343e+00		         0.40500	-3.80000e+01	
1.52367   	-1.47019e+00		         0.40667	-3.80000e+01	
1.52977   	-1.75016e+00		         0.40833	-3.80000e+01	
1.53615   	-2.36048e+00		         0.41000	-3.80000e+01	
1.54225   	-2.81545e+00		         0.41167	-3.80000e+01	
1.54835   	-3.40763e+00		         0.41333	-3.90000e+01	
1.55446   	-3.80871e+00		         0.41500	-3.90000e+01	
1.56083   	-4.36489e+00		         0.41667	-4.00000e+01	
1.56694   	-4.76988e+00		         0.41833	-4.00000e+01	
1.57304   	-5.04810e+00		         0.42000	-4.10000e+01	
1.57915   	-5.06580e+00		         0.42167	-4.10000e+01	
1.58552   	-5.00309e+00		         0.42333	-4.10000e+01	
1.59162   	-4.84848e+00		         0.42500	-4.10000e+01	
1.59773   	-4.72618e+00		         0.42667	-4.10000e+01	
1.60383   	-4.59425e+00		         0.42833	-4.00000e+01	
1.61021   	-4.27568e+00		         0.43000	-4.00000e+01	
1.61631   	-3.87805e+00		         0.43167	-3.90000e+01	
1.62242   	-3.41357e+00		         0.43333	-3.80000e+01	
1.62853   	-3.03371e+00		         0.43500	-3.70000e+01	
1.63490   	-2.75849e+00		         0.43667	-3.60000e+01	
1.64100   	-2.45648e+00		         0.43833	-3.50000e+01	
1.64710   	-2.10715e+00		         0.44000	-3.40000e+01	
1.65321   	-1.69069e+00		         0.44167	-3.40000e+01	
1.65958   	-1.52771e+00		         0.44333	-3.40000e+01	
1.66569   	-1.37515e+00		         0.44500	-3.40000e+01	
1.67179   	-1.23910e+00		         0.44667	-3.40000e+01	
1.67789   	-1.12082e+00		         0.44833	-3.40000e+01	
1.68427   	-1.09135e+00		         0.45000	-3.50000e+01	
1.69038   	-1.01705e+00		         0.45167	-3.50000e+01	
1.69648   	-9.29841e-01		         0.45333	-3.50000e+01	
1.70258   	-8.32784e-01		         0.45500	-3.50000e+01	
1.70896   	-8.78052e-01		         0.45667	-3.50000e+01	
1.71507   	-8.92398e-01		         0.45833	-3.40000e+01	
1.72117   	-8.45360e-01		         0.46000	-3.40000e+01	
1.72727   	-6.90793e-01		         0.46167	-3.30000e+01	
1.73365   	-5.11961e-01		         0.46333	-3.20000e+01	
1.73975   	-3.90204e-01		         0.46500	-3.10000e+01	
1.74586   	-3.29839e-01		         0.46667	-3.00000e+01	
1.75196   	-2.68689e-01		         0.46833	-2.80000e+01	
1.75833   	-2.31593e-01		         0.47000	-2.70000e+01	
1.76444   	-2.08026e-01		         0.47167	-2.60000e+01	
1.77055   	-1.97457e-01		         0.47333	-2.50000e+01	
1.77664   	-2.03416e-01		         0.47500	-2.40000e+01	
1.78302   	-1.80171e-01		         0.47667	-2.30000e+01	
1.78912   	-2.05774e-01		         0.47833	-2.20000e+01	
1.79523   	-2.17010e-01		         0.48000	-2.10000e+01	
1.80133   	-2.48566e-01		         0.48167	-2.00000e+01	
1.80771   	-2.45407e-01		         0.48333	-2.00000e+01	
1.81381   	-2.42622e-01		         0.48500	-2.00000e+01	
1.81992   	-2.54061e-01		         0.48667	-2.00000e+01	
1.82602   	-2.76697e-01		         0.48833	-2.00000e+01	
1.83240   	-3.08397e-01		         0.49000	-2.00000e+01	
1.83850   	-3.25246e-01		         0.49167	-2.00000e+01	
1.84461   	-3.51114e-01		         0.49333	-2.00000e+01	
1.85071   	-3.67327e-01		         0.49500	-2.00000e+01	
1.85708   	-3.85941e-01		         0.49667	-1.90000e+01	
1.86319   	-3.89530e-01		         0.49833	-1.90000e+01	
1.86929   	-3.68371e-01		         0.50000	-1.90000e+01	
1.87540   	-3.42406e-01		         0.50167	-1.80000e+01	
1.88177   	-3.05785e-01		         0.50333	-1.80000e+01	
1.88787   	-2.45730e-01		         0.50500	-1.70000e+01	
1.89398   	-1.93334e-01		         0.50667	-1.60000e+01	
1.90008   	-1.92120e-01		         0.50833	-1.60000e+01	
1.90646   	-2.62174e-01		         0.51000	-1.50000e+01	
1.91257   	-2.74409e-01		         0.51167	-1.50000e+01	
1.91867   	-6.02273e-01		         0.51333	-1.50000e+01	
1.92477   	-1.20475e+00		         0.51500	-1.40000e+01	
1.93115   	-2.28475e+00		         0.51667	-1.40000e+01	
1.93725   	-3.43766e+00		         0.51833	-1.40000e+01	
1.94335   	-4.66023e+00		         0.52000	-1.40000e+01	
1.94946   	-5.75607e+00		         0.52167	-1.50000e+01	
1.95583   	-6.45224e+00		         0.52333	-1.50000e+01	
1.96194   	-6.76844e+00		         0.52500	-1.60000e+01	
1.96804   	-6.58651e+00		         0.52667	-1.60000e+01	
1.97415   	-6.37822e+00		         0.52833	-1.60000e+01	
1.98052   	-5.78374e+00		         0.53000	-1.60000e+01	
1.98662   	-5.10527e+00		         0.53167	-1.60000e+01	
1.99273   	-4.37976e+00		         0.53333	-1.60000e+01	
1.99883   	-3.91874e+00		         0.53500	-1.60000e+01	
2.00521   	-3.64768e+00		         0.53667	-1.50000e+01	
2.01132   	-3.23673e+00		         0.53833	-1.50000e+01	
2.01742   	-2.56989e+00		         0.54000	-1.40000e+01	
2.02352   	-1.77044e+00		         0.54167	-1.40000e+01	
2.02990   	-9.38934e-01		         0.54333	-1.30000e+01	
2.03602   	-4.68390e-01		         0.54500	-1.30000e+01	
2.04210   	-1.76394e-01		         0.54667	-1.20000e+01	
2.04821   	-1.66097e-02		         0.54833	-1.20000e+01	
2.05458   	2.96020e-01		         0.55000	-1.20000e+01	
2.06069   	7.17909e-01		         0.55167	-1.20000e+01	
2.06679   	1.20878e+00		         0.55333	-1.20000e+01	
2.07290   	1.71495e+00		         0.55500	-1.20000e+01	
2.07927   	1.64578e+00		         0.55667	-1.20000e+01	
2.08537   	1.36235e+00		         0.55833	-1.30000e+01	
2.09148   	9.39033e-01		         0.56000	-1.30000e+01	
2.09758   	8.28440e-01		         0.56167	-1.30000e+01	
2.10396   	6.76793e-01		         0.56333	-1.20000e+01	
2.11006   	5.22859e-01		         0.56500	-1.20000e+01	
2.11617   	8.31333e-01		         0.56667	-1.20000e+01	
2.12251   	1.69821e+00		         0.56833	-1.10000e+01	
2.12865   	2.88853e+00		         0.57000	-1.10000e+01	
2.13475   	3.86523e+00		         0.57167	-1.00000e+01	
2.14085   	4.63586e+00		         0.57333	-9.00000e+00	
2.14696   	4.94958e+00		         0.57500	-8.00000e+00	
2.15333   	5.15611e+00		         0.57667	-6.00000e+00	
2.15944   	4.93236e+00		         0.57833	-5.00000e+00	
2.16555   	4.76222e+00		         0.58000	-5.00000e+00	
2.17165   	4.51972e+00		         0.58167	-4.00000e+00	
2.17802   	4.40120e+00		         0.58333	-4.00000e+00	
2.18412   	4.26090e+00		         0.58500	-4.00000e+00	
2.19023   	4.09712e+00		         0.58667	-3.00000e+00	
2.19633   	3.96960e+00		         0.58833	-3.00000e+00	
2.20271   	3.78162e+00		         0.59000	-4.00000e+00	
2.20881   	3.59435e+00		         0.59167	-4.00000e+00	
2.21492   	3.42887e+00		         0.59333	-4.00000e+00	
2.22102   	3.41702e+00		         0.59500	-5.00000e+00	
2.22740   	3.38922e+00		         0.59667	-6.00000e+00	
2.23350   	3.44292e+00		         0.59833	-6.00000e+00	
2.23960   	3.50922e+00		         0.60000	-7.00000e+00	
2.24571   	3.61705e+00		         0.60167	-7.00000e+00	
2.25209   	3.58865e+00		         0.60333	-7.00000e+00	
2.25819   	3.67307e+00		         0.60500	-7.00000e+00	
2.26429   	3.72710e+00		         0.60667	-7.00000e+00	
2.27040   	3.81527e+00		         0.60833	-7.00000e+00	
2.27677   	3.70726e+00		         0.61000	-7.00000e+00	
2.28287   	3.57948e+00		         0.61167	-6.00000e+00	
2.28898   	3.50423e+00		         0.61333	-6.00000e+00	
2.29508   	3.46575e+00		         0.61500	-6.00000e+00	
2.30146   	3.37510e+00		         0.61667	-5.00000e+00	
2.30756   	3.19753e+00		         0.61833	-5.00000e+00	
2.31367   	3.00226e+00		         0.62000	-5.00000e+00	
2.31977   	2.88984e+00		         0.62167	-4.00000e+00	
2.32615   	2.84920e+00		         0.62333	-4.00000e+00	
2.33225   	2.73273e+00		         0.62500	-4.00000e+00	
2.33835   	2.63293e+00		         0.62667	-4.00000e+00	
2.34446   	2.49445e+00		         0.62833	-4.00000e+00	
2.35083   	2.31798e+00		         0.63000	-3.00000e+00	
2.35694   	2.18016e+00		         0.63167	-3.00000e+00	
2.36304   	1.99112e+00		         0.63333	-3.00000e+00	
2.36915   	1.94920e+00		         0.63500	-2.00000e+00	
2.37552   	1.93436e+00		         0.63667	-2.00000e+00	
2.38162   	1.87558e+00		         0.63833	-2.00000e+00	
2.38812   	1.75546e+00		         0.64000	-2.00000e+00	
2.39383   	1.58865e+00		         0.64167	-2.00000e+00	
2.40021   	1.41953e+00		         0.64333	-3.00000e+00	
2.40631   	1.22609e+00		         0.64500	-3.00000e+00	
2.41242   	9.96592e-01		         0.64667	-3.00000e+00	
2.41852   	8.15963e-01		         0.64833	-4.00000e+00	
2.42490   	5.61205e-01		         0.65000	-4.00000e+00	
2.43100   	1.99753e-01		         0.65167	-4.00000e+00	
2.43710   	-3.51947e-01		         0.65333	-4.00000e+00	
2.44321   	-9.15162e-01		         0.65500	-4.00000e+00	
2.44958   	-8.43445e-01		         0.65667	-3.00000e+00	
2.45569   	-8.08860e-01		         0.65833	-3.00000e+00	
2.46179   	-2.54744e-01		         0.66000	-2.00000e+00	
2.46790   	-3.27389e-01		         0.66167	-1.00000e+00	
2.47427   	-2.07330e-01		         0.66333	0.00000e+00	
2.48037   	-2.78777e-01		         0.66500	1.00000e+00	
2.48648   	-2.79460e-01		         0.66667	2.00000e+00	
2.49258   	-2.32846e-01		         0.66833	3.00000e+00	
2.49896   	-3.50106e-01		         0.67000	4.00000e+00	
2.50506   	-3.37630e-01		         0.67167	4.00000e+00	
2.51117   	-1.01721e-01		         0.67333	5.00000e+00	
2.51727   	-3.06235e-01		         0.67500	5.00000e+00	
2.52365   	-5.90352e-01		         0.67667	4.00000e+00	
2.52975   	-1.20828e+00		         0.67833	3.00000e+00	
2.53585   	-1.31398e+00		         0.68000	2.00000e+00	
2.54196   	-1.46769e+00		         0.68167	1.00000e+00	
2.54833   	-1.59092e+00		         0.68333	0.00000e+00	
2.55444   	-1.90952e+00		         0.68500	-1.00000e+00	
2.56054   	-2.30445e+00		         0.68667	-2.00000e+00	
2.56665   	-2.80396e+00		         0.68833	-2.00000e+00	
2.57302   	-3.28359e+00		         0.69000	-3.00000e+00	
2.57912   	-3.77265e+00		         0.69167	-4.00000e+00	
2.58523   	-4.15096e+00		         0.69333	-4.00000e+00	
2.59134   	-4.37817e+00		         0.69500	-5.00000e+00	
2.59771   	-4.50709e+00		         0.69667	-6.00000e+00	
2.60407   	-4.60204e+00		         0.69833	-6.00000e+00	
2.60992   	-4.74237e+00		         0.70000	-7.00000e+00	
2.61602   	-4.68660e+00		         0.70167	-7.00000e+00	
2.62240   	-4.58120e+00		         0.70333	-8.00000e+00	
2.62850   	-4.37626e+00		         0.70500	-8.00000e+00	
2.63460   	-4.12798e+00		         0.70667	-9.00000e+00	
2.64071   	-3.73163e+00		         0.70833	-1.00000e+01	
2.64709   	-3.25555e+00		         0.71000	-1.00000e+01	
2.65319   	-2.77830e+00		         0.71167	-1.10000e+01	
2.65929   	-2.51197e+00		         0.71333	-1.10000e+01	
2.66540   	-2.31269e+00		         0.71500	-1.10000e+01	
2.67177   	-2.22962e+00		         0.71667	-1.10000e+01	
2.67787   	-1.95091e+00		         0.71833	-1.10000e+01	
2.68398   	-1.74608e+00		         0.72000	-1.10000e+01	
2.69008   	-1.61932e+00		         0.72167	-1.00000e+01	
2.69646   	-1.44146e+00		         0.72333	-1.00000e+01	
2.70256   	-1.26741e+00		         0.72500	-9.00000e+00	
2.70867   	-1.11911e+00		         0.72667	-9.00000e+00	
2.71477   	-1.07561e+00		         0.72833	-8.00000e+00	
2.72115   	-1.05213e+00		         0.73000	-7.00000e+00	
2.72725   	-9.64771e-01		         0.73167	-6.00000e+00	
2.73336   	-8.53275e-01		         0.73333	-5.00000e+00	
2.73946   	-7.95590e-01		         0.73500	-4.00000e+00	
2.74584   	-7.36897e-01		         0.73667	-3.00000e+00	
2.75194   	-6.87314e-01		         0.73833	-3.00000e+00	
2.75805   	-5.77686e-01		         0.74000	-2.00000e+00	
2.76415   	-4.88060e-01		         0.74167	-1.00000e+00	
2.77052   	-4.21270e-01		         0.74333	0.00000e+00	
2.77662   	-3.36453e-01		         0.74500	0.00000e+00	
2.78273   	-2.44521e-01		         0.74667	1.00000e+00	
2.78883   	-2.04882e-01		         0.74833	1.00000e+00	
2.79521   	-2.01525e-01		         0.75000	1.00000e+00	
2.80131   	-2.08784e-01		         0.75167	0.00000e+00	
2.80742   	-1.99419e-01		         0.75333	0.00000e+00	
2.81352   	-1.87742e-01		         0.75500	-1.00000e+00	
2.81990   	-1.75561e-01		         0.75667	-1.00000e+00	
2.82600   	-1.65812e-01		         0.75833	-2.00000e+00	
2.83211   	-1.73701e-01		         0.76000	-3.00000e+00	
2.83821   	-1.94526e-01		         0.76167	-4.00000e+00	
2.84458   	-2.26610e-01		         0.76333	-5.00000e+00	
2.85069   	-2.49993e-01		         0.76500	-5.00000e+00	
2.85679   	-2.64850e-01		         0.76667	-5.00000e+00	
2.86290   	-2.63883e-01		         0.76833	-5.00000e+00	
2.86927   	-2.66721e-01		         0.77000	-5.00000e+00	
2.87537   	-2.71415e-01		         0.77167	-4.00000e+00	
2.88148   	-2.92557e-01		         0.77333	-3.00000e+00	
2.88758   	-3.03603e-01		         0.77500	-2.00000e+00	
2.89396   	-3.04768e-01		         0.77667	0.00000e+00	
2.90006   	-2.83747e-01		         0.77833	1.00000e+00	
2.90617   	-2.59416e-01		         0.78000	2.00000e+00	
2.91227   	-2.39638e-01		         0.78167	3.00000e+00	
2.91865   	-2.20391e-01		         0.78333	4.00000e+00	
2.92475   	-2.09794e-01		         0.78500	4.00000e+00	
2.93086   	-1.85557e-01		         0.78667	4.00000e+00	
2.93696   	-3.23943e-01		         0.78833	4.00000e+00	
2.94334   	-7.26759e-01		         0.79000	3.00000e+00	
2.94944   	-1.49248e+00		         0.79167	2.00000e+00	
2.95554   	-2.11724e+00		         0.79333	0.00000e+00	
2.96165   	-2.76388e+00		         0.79500	-2.00000e+00	
2.96802   	-3.80874e+00		         0.79667	-3.00000e+00	
2.97413   	-5.16057e+00		         0.79833	-5.00000e+00	
2.98023   	-6.47076e+00		         0.80000	-6.00000e+00	
2.98633   	-7.04844e+00		         0.80167	-7.00000e+00	
2.99271   	-6.99644e+00		         0.80333	-7.00000e+00	
2.99881   	-6.60328e+00		         0.80500	-7.00000e+00	
3.00492   	-5.93027e+00		         0.80667	-6.00000e+00	
3.01102   	-5.35570e+00		         0.80833	-4.00000e+00	
3.01740   	-4.73685e+00		         0.81000	-2.00000e+00	
3.02350   	-4.05319e+00		         0.81167	0.00000e+00	
3.02961   	-3.56603e+00		         0.81333	3.00000e+00	
3.03577   	-3.22653e+00		         0.81500	6.00000e+00	
3.04209   	-3.00374e+00		         0.81667	9.00000e+00	
3.04819   	-2.52048e+00		         0.81833	1.10000e+01	
3.05429   	-1.80862e+00		         0.82000	1.40000e+01	
3.06040   	-1.11755e+00		         0.82167	1.60000e+01	
3.06677   	-5.43025e-01		         0.82333	1.80000e+01	
3.07288   	-1.43298e-01		         0.82500	2.00000e+01	
3.07898   	3.36769e-02		         0.82667	2.20000e+01	
			         0.82833	2.30000e+01	
			         0.83000	2.40000e+01	
			         0.83167	2.60000e+01	
			         0.83333	2.70000e+01	
			         0.83500	2.80000e+01	
			         0.83667	2.90000e+01	
			         0.83833	3.00000e+01	
			         0.84000	3.10000e+01	
			         0.84167	3.30000e+01	
			         0.84333	3.30000e+01	
			         0.84500	3.40000e+01	
			         0.84667	3.50000e+01	
			         0.84833	3.50000e+01	
			         0.85000	3.50000e+01	
			         0.85167	3.50000e+01	
			         0.85333	3.50000e+01	
			         0.85500	3.50000e+01	
			         0.85667	3.40000e+01	
			         0.85833	3.40000e+01	
			         0.86000	3.30000e+01	
			         0.86167	3.30000e+01	
			         0.86333	3.20000e+01	
			         0.86500	3.20000e+01	
			         0.86667	3.20000e+01	
			         0.86833	3.10000e+01	
			         0.87000	3.10000e+01	
			         0.87167	3.00000e+01	
			         0.87333	2.90000e+01	
			         0.87500	2.80000e+01	
			         0.87667	2.70000e+01	
			         0.87833	2.50000e+01	
			         0.88000	2.20000e+01	
			         0.88167	1.90000e+01	
			         0.88333	1.60000e+01	
			         0.88500	1.20000e+01	
			         0.88667	8.00000e+00	
			         0.88833	4.00000e+00	
			         0.89000	1.00000e+00	
			         0.89167	-3.00000e+00	
			         0.89333	-6.00000e+00	
			         0.89500	-8.00000e+00	
			         0.89667	-1.00000e+01	
			         0.89833	-1.20000e+01	
			         0.90000	-1.20000e+01	
			         0.90167	-1.30000e+01	
			         0.90333	-1.20000e+01	
			         0.90500	-1.20000e+01	
			         0.90667	-1.20000e+01	
			         0.90833	-1.20000e+01	
			         0.91000	-1.30000e+01	
			         0.91167	-1.40000e+01	
			         0.91333	-1.50000e+01	
			         0.91500	-1.70000e+01	
			         0.91667	-1.90000e+01	
			         0.91833	-2.10000e+01	
			         0.92000	-2.40000e+01	
			         0.92167	-2.70000e+01	
			         0.92333	-2.90000e+01	
			         0.92500	-3.20000e+01	
			         0.92667	-3.40000e+01	
			         0.92833	-3.60000e+01	
			         0.93000	-3.70000e+01	
			         0.93167	-3.90000e+01	
			         0.93333	-3.90000e+01	
			         0.93500	-4.00000e+01	
			         0.93667	-4.00000e+01	
			         0.93833	-4.00000e+01	
			         0.94000	-4.00000e+01	
			         0.94167	-4.00000e+01	
			         0.94333	-3.90000e+01	
			         0.94500	-3.90000e+01	
			         0.94667	-3.80000e+01	
			         0.94833	-3.80000e+01	
			         0.95000	-3.70000e+01	
			         0.95167	-3.60000e+01	
			         0.95333	-3.50000e+01	
			         0.95500	-3.50000e+01	
			         0.95667	-3.40000e+01	
			         0.95833	-3.30000e+01	
			         0.96000	-3.20000e+01	
			         0.96167	-3.00000e+01	
			         0.96333	-2.90000e+01	
			         0.96500	-2.80000e+01	
			         0.96667	-2.60000e+01	
			         0.96833	-2.50000e+01	
			         0.97000	-2.30000e+01	
			         0.97167	-2.20000e+01	
			         0.97333	-2.10000e+01	
			         0.97500	-2.00000e+01	
			         0.97667	-1.80000e+01	
			         0.97833	-1.70000e+01	
			         0.98000	-1.70000e+01	
			         0.98167	-1.60000e+01	
			         0.98333	-1.50000e+01	
			         0.98500	-1.40000e+01	
			         0.98667	-1.40000e+01	
			         0.98833	-1.20000e+01	
			         0.99000	-1.10000e+01	
			         0.99167	-9.00000e+00	
			         0.99333	-6.00000e+00	
			         0.99500	-2.00000e+00	
			         0.99667	2.00000e+00	
			         0.99833	8.00000e+00	
			         1.00000	1.70000e+01	
			         1.00167	2.70000e+01	
			         1.00333	4.00000e+01	
			         1.00500	5.50000e+01	
			         1.00667	7.40000e+01	
			         1.00833	9.50000e+01	
			         1.01000	1.19000e+02	
			         1.01167	1.45000e+02	
			         1.01333	1.73000e+02	
			         1.01500	2.02000e+02	
			         1.01667	2.33000e+02	
			         1.01833	2.63000e+02	
			         1.02000	2.91000e+02	
			         1.02167	3.15000e+02	
			         1.02333	3.32000e+02	
			         1.02500	3.41000e+02	
			         1.02667	3.42000e+02	
			         1.02833	3.33000e+02	
			         1.03000	3.17000e+02	
			         1.03167	2.94000e+02	
			         1.03333	2.65000e+02	
			         1.03500	2.32000e+02	
			         1.03667	1.96000e+02	
			         1.03833	1.56000e+02	
			         1.04000	1.14000e+02	
			         1.04167	7.20000e+01	
			         1.04333	3.10000e+01	
			         1.04500	-8.00000e+00	
			         1.04667	-4.30000e+01	
			         1.04833	-7.30000e+01	
			         1.05000	-9.90000e+01	
			         1.05167	-1.19000e+02	
			         1.05333	-1.35000e+02	
			         1.05500	-1.46000e+02	
			         1.05667	-1.52000e+02	
			         1.05833	-1.56000e+02	
			         1.06000	-1.56000e+02	
			         1.06167	-1.54000e+02	
			         1.06333	-1.50000e+02	
			         1.06500	-1.45000e+02	
			         1.06667	-1.39000e+02	
			         1.06833	-1.31000e+02	
			         1.07000	-1.23000e+02	
			         1.07167	-1.15000e+02	
			         1.07333	-1.06000e+02	
			         1.07500	-9.80000e+01	
			         1.07667	-9.00000e+01	
			         1.07833	-8.30000e+01	
			         1.08000	-7.70000e+01	
			         1.08167	-7.10000e+01	
			         1.08333	-6.70000e+01	
			         1.08500	-6.30000e+01	
			         1.08667	-6.00000e+01	
			         1.08833	-5.70000e+01	
			         1.09000	-5.60000e+01	
			         1.09167	-5.50000e+01	
			         1.09333	-5.40000e+01	
			         1.09500	-5.30000e+01	
			         1.09667	-5.20000e+01	
			         1.09833	-5.10000e+01	
			         1.10000	-5.00000e+01	
			         1.10167	-4.90000e+01	
			         1.10333	-4.80000e+01	
			         1.10500	-4.70000e+01	
			         1.10667	-4.50000e+01	
			         1.10833	-4.40000e+01	
			         1.11000	-4.20000e+01	
			         1.11167	-4.10000e+01	
			         1.11333	-3.90000e+01	
			         1.11500	-3.80000e+01	
			         1.11667	-3.70000e+01	
			         1.11833	-3.50000e+01	
			         1.12000	-3.40000e+01	
			         1.12167	-3.30000e+01	
			         1.12333	-3.20000e+01	
			         1.12500	-3.10000e+01	
			         1.12667	-2.90000e+01	
			         1.12833	-2.80000e+01	
			         1.13000	-2.70000e+01	
			         1.13167	-2.50000e+01	
			         1.13333	-2.40000e+01	
			         1.13500	-2.30000e+01	
			         1.13667	-2.20000e+01	
			         1.13833	-2.10000e+01	
			         1.14000	-2.00000e+01	
			         1.14167	-1.90000e+01	
			         1.14333	-1.90000e+01	
			         1.14500	-1.80000e+01	
			         1.14667	-1.80000e+01	
			         1.14833	-1.80000e+01	
			         1.15000	-1.90000e+01	
			         1.15167	-1.90000e+01	
			         1.15333	-2.00000e+01	
			         1.15500	-2.00000e+01	
			         1.15667	-2.10000e+01	
			         1.15833	-2.10000e+01	
			         1.16000	-2.10000e+01	
			         1.16167	-2.10000e+01	
			         1.16333	-2.10000e+01	
			         1.16500	-2.10000e+01	
			         1.16667	-2.00000e+01	
			         1.16833	-1.90000e+01	
			         1.17000	-1.80000e+01	
			         1.17167	-1.60000e+01	
			         1.17333	-1.40000e+01	
			         1.17500	-1.20000e+01	
			         1.17667	-1.00000e+01	
			         1.17833	-8.00000e+00	
			         1.18000	-6.00000e+00	
			         1.18167	-4.00000e+00	
			         1.18333	-3.00000e+00	
			         1.18500	-1.00000e+00	
			         1.18667	0.00000e+00	
			         1.18833	0.00000e+00	
			         1.19000	0.00000e+00	
			         1.19167	0.00000e+00	
			         1.19333	0.00000e+00	
			         1.19500	-1.00000e+00	
			         1.19667	-2.00000e+00	
			         1.19833	-2.00000e+00	
			         1.20000	-3.00000e+00	
			         1.20167	-3.00000e+00	
			         1.20333	-3.00000e+00	
			         1.20500	-3.00000e+00	
			         1.20667	-2.00000e+00	
			         1.20833	-1.00000e+00	
			         1.21000	0.00000e+00	
			         1.21167	2.00000e+00	
			         1.21333	3.00000e+00	
			         1.21500	5.00000e+00	
			         1.21667	7.00000e+00	
			         1.21833	9.00000e+00	
			         1.22000	1.00000e+01	
			         1.22167	1.20000e+01	
			         1.22333	1.30000e+01	
			         1.22500	1.40000e+01	
			         1.22667	1.50000e+01	
			         1.22833	1.60000e+01	
			         1.23000	1.70000e+01	
			         1.23167	1.80000e+01	
			         1.23333	1.90000e+01	
			         1.23500	2.00000e+01	
			         1.23667	2.20000e+01	
			         1.23833	2.40000e+01	
			         1.24000	2.60000e+01	
			         1.24167	2.80000e+01	
			         1.24333	3.00000e+01	
			         1.24500	3.30000e+01	
			         1.24667	3.60000e+01	
			         1.24833	3.90000e+01	
			         1.25000	4.10000e+01	
			         1.25167	4.30000e+01	
			         1.25333	4.50000e+01	
			         1.25500	4.70000e+01	
			         1.25667	4.80000e+01	
			         1.25833	4.90000e+01	
			         1.26000	4.90000e+01	
			         1.26167	4.90000e+01	
			         1.26333	4.90000e+01	
			         1.26500	4.80000e+01	
			         1.26667	4.80000e+01	
			         1.26833	4.80000e+01	
			         1.27000	4.70000e+01	
			         1.27167	4.80000e+01	
			         1.27333	4.80000e+01	
			         1.27500	4.90000e+01	
			         1.27667	5.10000e+01	
			         1.27833	5.20000e+01	
			         1.28000	5.40000e+01	
			         1.28167	5.60000e+01	
			         1.28333	5.70000e+01	
			         1.28500	5.90000e+01	
			         1.28667	6.00000e+01	
			         1.28833	6.10000e+01	
			         1.29000	6.20000e+01	
			         1.29167	6.20000e+01	
			         1.29333	6.20000e+01	
			         1.29500	6.20000e+01	
			         1.29667	6.10000e+01	
			         1.29833	6.10000e+01	
			         1.30000	6.00000e+01	
			         1.30167	6.00000e+01	
			         1.30333	6.00000e+01	
			         1.30500	5.90000e+01	
			         1.30667	5.90000e+01	
			         1.30833	5.90000e+01	
			         1.31000	6.00000e+01	
			         1.31167	6.00000e+01	
			         1.31333	6.00000e+01	
			         1.31500	6.00000e+01	
			         1.31667	6.00000e+01	
			         1.31833	6.00000e+01	
			         1.32000	6.00000e+01	
			         1.32167	5.90000e+01	
			         1.32333	5.80000e+01	
			         1.32500	5.60000e+01	
			         1.32667	5.40000e+01	
			         1.32833	5.10000e+01	
			         1.33000	4.90000e+01	
			         1.33167	4.60000e+01	
			         1.33333	4.20000e+01	
			         1.33500	3.90000e+01	
			         1.33667	3.50000e+01	
			         1.33833	3.20000e+01	
			         1.34000	2.80000e+01	
			         1.34167	2.40000e+01	
			         1.34333	2.10000e+01	
			         1.34500	1.80000e+01	
			         1.34667	1.50000e+01	
			         1.34833	1.20000e+01	
			         1.35000	9.00000e+00	
			         1.35167	6.00000e+00	
			         1.35333	3.00000e+00	
			         1.35500	0.00000e+00	
			         1.35667	-3.00000e+00	
			         1.35833	-5.00000e+00	
			         1.36000	-8.00000e+00	
			         1.36167	-1.10000e+01	
			         1.36333	-1.30000e+01	
			         1.36500	-1.60000e+01	
			         1.36667	-1.80000e+01	
			         1.36833	-2.10000e+01	
			         1.37000	-2.30000e+01	
			         1.37167	-2.50000e+01	
			         1.37333	-2.70000e+01	
			         1.37500	-2.90000e+01	
			         1.37667	-3.00000e+01	
			         1.37833	-3.20000e+01	
			         1.38000	-3.30000e+01	
			         1.38167	-3.50000e+01	
			         1.38333	-3.60000e+01	
			         1.38500	-3.70000e+01	
			         1.38667	-3.80000e+01	
			         1.38833	-3.90000e+01	
			         1.39000	-4.00000e+01	
			         1.39167	-4.10000e+01	
			         1.39333	-4.10000e+01	
			         1.39500	-4.10000e+01	
			         1.39667	-4.20000e+01	
			         1.39833	-4.20000e+01	
			         1.40000	-4.20000e+01	
			         1.40167	-4.20000e+01	
			         1.40333	-4.20000e+01	
			         1.40500	-4.20000e+01	
			         1.40667	-4.20000e+01	
			         1.40833	-4.20000e+01	
			         1.41000	-4.30000e+01	
			         1.41167	-4.30000e+01	
			         1.41333	-4.30000e+01	
			         1.41500	-4.30000e+01	
			         1.41667	-4.40000e+01	
			         1.41833	-4.40000e+01	
			         1.42000	-4.40000e+01	
			         1.42167	-4.40000e+01	
			         1.42333	-4.30000e+01	
			         1.42500	-4.30000e+01	
			         1.42667	-4.20000e+01	
			         1.42833	-4.20000e+01	
			         1.43000	-4.10000e+01	
			         1.43167	-4.00000e+01	
			         1.43333	-3.90000e+01	
			         1.43500	-3.90000e+01	
			         1.43667	-3.80000e+01	
			         1.43833	-3.80000e+01	
			         1.44000	-3.70000e+01	
			         1.44167	-3.70000e+01	
			         1.44333	-3.70000e+01	
			         1.44500	-3.70000e+01	
			         1.44667	-3.70000e+01	
			         1.44833	-3.70000e+01	
			         1.45000	-3.70000e+01	
			         1.45167	-3.70000e+01	
			         1.45333	-3.70000e+01	
			         1.45500	-3.60000e+01	
			         1.45667	-3.50000e+01	
			         1.45833	-3.50000e+01	
			         1.46000	-3.40000e+01	
			         1.46167	-3.30000e+01	
			         1.46333	-3.10000e+01	
			         1.46500	-3.00000e+01	
			         1.46667	-2.90000e+01	
			         1.46833	-2.80000e+01	
			         1.47000	-2.60000e+01	
			         1.47167	-2.50000e+01	
			         1.47333	-2.40000e+01	
			         1.47500	-2.40000e+01	
			         1.47667	-2.30000e+01	
			         1.47833	-2.30000e+01	
			         1.48000	-2.30000e+01	
			         1.48167	-2.40000e+01	
			         1.48333	-2.50000e+01	
			         1.48500	-2.60000e+01	
			         1.48667	-2.70000e+01	
			         1.48833	-2.90000e+01	
			         1.49000	-3.00000e+01	
			         1.49167	-3.10000e+01	
			         1.49333	-3.20000e+01	
			         1.49500	-3.30000e+01	
			         1.49667	-3.30000e+01	
			         1.49833	-3.30000e+01	
			         1.50000	-3.20000e+01	
			         1.50167	-3.10000e+01	
			         1.50333	-3.00000e+01	
			         1.50500	-2.90000e+01	
			         1.50667	-2.80000e+01	
			         1.50833	-2.70000e+01	
			         1.51000	-2.60000e+01	
			         1.51167	-2.50000e+01	
			         1.51333	-2.40000e+01	
			         1.51500	-2.40000e+01	
			         1.51667	-2.40000e+01	
			         1.51833	-2.40000e+01	
			         1.52000	-2.40000e+01	
			         1.52167	-2.50000e+01	
			         1.52333	-2.50000e+01	
			         1.52500	-2.50000e+01	
			         1.52667	-2.50000e+01	
			         1.52833	-2.50000e+01	
			         1.53000	-2.50000e+01	
			         1.53167	-2.40000e+01	
			         1.53333	-2.40000e+01	
			         1.53500	-2.30000e+01	
			         1.53667	-2.20000e+01	
			         1.53833	-2.10000e+01	
			         1.54000	-2.00000e+01	
			         1.54167	-2.00000e+01	
			         1.54333	-1.90000e+01	
			         1.54500	-1.80000e+01	
			         1.54667	-1.80000e+01	
			         1.54833	-1.80000e+01	
			         1.55000	-1.80000e+01	
			         1.55167	-1.80000e+01	
			         1.55333	-1.80000e+01	
			         1.55500	-1.80000e+01	
			         1.55667	-1.80000e+01	
			         1.55833	-1.80000e+01	
			         1.56000	-1.80000e+01	
			         1.56167	-1.80000e+01	
			         1.56333	-1.80000e+01	
			         1.56500	-1.70000e+01	
			         1.56667	-1.60000e+01	
			         1.56833	-1.50000e+01	
			         1.57000	-1.30000e+01	
			         1.57167	-1.10000e+01	
			         1.57333	-9.00000e+00	
			         1.57500	-7.00000e+00	
			         1.57667	-5.00000e+00	
			         1.57833	-3.00000e+00	
			         1.58000	-1.00000e+00	
			         1.58167	0.00000e+00	
			         1.58333	1.00000e+00	
			         1.58500	1.00000e+00	
			         1.58667	0.00000e+00	
			         1.58833	0.00000e+00	
			         1.59000	-2.00000e+00	
			         1.59167	-3.00000e+00	
			         1.59333	-5.00000e+00	
			         1.59500	-7.00000e+00	
			         1.59667	-9.00000e+00	
			         1.59833	-1.10000e+01	
			         1.60000	-1.30000e+01	
			         1.60167	-1.40000e+01	
			         1.60333	-1.40000e+01	
			         1.60500	-1.50000e+01	
			         1.60667	-1.50000e+01	
			         1.60833	-1.40000e+01	
			         1.61000	-1.40000e+01	
			         1.61167	-1.30000e+01	
			         1.61333	-1.20000e+01	
			         1.61500	-1.10000e+01	
			         1.61667	-1.00000e+01	
			         1.61833	-9.00000e+00	
			         1.62000	-8.00000e+00	
			         1.62167	-7.00000e+00	
			         1.62333	-6.00000e+00	
			         1.62500	-5.00000e+00	
			         1.62667	-5.00000e+00	
			         1.62833	-4.00000e+00	
			         1.63000	-3.00000e+00	
			         1.63167	-3.00000e+00	
			         1.63333	-2.00000e+00	
			         1.63500	-2.00000e+00	
			         1.63667	-1.00000e+00	
			         1.63833	-1.00000e+00	
			         1.64000	-1.00000e+00	
			         1.64167	0.00000e+00	
			         1.64333	0.00000e+00	
			         1.64500	0.00000e+00	
			         1.64667	0.00000e+00	
			         1.64833	0.00000e+00	
			         1.65000	0.00000e+00	
			         1.65167	0.00000e+00	
			         1.65333	0.00000e+00	
			         1.65500	-1.00000e+00	
			         1.65667	-1.00000e+00	
			         1.65833	-1.00000e+00	
			         1.66000	-1.00000e+00	
			         1.66167	-2.00000e+00	
			         1.66333	-2.00000e+00	
			         1.66500	-2.00000e+00	
			         1.66667	-2.00000e+00	
			         1.66833	-2.00000e+00	
			         1.67000	-2.00000e+00	
			         1.67167	-2.00000e+00	
			         1.67333	-2.00000e+00	
			         1.67500	-2.00000e+00	
			         1.67667	-2.00000e+00	
			         1.67833	-2.00000e+00	
			         1.68000	-1.00000e+00	
			         1.68167	-1.00000e+00	
			         1.68333	0.00000e+00	
			         1.68500	0.00000e+00	
			         1.68667	1.00000e+00	
			         1.68833	1.00000e+00	
			         1.69000	1.00000e+00	
			         1.69167	1.00000e+00	
			         1.69333	1.00000e+00	
			         1.69500	1.00000e+00	
			         1.69667	1.00000e+00	
			         1.69833	0.00000e+00	
			         1.70000	0.00000e+00	
			         1.70167	0.00000e+00	
			         1.70333	-1.00000e+00	
			         1.70500	-1.00000e+00	
			         1.70667	-1.00000e+00	
			         1.70833	-1.00000e+00	
			         1.71000	-1.00000e+00	
			         1.71167	-1.00000e+00	
			         1.71333	-1.00000e+00	
			         1.71500	-1.00000e+00	
			         1.71667	-1.00000e+00	
			         1.71833	-1.00000e+00	
			         1.72000	-1.00000e+00	
			         1.72167	-2.00000e+00	
			         1.72333	-3.00000e+00	
			         1.72500	-4.00000e+00	
			         1.72667	-6.00000e+00	
			         1.72833	-7.00000e+00	
			         1.73000	-9.00000e+00	
			         1.73167	-1.00000e+01	
			         1.73333	-1.10000e+01	
			         1.73500	-1.30000e+01	
			         1.73667	-1.40000e+01	
			         1.73833	-1.40000e+01	
			         1.74000	-1.50000e+01	
			         1.74167	-1.50000e+01	
			         1.74333	-1.40000e+01	
			         1.74500	-1.40000e+01	
			         1.74667	-1.30000e+01	
			         1.74833	-1.20000e+01	
			         1.75000	-1.10000e+01	
			         1.75167	-1.00000e+01	
			         1.75333	-1.00000e+01	
			         1.75500	-9.00000e+00	
			         1.75667	-8.00000e+00	
			         1.75833	-8.00000e+00	
			         1.76000	-8.00000e+00	
			         1.76167	-8.00000e+00	
			         1.76333	-8.00000e+00	
			         1.76500	-9.00000e+00	
			         1.76667	-9.00000e+00	
			         1.76833	-1.00000e+01	
			         1.77000	-1.00000e+01	
			         1.77167	-1.10000e+01	
			         1.77333	-1.10000e+01	
			         1.77500	-1.00000e+01	
			         1.77667	-1.00000e+01	
			         1.77833	-9.00000e+00	
			         1.78000	-8.00000e+00	
			         1.78167	-7.00000e+00	
			         1.78333	-6.00000e+00	
			         1.78500	-5.00000e+00	
			         1.78667	-4.00000e+00	
			         1.78833	-4.00000e+00	
			         1.79000	-3.00000e+00	
			         1.79167	-3.00000e+00	
			         1.79333	-3.00000e+00	
			         1.79500	-3.00000e+00	
			         1.79667	-4.00000e+00	
			         1.79833	-4.00000e+00	
			         1.80000	-5.00000e+00	
			         1.80167	-5.00000e+00	
			         1.80333	-6.00000e+00	
			         1.80500	-6.00000e+00	
			         1.80667	-7.00000e+00	
			         1.80833	-7.00000e+00	
			         1.81000	-7.00000e+00	
			         1.81167	-8.00000e+00	
			         1.81333	-7.00000e+00	
			         1.81500	-7.00000e+00	
			         1.81667	-7.00000e+00	
			         1.81833	-6.00000e+00	
			         1.82000	-5.00000e+00	
			         1.82167	-3.00000e+00	
			         1.82333	-2.00000e+00	
			         1.82500	0.00000e+00	
			         1.82667	2.00000e+00	
			         1.82833	4.00000e+00	
			         1.83000	6.00000e+00	
			         1.83167	9.00000e+00	
			         1.83333	1.10000e+01	
			         1.83500	1.30000e+01	
			         1.83667	1.40000e+01	
			         1.83833	1.60000e+01	
			         1.84000	1.70000e+01	
			         1.84167	1.80000e+01	
			         1.84333	1.80000e+01	
			         1.84500	1.90000e+01	
			         1.84667	1.90000e+01	
			         1.84833	1.90000e+01	
			         1.85000	1.90000e+01	
			         1.85167	1.90000e+01	
			         1.85333	2.00000e+01	
			         1.85500	2.00000e+01	
			         1.85667	2.10000e+01	
			         1.85833	2.20000e+01	
			         1.86000	2.20000e+01	
			         1.86167	2.30000e+01	
			         1.86333	2.40000e+01	
			         1.86500	2.50000e+01	
			         1.86667	2.60000e+01	
			         1.86833	2.70000e+01	
			         1.87000	2.70000e+01	
			         1.87167	2.70000e+01	
			         1.87333	2.70000e+01	
			         1.87500	2.70000e+01	
			         1.87667	2.70000e+01	
			         1.87833	2.60000e+01	
			         1.88000	2.60000e+01	
			         1.88167	2.50000e+01	
			         1.88333	2.40000e+01	
			         1.88500	2.30000e+01	
			         1.88667	2.20000e+01	
			         1.88833	2.10000e+01	
			         1.89000	2.00000e+01	
			         1.89167	1.90000e+01	
			         1.89333	1.80000e+01	
			         1.89500	1.70000e+01	
			         1.89667	1.60000e+01	
			         1.89833	1.50000e+01	
			         1.90000	1.30000e+01	
			         1.90167	1.10000e+01	
			         1.90333	8.00000e+00	
			         1.90500	5.00000e+00	
			         1.90667	2.00000e+00	
			         1.90833	-1.00000e+00	
			         1.91000	-4.00000e+00	
			         1.91167	-7.00000e+00	
			         1.91333	-9.00000e+00	
			         1.91500	-1.20000e+01	
			         1.91667	-1.40000e+01	
			         1.91833	-1.50000e+01	
			         1.92000	-1.60000e+01	
			         1.92167	-1.70000e+01	
			         1.92333	-1.70000e+01	
			         1.92500	-1.80000e+01	
			         1.92667	-1.80000e+01	
			         1.92833	-1.80000e+01	
			         1.93000	-1.90000e+01	
			         1.93167	-2.00000e+01	
			         1.93333	-2.20000e+01	
			         1.93500	-2.40000e+01	
			         1.93667	-2.60000e+01	
			         1.93833	-2.80000e+01	
			         1.94000	-3.10000e+01	
			         1.94167	-3.30000e+01	
			         1.94333	-3.50000e+01	
			         1.94500	-3.70000e+01	
			         1.94667	-3.80000e+01	
			         1.94833	-3.90000e+01	
			         1.95000	-4.00000e+01	
			         1.95167	-4.00000e+01	
			         1.95333	-4.00000e+01	
			         1.95500	-3.90000e+01	
			         1.95667	-3.90000e+01	
			         1.95833	-3.90000e+01	
			         1.96000	-3.90000e+01	
			         1.96167	-3.90000e+01	
			         1.96333	-3.90000e+01	
			         1.96500	-3.90000e+01	
			         1.96667	-3.90000e+01	
			         1.96833	-3.90000e+01	
			         1.97000	-3.90000e+01	
			         1.97167	-3.90000e+01	
			         1.97333	-4.00000e+01	
			         1.97500	-4.00000e+01	
			         1.97667	-3.90000e+01	
			         1.97833	-3.90000e+01	
			         1.98000	-3.80000e+01	
			         1.98167	-3.70000e+01	
			         1.98333	-3.60000e+01	
			         1.98500	-3.50000e+01	
			         1.98667	-3.30000e+01	
			         1.98833	-3.10000e+01	
			         1.99000	-2.90000e+01	
			         1.99167	-2.70000e+01	
			         1.99333	-2.50000e+01	
			         1.99500	-2.40000e+01	
			         1.99667	-2.20000e+01	
			         1.99833	-2.00000e+01	
			         2.00000	-1.90000e+01	
			         2.00167	-1.80000e+01	
			         2.00333	-1.80000e+01	
			         2.00500	-1.70000e+01	
			         2.00667	-1.70000e+01	
			         2.00833	-1.70000e+01	
			         2.01000	-1.70000e+01	
			         2.01167	-1.70000e+01	
			         2.01333	-1.50000e+01	
			         2.01500	-1.30000e+01	
			         2.01667	-1.10000e+01	
			         2.01833	-7.00000e+00	
			         2.02000	-1.00000e+00	
			         2.02167	6.00000e+00	
			         2.02333	1.50000e+01	
			         2.02500	2.60000e+01	
			         2.02667	4.00000e+01	
			         2.02833	5.70000e+01	
			         2.03000	7.60000e+01	
			         2.03167	9.80000e+01	
			         2.03333	1.22000e+02	
			         2.03500	1.47000e+02	
			         2.03667	1.75000e+02	
			         2.03833	2.03000e+02	
			         2.04000	2.31000e+02	
			         2.04167	2.58000e+02	
			         2.04333	2.82000e+02	
			         2.04500	3.03000e+02	
			         2.04667	3.18000e+02	
			         2.04833	3.26000e+02	
			         2.05000	3.27000e+02	
			         2.05167	3.19000e+02	
			         2.05333	3.04000e+02	
			         2.05500	2.81000e+02	
			         2.05667	2.50000e+02	
			         2.05833	2.14000e+02	
			         2.06000	1.74000e+02	
			         2.06167	1.30000e+02	
			         2.06333	8.50000e+01	
			         2.06500	4.10000e+01	
			         2.06667	0.00000e+00	
			         2.06833	-3.90000e+01	
			         2.07000	-7.30000e+01	
			         2.07167	-1.02000e+02	
			         2.07333	-1.25000e+02	
			         2.07500	-1.43000e+02	
			         2.07667	-1.55000e+02	
			         2.07833	-1.62000e+02	
			         2.08000	-1.66000e+02	
			         2.08167	-1.66000e+02	
			         2.08333	-1.63000e+02	
			         2.08500	-1.58000e+02	
			         2.08667	-1.52000e+02	
			         2.08833	-1.44000e+02	
			         2.09000	-1.36000e+02	
			         2.09167	-1.28000e+02	
			         2.09333	-1.19000e+02	
			         2.09500	-1.11000e+02	
			         2.09667	-1.03000e+02	
			         2.09833	-9.60000e+01	
			         2.10000	-9.00000e+01	
			         2.10167	-8.40000e+01	
			         2.10333	-7.90000e+01	
			         2.10500	-7.50000e+01	
			         2.10667	-7.20000e+01	
			         2.10833	-6.80000e+01	
			         2.11000	-6.50000e+01	
			         2.11167	-6.30000e+01	
			         2.11333	-6.00000e+01	
			         2.11500	-5.80000e+01	
			         2.11667	-5.60000e+01	
			         2.11833	-5.40000e+01	
			         2.12000	-5.20000e+01	
			         2.12167	-5.00000e+01	
			         2.12333	-4.90000e+01	
			         2.12500	-4.70000e+01	
			         2.12667	-4.60000e+01	
			         2.12833	-4.60000e+01	
			         2.13000	-4.50000e+01	
			         2.13167	-4.50000e+01	
			         2.13333	-4.50000e+01	
			         2.13500	-4.50000e+01	
			         2.13667	-4.50000e+01	
			         2.13833	-4.50000e+01	
			         2.14000	-4.50000e+01	
			         2.14167	-4.40000e+01	
			         2.14333	-4.40000e+01	
			         2.14500	-4.30000e+01	
			         2.14667	-4.20000e+01	
			         2.14833	-4.00000e+01	
			         2.15000	-3.80000e+01	
			         2.15167	-3.60000e+01	
			         2.15333	-3.40000e+01	
			         2.15500	-3.10000e+01	
			         2.15667	-2.80000e+01	
			         2.15833	-2.60000e+01	
			         2.16000	-2.30000e+01	
			         2.16167	-2.10000e+01	
			         2.16333	-1.90000e+01	
			         2.16500	-1.70000e+01	
			         2.16667	-1.60000e+01	
			         2.16833	-1.50000e+01	
			         2.17000	-1.50000e+01	
			         2.17167	-1.50000e+01	
			         2.17333	-1.60000e+01	
			         2.17500	-1.60000e+01	
			         2.17667	-1.70000e+01	
			         2.17833	-1.80000e+01	
			         2.18000	-1.80000e+01	
			         2.18167	-1.90000e+01	
			         2.18333	-1.90000e+01	
			         2.18500	-1.90000e+01	
			         2.18667	-1.80000e+01	
			         2.18833	-1.70000e+01	
			         2.19000	-1.60000e+01	
			         2.19167	-1.50000e+01	
			         2.19333	-1.30000e+01	
			         2.19500	-1.20000e+01	
			         2.19667	-1.10000e+01	
			         2.19833	-1.00000e+01	
			         2.20000	-9.00000e+00	
			         2.20167	-8.00000e+00	
			         2.20333	-7.00000e+00	
			         2.20500	-7.00000e+00	
			         2.20667	-6.00000e+00	
			         2.20833	-5.00000e+00	
			         2.21000	-5.00000e+00	
			         2.21167	-4.00000e+00	
			         2.21333	-3.00000e+00	
			         2.21500	-2.00000e+00	
			         2.21667	-1.00000e+00	
			         2.21833	0.00000e+00	
			         2.22000	1.00000e+00	
			         2.22167	2.00000e+00	
			         2.22333	4.00000e+00	
			         2.22500	5.00000e+00	
			         2.22667	6.00000e+00	
			         2.22833	7.00000e+00	
			         2.23000	8.00000e+00	
			         2.23167	9.00000e+00	
			         2.23333	9.00000e+00	
			         2.23500	1.00000e+01	
			         2.23667	1.10000e+01	
			         2.23833	1.10000e+01	
			         2.24000	1.10000e+01	
			         2.24167	1.20000e+01	
			         2.24333	1.20000e+01	
			         2.24500	1.30000e+01	
			         2.24667	1.30000e+01	
			         2.24833	1.40000e+01	
			         2.25000	1.50000e+01	
			         2.25167	1.60000e+01	
			         2.25333	1.70000e+01	
			         2.25500	1.80000e+01	
			         2.25667	2.00000e+01	
			         2.25833	2.10000e+01	
			         2.26000	2.20000e+01	
			         2.26167	2.40000e+01	
			         2.26333	2.50000e+01	
			         2.26500	2.60000e+01	
			         2.26667	2.70000e+01	
			         2.26833	2.90000e+01	
			         2.27000	3.00000e+01	
			         2.27167	3.10000e+01	
			         2.27333	3.20000e+01	
			         2.27500	3.30000e+01	
			         2.27667	3.50000e+01	
			         2.27833	3.60000e+01	
			         2.28000	3.70000e+01	
			         2.28167	3.80000e+01	
			         2.28333	3.90000e+01	
			         2.28500	4.00000e+01	
			         2.28667	4.00000e+01	
			         2.28833	4.10000e+01	
			         2.29000	4.20000e+01	
			         2.29167	4.20000e+01	
			         2.29333	4.30000e+01	
			         2.29500	4.40000e+01	
			         2.29667	4.40000e+01	
			         2.29833	4.50000e+01	
			         2.30000	4.60000e+01	
			         2.30167	4.70000e+01	
			         2.30333	4.80000e+01	
			         2.30500	4.80000e+01	
			         2.30667	4.90000e+01	
			         2.30833	5.10000e+01	
			         2.31000	5.20000e+01	
			         2.31167	5.30000e+01	
			         2.31333	5.50000e+01	
			         2.31500	5.70000e+01	
			         2.31667	5.80000e+01	
			         2.31833	6.00000e+01	
			         2.32000	6.20000e+01	
			         2.32167	6.30000e+01	
			         2.32333	6.50000e+01	
			         2.32500	6.50000e+01	
			         2.32667	6.60000e+01	
			         2.32833	6.60000e+01	
			         2.33000	6.50000e+01	
			         2.33167	6.40000e+01	
			         2.33333	6.30000e+01	
			         2.33500	6.10000e+01	
			         2.33667	5.80000e+01	
			         2.33833	5.60000e+01	
			         2.34000	5.30000e+01	
			         2.34167	5.00000e+01	
			         2.34333	4.70000e+01	
			         2.34500	4.40000e+01	
			         2.34667	4.10000e+01	
			         2.34833	3.80000e+01	
			         2.35000	3.60000e+01	
			         2.35167	3.30000e+01	
			         2.35333	3.10000e+01	
			         2.35500	2.90000e+01	
			         2.35667	2.70000e+01	
			         2.35833	2.50000e+01	
			         2.36000	2.30000e+01	
			         2.36167	2.20000e+01	
			         2.36333	2.00000e+01	
			         2.36500	1.90000e+01	
			         2.36667	1.70000e+01	
			         2.36833	1.60000e+01	
			         2.37000	1.40000e+01	
			         2.37167	1.10000e+01	
			         2.37333	9.00000e+00	
			         2.37500	6.00000e+00	
			         2.37667	3.00000e+00	
			         2.37833	-1.00000e+00	
			         2.38000	-5.00000e+00	
			         2.38167	-9.00000e+00	
			         2.38333	-1.30000e+01	
			         2.38500	-1.70000e+01	
			         2.38667	-2.10000e+01	
			         2.38833	-2.50000e+01	
			         2.39000	-2.80000e+01	
			         2.39167	-3.10000e+01	
			         2.39333	-3.30000e+01	
			         2.39500	-3.50000e+01	
			         2.39667	-3.70000e+01	
			         2.39833	-3.80000e+01	
			         2.40000	-3.90000e+01	
			         2.40167	-3.90000e+01	
			         2.40333	-3.90000e+01	
			         2.40500	-4.00000e+01	
			         2.40667	-4.00000e+01	
			         2.40833	-4.00000e+01	
			         2.41000	-4.00000e+01	
			         2.41167	-4.00000e+01	
			         2.41333	-4.10000e+01	
			         2.41500	-4.10000e+01	
			         2.41667	-4.20000e+01	
			         2.41833	-4.30000e+01	
			         2.42000	-4.40000e+01	
			         2.42167	-4.50000e+01	
			         2.42333	-4.60000e+01	
			         2.42500	-4.70000e+01	
			         2.42667	-4.80000e+01	
			         2.42833	-4.80000e+01	
			         2.43000	-4.90000e+01	
			         2.43167	-4.90000e+01	
			         2.43333	-4.80000e+01	
			         2.43500	-4.80000e+01	
			         2.43667	-4.70000e+01	
			         2.43833	-4.50000e+01	
			         2.44000	-4.30000e+01	
			         2.44167	-4.10000e+01	
			         2.44333	-3.80000e+01	
			         2.44500	-3.60000e+01	
			         2.44667	-3.30000e+01	
			         2.44833	-3.10000e+01	
			         2.45000	-3.00000e+01	
			         2.45167	-2.90000e+01	
			         2.45333	-2.80000e+01	
			         2.45500	-2.80000e+01	
			         2.45667	-2.80000e+01	
			         2.45833	-2.90000e+01	
			         2.46000	-3.10000e+01	
			         2.46167	-3.20000e+01	
			         2.46333	-3.40000e+01	
			         2.46500	-3.60000e+01	
			         2.46667	-3.80000e+01	
			         2.46833	-4.00000e+01	
			         2.47000	-4.10000e+01	
			         2.47167	-4.10000e+01	
			         2.47333	-4.20000e+01	
			         2.47500	-4.20000e+01	
			         2.47667	-4.10000e+01	
			         2.47833	-4.00000e+01	
			         2.48000	-3.90000e+01	
			         2.48167	-3.80000e+01	
			         2.48333	-3.60000e+01	
			         2.48500	-3.40000e+01	
			         2.48667	-3.20000e+01	
			         2.48833	-2.90000e+01	
			         2.49000	-2.60000e+01	
			         2.49167	-2.40000e+01	
			         2.49333	-2.20000e+01	
			         2.49500	-1.90000e+01	
			         2.49667	-1.80000e+01	
			         2.49833	-1.60000e+01	
			         2.50000	-1.50000e+01	
			         2.50167	-1.50000e+01	
			         2.50333	-1.50000e+01	
			         2.50500	-1.60000e+01	
			         2.50667	-1.70000e+01	
			         2.50833	-1.90000e+01	
			         2.51000	-2.00000e+01	
			         2.51167	-2.20000e+01	
			         2.51333	-2.30000e+01	
			         2.51500	-2.40000e+01	
			         2.51667	-2.50000e+01	
			         2.51833	-2.60000e+01	
			         2.52000	-2.60000e+01	
			         2.52167	-2.60000e+01	
			         2.52333	-2.50000e+01	
			         2.52500	-2.40000e+01	
			         2.52667	-2.30000e+01	
			         2.52833	-2.10000e+01	
			         2.53000	-2.00000e+01	
			         2.53167	-1.90000e+01	
			         2.53333	-1.90000e+01	
			         2.53500	-1.80000e+01	
			         2.53667	-1.80000e+01	
			         2.53833	-1.80000e+01	
			         2.54000	-1.80000e+01	
			         2.54167	-1.90000e+01	
			         2.54333	-1.90000e+01	
			         2.54500	-2.00000e+01	
			         2.54667	-2.10000e+01	
			         2.54833	-2.20000e+01	
			         2.55000	-2.30000e+01	
			         2.55167	-2.30000e+01	
			         2.55333	-2.40000e+01	
			         2.55500	-2.40000e+01	
			         2.55667	-2.40000e+01	
			         2.55833	-2.30000e+01	
			         2.56000	-2.20000e+01	
			         2.56167	-2.10000e+01	
			         2.56333	-2.00000e+01	
			         2.56500	-1.80000e+01	
			         2.56667	-1.70000e+01	
			         2.56833	-1.60000e+01	
			         2.57000	-1.50000e+01	
			         2.57167	-1.50000e+01	
			         2.57333	-1.40000e+01	
			         2.57500	-1.40000e+01	
			         2.57667	-1.40000e+01	
			         2.57833	-1.40000e+01	
			         2.58000	-1.50000e+01	
			         2.58167	-1.50000e+01	
			         2.58333	-1.60000e+01	
			         2.58500	-1.70000e+01	
			         2.58667	-1.80000e+01	
			         2.58833	-1.90000e+01	
			         2.59000	-1.90000e+01	
			         2.59167	-2.00000e+01	
			         2.59333	-2.00000e+01	
			         2.59500	-2.00000e+01	
			         2.59667	-1.90000e+01	
			         2.59833	-1.90000e+01	
			         2.60000	-1.80000e+01	
			         2.60167	-1.70000e+01	
			         2.60333	-1.70000e+01	
			         2.60500	-1.60000e+01	
			         2.60667	-1.50000e+01	
			         2.60833	-1.40000e+01	
			         2.61000	-1.30000e+01	
			         2.61167	-1.30000e+01	
			         2.61333	-1.20000e+01	
			         2.61500	-1.20000e+01	
			         2.61667	-1.20000e+01	
			         2.61833	-1.20000e+01	
			         2.62000	-1.10000e+01	
			         2.62167	-1.10000e+01	
			         2.62333	-1.10000e+01	
			         2.62500	-1.10000e+01	
			         2.62667	-1.10000e+01	
			         2.62833	-1.00000e+01	
			         2.63000	-1.00000e+01	
			         2.63167	-1.00000e+01	
			         2.63333	-9.00000e+00	
			         2.63500	-8.00000e+00	
			         2.63667	-8.00000e+00	
			         2.63833	-7.00000e+00	
			         2.64000	-6.00000e+00	
			         2.64167	-5.00000e+00	
			         2.64333	-5.00000e+00	
			         2.64500	-5.00000e+00	
			         2.64667	-5.00000e+00	
			         2.64833	-5.00000e+00	
			         2.65000	-5.00000e+00	
			         2.65167	-6.00000e+00	
			         2.65333	-7.00000e+00	
			         2.65500	-8.00000e+00	
			         2.65667	-9.00000e+00	
			         2.65833	-1.10000e+01	
			         2.66000	-1.20000e+01	
			         2.66167	-1.30000e+01	
			         2.66333	-1.40000e+01	
			         2.66500	-1.50000e+01	
			         2.66667	-1.50000e+01	
			         2.66833	-1.50000e+01	
			         2.67000	-1.50000e+01	
			         2.67167	-1.40000e+01	
			         2.67333	-1.40000e+01	
			         2.67500	-1.30000e+01	
			         2.67667	-1.20000e+01	
			         2.67833	-1.20000e+01	
			         2.68000	-1.10000e+01	
			         2.68167	-1.00000e+01	
			         2.68333	-9.00000e+00	
			         2.68500	-9.00000e+00	
			         2.68667	-8.00000e+00	
			         2.68833	-8.00000e+00	
			         2.69000	-7.00000e+00	
			         2.69167	-7.00000e+00	
			         2.69333	-6.00000e+00	
			         2.69500	-5.00000e+00	
			         2.69667	-4.00000e+00	
			         2.69833	-3.00000e+00	
			         2.70000	-2.00000e+00	
			         2.70167	-2.00000e+00	
			         2.70333	-1.00000e+00	
			         2.70500	0.00000e+00	
			         2.70667	0.00000e+00	
			         2.70833	1.00000e+00	
			         2.71000	1.00000e+00	
			         2.71167	1.00000e+00	
			         2.71333	0.00000e+00	
			         2.71500	0.00000e+00	
			         2.71667	0.00000e+00	
			         2.71833	-1.00000e+00	
			         2.72000	-1.00000e+00	
			         2.72167	-1.00000e+00	
			         2.72333	-2.00000e+00	
			         2.72500	-2.00000e+00	
			         2.72667	-2.00000e+00	
			         2.72833	-2.00000e+00	
			         2.73000	-2.00000e+00	
			         2.73167	-2.00000e+00	
			         2.73333	-1.00000e+00	
			         2.73500	-1.00000e+00	
			         2.73667	-1.00000e+00	
			         2.73833	-1.00000e+00	
			         2.74000	-1.00000e+00	
			         2.74167	-1.00000e+00	
			         2.74333	-1.00000e+00	
			         2.74500	-1.00000e+00	
			         2.74667	-2.00000e+00	
			         2.74833	-2.00000e+00	
			         2.75000	-2.00000e+00	
			         2.75167	-2.00000e+00	
			         2.75333	-2.00000e+00	
			         2.75500	-3.00000e+00	
			         2.75667	-3.00000e+00	
			         2.75833	-3.00000e+00	
			         2.76000	-3.00000e+00	
			         2.76167	-4.00000e+00	
			         2.76333	-4.00000e+00	
			         2.76500	-5.00000e+00	
			         2.76667	-5.00000e+00	
			         2.76833	-5.00000e+00	
			         2.77000	-5.00000e+00	
			         2.77167	-5.00000e+00	
			         2.77333	-6.00000e+00	
			         2.77500	-6.00000e+00	
			         2.77667	-6.00000e+00	
			         2.77833	-6.00000e+00	
			         2.78000	-6.00000e+00	
			         2.78167	-6.00000e+00	
			         2.78333	-6.00000e+00	
			         2.78500	-5.00000e+00	
			         2.78667	-5.00000e+00	
			         2.78833	-5.00000e+00	
			         2.79000	-5.00000e+00	
			         2.79167	-5.00000e+00	
			         2.79333	-5.00000e+00	
			         2.79500	-5.00000e+00	
			         2.79667	-4.00000e+00	
			         2.79833	-4.00000e+00	
			         2.80000	-3.00000e+00	
			         2.80167	-2.00000e+00	
			         2.80333	-2.00000e+00	
			         2.80500	-1.00000e+00	
			         2.80667	-1.00000e+00	
			         2.80833	0.00000e+00	
			         2.81000	0.00000e+00	
			         2.81167	0.00000e+00	
			         2.81333	0.00000e+00	
			         2.81500	0.00000e+00	
			         2.81667	-1.00000e+00	
			         2.81833	-1.00000e+00	
			         2.82000	-2.00000e+00	
			         2.82167	-3.00000e+00	
			         2.82333	-4.00000e+00	
			         2.82500	-5.00000e+00	
			         2.82667	-5.00000e+00	
			         2.82833	-6.00000e+00	
			         2.83000	-7.00000e+00	
			         2.83167	-7.00000e+00	
			         2.83333	-7.00000e+00	
			         2.83500	-8.00000e+00	
			         2.83667	-8.00000e+00	
			         2.83833	-7.00000e+00	
			         2.84000	-7.00000e+00	
			         2.84167	-7.00000e+00	
			         2.84333	-6.00000e+00	
			         2.84500	-6.00000e+00	
			         2.84667	-6.00000e+00	
			         2.84833	-5.00000e+00	
			         2.85000	-5.00000e+00	
			         2.85167	-4.00000e+00	
			         2.85333	-4.00000e+00	
			         2.85500	-3.00000e+00	
			         2.85667	-2.00000e+00	
			         2.85833	-1.00000e+00	
			         2.86000	1.00000e+00	
			         2.86167	2.00000e+00	
			         2.86333	4.00000e+00	
			         2.86500	6.00000e+00	
			         2.86667	8.00000e+00	
			         2.86833	1.00000e+01	
			         2.87000	1.20000e+01	
			         2.87167	1.50000e+01	
			         2.87333	1.70000e+01	
			         2.87500	1.90000e+01	
			         2.87667	2.10000e+01	
			         2.87833	2.30000e+01	
			         2.88000	2.50000e+01	
			         2.88167	2.70000e+01	
			         2.88333	2.80000e+01	
			         2.88500	2.90000e+01	
			         2.88667	2.90000e+01	
			         2.88833	3.00000e+01	
			         2.89000	3.00000e+01	
			         2.89167	3.00000e+01	
			         2.89333	3.00000e+01	
			         2.89500	2.90000e+01	
			         2.89667	2.80000e+01	
			         2.89833	2.70000e+01	
			         2.90000	2.60000e+01	
			         2.90167	2.50000e+01	
			         2.90333	2.40000e+01	
			         2.90500	2.30000e+01	
			         2.90667	2.20000e+01	
			         2.90833	2.10000e+01	
			         2.91000	2.00000e+01	
			         2.91167	2.00000e+01	
			         2.91333	1.90000e+01	
			         2.91500	1.80000e+01	
			         2.91667	1.80000e+01	
			         2.91833	1.70000e+01	
			         2.92000	1.60000e+01	
			         2.92167	1.60000e+01	
			         2.92333	1.50000e+01	
			         2.92500	1.30000e+01	
			         2.92667	1.20000e+01	
			         2.92833	9.00000e+00	
			         2.93000	7.00000e+00	
			         2.93167	4.00000e+00	
			         2.93333	1.00000e+00	
			         2.93500	-2.00000e+00	
			         2.93667	-5.00000e+00	
			         2.93833	-8.00000e+00	
			         2.94000	-1.00000e+01	
			         2.94167	-1.30000e+01	
			         2.94333	-1.50000e+01	
			         2.94500	-1.80000e+01	
			         2.94667	-1.90000e+01	
			         2.94833	-2.10000e+01	
			         2.95000	-2.20000e+01	
			         2.95167	-2.30000e+01	
			         2.95333	-2.40000e+01	
			         2.95500	-2.50000e+01	
			         2.95667	-2.60000e+01	
			         2.95833	-2.70000e+01	
			         2.96000	-2.90000e+01	
			         2.96167	-3.10000e+01	
			         2.96333	-3.30000e+01	
			         2.96500	-3.50000e+01	
			         2.96667	-3.80000e+01	
			         2.96833	-4.00000e+01	
			         2.97000	-4.30000e+01	
			         2.97167	-4.50000e+01	
			         2.97333	-4.80000e+01	
			         2.97500	-5.00000e+01	
			         2.97667	-5.20000e+01	
			         2.97833	-5.40000e+01	
			         2.98000	-5.50000e+01	
			         2.98167	-5.60000e+01	
			         2.98333	-5.60000e+01	
			         2.98500	-5.60000e+01	
			         2.98667	-5.60000e+01	
			         2.98833	-5.50000e+01	
			         2.99000	-5.50000e+01	
			         2.99167	-5.40000e+01	
			         2.99333	-5.20000e+01	
			         2.99500	-5.10000e+01	
			         2.99667	-4.90000e+01	
			         2.99833	-4.70000e+01	
			         3.00000	-4.60000e+01	
			         3.00167	-4.40000e+01	
			         3.00333	-4.30000e+01	
			         3.00500	-4.10000e+01	
			         3.00667	-4.00000e+01	
			         3.00833	-4.00000e+01	
			         3.01000	-3.90000e+01	
			         3.01167	-3.80000e+01	
			         3.01333	-3.70000e+01	
			         3.01500	-3.70000e+01	
			         3.01667	-3.60000e+01	
			         3.01833	-3.60000e+01	
			         3.02000	-3.50000e+01	
			         3.02167	-3.50000e+01	
			         3.02333	-3.40000e+01	
			         3.02500	-3.40000e+01	
			         3.02667	-3.30000e+01	
			         3.02833	-3.30000e+01	
			         3.03000	-3.20000e+01	
			         3.03167	-3.20000e+01	
			         3.03333	-3.10000e+01	
			         3.03500	-3.00000e+01	
			         3.03667	-2.90000e+01	
			         3.03833	-2.70000e+01	
			         3.04000	-2.50000e+01	
			         3.04167	-2.20000e+01	
			         3.04333	-1.80000e+01	
			         3.04500	-1.40000e+01	
			         3.04667	-7.00000e+00	
			         3.04833	0.00000e+00	
			         3.05000	1.10000e+01	
			         3.05167	2.30000e+01	
			         3.05333	3.80000e+01	
			         3.05500	5.60000e+01	
			         3.05667	7.60000e+01	
			         3.05833	9.90000e+01	
			         3.06000	1.24000e+02	
			         3.06167	1.50000e+02	
			         3.06333	1.77000e+02	
			         3.06500	2.05000e+02	
			         3.06667	2.33000e+02	
			         3.06833	2.58000e+02	
			         3.07000	2.80000e+02	
			         3.07167	2.97000e+02	
			         3.07333	3.08000e+02	
			         3.07500	3.13000e+02	
			         3.07667	3.10000e+02	
			         3.07833	2.99000e+02	
			         3.08000	2.80000e+02	
			         3.08167	2.54000e+02	
			         3.08333	2.23000e+02	
			         3.08500	1.86000e+02	
			         3.08667	1.46000e+02	
			         3.08833	1.04000e+02	
			         3.09000	6.20000e+01	
			         3.09167	2.10000e+01	
			         3.09333	-1.80000e+01	
			         3.09500	-5.20000e+01	
			         3.09667	-8.30000e+01	
			         3.09833	-1.08000e+02	
			         3.10000	-1.28000e+02	
			         3.10167	-1.43000e+02	
			         3.10333	-1.53000e+02	
			         3.10500	-1.59000e+02	
			         3.10667	-1.62000e+02	
			         3.10833	-1.61000e+02	
			         3.11000	-1.58000e+02	
			         3.11167	-1.53000e+02	
