Velocity (TVI), in cm/s

Time (s) :	Trace 1 : 		Ecg : 		
0.02698   	2.03870e+00		         0.00000	-2.50000e+01	
0.03610   	2.85311e+00		         0.00167	-2.10000e+01	
0.04552   	3.91560e+00		         0.00333	-1.70000e+01	
0.05461   	3.99872e+00		         0.00500	-1.20000e+01	
0.06374   	2.57714e+00		         0.00667	-5.00000e+00	
0.07286   	6.02654e-01		         0.00833	2.00000e+00	
0.08226   	-6.78801e-01		         0.01000	1.00000e+01	
0.09137   	-6.40142e-01		         0.01167	1.90000e+01	
0.10049   	8.56562e-01		         0.01333	3.00000e+01	
0.10962   	2.25277e+00		         0.01500	4.10000e+01	
0.11902   	3.47582e+00		         0.01667	5.20000e+01	
0.12813   	4.02905e+00		         0.01833	6.40000e+01	
0.13725   	4.47155e+00		         0.02000	7.70000e+01	
0.14637   	4.65031e+00		         0.02167	9.00000e+01	
0.15577   	4.48564e+00		         0.02333	1.02000e+02	
0.16488   	4.28111e+00		         0.02500	1.15000e+02	
0.17400   	4.20819e+00		         0.02667	1.27000e+02	
0.18313   	4.18343e+00		         0.02833	1.39000e+02	
0.19254   	4.14321e+00		         0.03000	1.50000e+02	
0.20164   	4.07535e+00		         0.03167	1.60000e+02	
0.21076   	4.19530e+00		         0.03333	1.69000e+02	
0.21988   	4.21202e+00		         0.03500	1.77000e+02	
0.22930   	4.11416e+00		         0.03667	1.83000e+02	
0.23849   	3.88459e+00		         0.03833	1.88000e+02	
0.24752   	3.83180e+00		         0.04000	1.92000e+02	
0.25664   	3.84890e+00		         0.04167	1.95000e+02	
0.26606   	3.69609e+00		         0.04333	1.96000e+02	
0.27515   	3.64650e+00		         0.04500	1.96000e+02	
0.28427   	3.38754e+00		         0.04667	1.94000e+02	
0.29339   	3.27502e+00		         0.04833	1.91000e+02	
0.30281   	3.01544e+00		         0.05000	1.87000e+02	
0.31191   	2.79764e+00		         0.05167	1.82000e+02	
0.32103   	2.61161e+00		         0.05333	1.76000e+02	
0.33015   	2.38309e+00		         0.05500	1.69000e+02	
0.33956   	2.27488e+00		         0.05667	1.61000e+02	
0.34866   	2.14995e+00		         0.05833	1.52000e+02	
0.35779   	1.95308e+00		         0.06000	1.43000e+02	
0.36691   	1.76235e+00		         0.06167	1.33000e+02	
0.37631   	1.40254e+00		         0.06333	1.23000e+02	
0.38542   	1.28065e+00		         0.06500	1.13000e+02	
0.39454   	9.41625e-01		         0.06667	1.02000e+02	
0.40366   	6.73715e-01		         0.06833	9.10000e+01	
0.41307   	6.53709e-02		         0.07000	7.90000e+01	
0.42217   	-7.13127e-01		         0.07167	6.80000e+01	
0.43130   	-1.54578e+00		         0.07333	5.70000e+01	
0.44042   	-1.84012e+00		         0.07500	4.50000e+01	
0.44984   	-1.44766e+00		         0.07667	3.40000e+01	
0.45893   	-6.38164e-01		         0.07833	2.20000e+01	
0.46805   	-2.50009e-01		         0.08000	1.10000e+01	
0.47718   	1.54743e-01		         0.08167	0.00000e+00	
0.48658   	3.79829e-01		         0.08333	-1.10000e+01	
0.49569   	7.11227e-01		         0.08500	-2.10000e+01	
0.50481   	1.08483e+00		         0.08667	-3.10000e+01	
0.51393   	1.15367e+00		         0.08833	-4.10000e+01	
0.52334   	1.17767e+00		         0.09000	-4.90000e+01	
0.53244   	5.87405e-01		         0.09167	-5.70000e+01	
0.54157   	-9.22673e-03		         0.09333	-6.50000e+01	
0.55069   	-7.54630e-01		         0.09500	-7.10000e+01	
0.56011   	-1.52364e+00		         0.09667	-7.70000e+01	
0.56920   	-2.30133e+00		         0.09833	-8.20000e+01	
0.57832   	-3.16029e+00		         0.10000	-8.50000e+01	
0.58744   	-3.96683e+00		         0.10167	-8.80000e+01	
0.59685   	-4.60693e+00		         0.10333	-9.00000e+01	
0.60595   	-5.05873e+00		         0.10500	-9.20000e+01	
0.61508   	-5.14806e+00		         0.10667	-9.20000e+01	
0.62420   	-4.87935e+00		         0.10833	-9.20000e+01	
0.63362   	-4.30053e+00		         0.11000	-9.20000e+01	
0.64271   	-3.57545e+00		         0.11167	-9.10000e+01	
0.65183   	-2.90123e+00		         0.11333	-9.00000e+01	
0.66096   	-2.33976e+00		         0.11500	-8.80000e+01	
0.67036   	-1.76906e+00		         0.11667	-8.60000e+01	
0.67947   	-1.53687e+00		         0.11833	-8.50000e+01	
0.68859   	-1.26474e+00		         0.12000	-8.30000e+01	
0.69771   	-1.10004e+00		         0.12167	-8.10000e+01	
0.70714   	-7.01620e-01		         0.12333	-7.90000e+01	
0.71623   	-4.09899e-01		         0.12500	-7.80000e+01	
0.72535   	-1.79148e-01		         0.12667	-7.60000e+01	
0.73447   	-1.05791e-01		         0.12833	-7.40000e+01	
0.74389   	-3.00479e-02		         0.13000	-7.30000e+01	
0.75311   	-4.60008e-02		         0.13167	-7.20000e+01	
0.76210   	2.77310e-02		         0.13333	-7.10000e+01	
0.77122   	2.16636e-02		         0.13500	-7.00000e+01	
0.78064   	3.63776e-02		         0.13667	-6.90000e+01	
0.78974   	-1.46106e-02		         0.13833	-6.90000e+01	
0.79886   	-5.30515e-02		         0.14000	-6.80000e+01	
0.80798   	-1.36021e-01		         0.14167	-6.70000e+01	
0.81739   	-2.44833e-01		         0.14333	-6.60000e+01	
0.82649   	-4.21056e-01		         0.14500	-6.60000e+01	
0.83562   	-5.25839e-01		         0.14667	-6.50000e+01	
0.84474   	-5.75302e-01		         0.14833	-6.40000e+01	
0.85415   	-5.28730e-01		         0.15000	-6.30000e+01	
0.86325   	-4.87772e-01		         0.15167	-6.20000e+01	
0.87237   	-4.41763e-01		         0.15333	-6.00000e+01	
0.88149   	-4.60714e-01		         0.15500	-5.90000e+01	
0.89091   	-5.23639e-01		         0.15667	-5.80000e+01	
0.90001   	-5.15485e-01		         0.15833	-5.70000e+01	
0.90913   	-4.31440e-01		         0.16000	-5.60000e+01	
0.91825   	-3.08154e-01		         0.16167	-5.50000e+01	
0.92766   	-2.39448e-01		         0.16333	-5.40000e+01	
0.93676   	-1.84153e-01		         0.16500	-5.30000e+01	
0.94589   	-1.31256e-01		         0.16667	-5.30000e+01	
0.95501   	-9.14911e-02		         0.16833	-5.20000e+01	
0.96442   	-8.04990e-02		         0.17000	-5.20000e+01	
0.97352   	-7.98078e-02		         0.17167	-5.10000e+01	
0.98264   	-7.82866e-02		         0.17333	-5.00000e+01	
0.99176   	-6.38402e-02		         0.17500	-4.90000e+01	
1.00118   	-4.51096e-02		         0.17667	-4.80000e+01	
1.01027   	1.54316e-02		         0.17833	-4.70000e+01	
1.01940   	-2.53160e-02		         0.18000	-4.60000e+01	
1.02852   	-1.02299e-01		         0.18167	-4.50000e+01	
1.03793   	-4.85862e-01		         0.18333	-4.40000e+01	
1.04703   	-1.16043e+00		         0.18500	-4.20000e+01	
1.05615   	-2.69625e+00		         0.18667	-4.10000e+01	
1.06527   	-4.62537e+00		         0.18833	-4.00000e+01	
1.07468   	-6.54533e+00		         0.19000	-3.80000e+01	
1.08379   	-7.64511e+00		         0.19167	-3.70000e+01	
1.09291   	-7.90916e+00		         0.19333	-3.60000e+01	
1.10203   	-7.55981e+00		         0.19500	-3.50000e+01	
1.11145   	-6.87797e+00		         0.19667	-3.40000e+01	
1.12054   	-5.93155e+00		         0.19833	-3.30000e+01	
1.12967   	-4.89263e+00		         0.20000	-3.20000e+01	
1.13879   	-3.84019e+00		         0.20167	-3.10000e+01	
1.14821   	-3.22332e+00		         0.20333	-3.00000e+01	
1.15730   	-2.44771e+00		         0.20500	-3.00000e+01	
1.16642   	-1.53406e+00		         0.20667	-2.90000e+01	
1.17554   	-2.21082e-01		         0.20833	-2.90000e+01	
1.18493   	1.41632e+00		         0.21000	-2.80000e+01	
1.19406   	3.07733e+00		         0.21167	-2.80000e+01	
1.20318   	4.35791e+00		         0.21333	-2.70000e+01	
1.21230   	4.09058e+00		         0.21500	-2.70000e+01	
1.22171   	2.79792e+00		         0.21667	-2.60000e+01	
1.23081   	1.77242e+00		         0.21833	-2.60000e+01	
1.23993   	1.61089e+00		         0.22000	-2.60000e+01	
1.24905   	2.00657e+00		         0.22167	-2.50000e+01	
1.25846   	2.32776e+00		         0.22333	-2.50000e+01	
1.26774   	2.88011e+00		         0.22500	-2.50000e+01	
1.27669   	3.76057e+00		         0.22667	-2.40000e+01	
1.28581   	4.57566e+00		         0.22833	-2.40000e+01	
1.29523   	4.94218e+00		         0.23000	-2.30000e+01	
1.30432   	4.97426e+00		         0.23167	-2.30000e+01	
1.31345   	4.81135e+00		         0.23333	-2.20000e+01	
1.32257   	4.70668e+00		         0.23500	-2.10000e+01	
1.33197   	4.63195e+00		         0.23667	-2.10000e+01	
1.34108   	4.50722e+00		         0.23833	-2.00000e+01	
1.35020   	4.41963e+00		         0.24000	-1.90000e+01	
1.35932   	4.33896e+00		         0.24167	-1.90000e+01	
1.36874   	4.38230e+00		         0.24333	-1.80000e+01	
1.37784   	4.40959e+00		         0.24500	-1.70000e+01	
1.38696   	4.45523e+00		         0.24667	-1.70000e+01	
1.39608   	4.30646e+00		         0.24833	-1.60000e+01	
1.40549   	4.22010e+00		         0.25000	-1.50000e+01	
1.41459   	4.08759e+00		         0.25167	-1.50000e+01	
1.42371   	3.96432e+00		         0.25333	-1.40000e+01	
1.43284   	3.68009e+00		         0.25500	-1.30000e+01	
1.44225   	3.33862e+00		         0.25667	-1.20000e+01	
1.45135   	3.11310e+00		         0.25833	-1.10000e+01	
1.46047   	2.93926e+00		         0.26000	-1.10000e+01	
1.46959   	2.71561e+00		         0.26167	-1.00000e+01	
1.47900   	2.57834e+00		         0.26333	-9.00000e+00	
1.48810   	2.42455e+00		         0.26500	-8.00000e+00	
1.49723   	2.24264e+00		         0.26667	-7.00000e+00	
1.50635   	2.05059e+00		         0.26833	-6.00000e+00	
1.51576   	1.78747e+00		         0.27000	-6.00000e+00	
1.52486   	1.72749e+00		         0.27167	-5.00000e+00	
1.53398   	1.49970e+00		         0.27333	-4.00000e+00	
1.54311   	1.31428e+00		         0.27500	-4.00000e+00	
1.55251   	1.00495e+00		         0.27667	-4.00000e+00	
1.56162   	4.20401e-01		         0.27833	-3.00000e+00	
1.57074   	-2.33446e-01		         0.28000	-3.00000e+00	
1.57987   	-1.16935e+00		         0.28167	-2.00000e+00	
1.58928   	-1.68315e+00		         0.28333	-2.00000e+00	
1.59838   	-1.50221e+00		         0.28500	-1.00000e+00	
1.60750   	-8.36108e-01		         0.28667	-1.00000e+00	
1.61662   	-1.47581e-01		         0.28833	0.00000e+00	
1.62603   	1.92451e-01		         0.29000	0.00000e+00	
1.63513   	5.39361e-01		         0.29167	1.00000e+00	
1.64425   	8.08164e-01		         0.29333	1.00000e+00	
1.65338   	1.18380e+00		         0.29500	2.00000e+00	
1.66278   	1.29446e+00		         0.29667	2.00000e+00	
1.67189   	1.57706e+00		         0.29833	3.00000e+00	
1.68101   	1.13227e+00		         0.30000	3.00000e+00	
1.69013   	9.70529e-01		         0.30167	3.00000e+00	
1.69954   	-6.16088e-02		         0.30333	4.00000e+00	
1.70864   	-7.90063e-01		         0.30500	4.00000e+00	
1.71776   	-1.90096e+00		         0.30667	4.00000e+00	
1.72689   	-2.65086e+00		         0.30833	5.00000e+00	
1.73629   	-3.51722e+00		         0.31000	5.00000e+00	
1.74540   	-4.28710e+00		         0.31167	5.00000e+00	
1.75452   	-4.81598e+00		         0.31333	6.00000e+00	
1.76364   	-5.10366e+00		         0.31500	6.00000e+00	
1.77306   	-5.04273e+00		         0.31667	7.00000e+00	
1.78229   	-4.76336e+00		         0.31833	7.00000e+00	
1.79128   	-4.27452e+00		         0.32000	8.00000e+00	
1.80040   	-3.70918e+00		         0.32167	9.00000e+00	
1.80981   	-3.05400e+00		         0.32333	9.00000e+00	
1.81891   	-2.39304e+00		         0.32500	1.00000e+01	
1.82803   	-1.96567e+00		         0.32667	1.00000e+01	
1.83716   	-1.50413e+00		         0.32833	1.00000e+01	
1.84656   	-1.16996e+00		         0.33000	1.10000e+01	
1.85567   	-8.11500e-01		         0.33167	1.10000e+01	
1.86479   	-7.16506e-01		         0.33333	1.10000e+01	
1.87391   	-6.01764e-01		         0.33500	1.10000e+01	
1.88332   	-5.20522e-01		         0.33667	1.10000e+01	
1.89242   	-4.05118e-01		         0.33833	1.10000e+01	
1.90155   	-3.05897e-01		         0.34000	1.00000e+01	
1.91067   	-2.29304e-01		         0.34167	1.00000e+01	
1.92007   	-1.52511e-01		         0.34333	9.00000e+00	
1.92918   	-1.70808e-01		         0.34500	9.00000e+00	
1.93830   	-2.21739e-01		         0.34667	8.00000e+00	
1.94742   	-2.41176e-01		         0.34833	7.00000e+00	
1.95684   	-2.06332e-01		         0.35000	6.00000e+00	
1.96594   	-1.26176e-01		         0.35167	5.00000e+00	
1.97506   	-4.99883e-02		         0.35333	5.00000e+00	
1.98418   	-7.14794e-02		         0.35500	4.00000e+00	
1.99359   	-8.69989e-02		         0.35667	3.00000e+00	
2.00269   	-1.00726e-01		         0.35833	2.00000e+00	
2.01181   	-2.50515e-02		         0.36000	1.00000e+00	
2.02093   	-2.94517e-02		         0.36167	1.00000e+00	
2.03035   	-1.15454e-01		         0.36333	0.00000e+00	
2.03945   	-2.33848e-01		         0.36500	-1.00000e+00	
2.04857   	-3.02359e-01		         0.36667	-1.00000e+00	
2.05769   	-2.80457e-01		         0.36833	-2.00000e+00	
2.06711   	-2.69793e-01		         0.37000	-2.00000e+00	
2.07621   	-2.82938e-01		         0.37167	-3.00000e+00	
2.08533   	-3.37283e-01		         0.37333	-4.00000e+00	
2.09445   	-3.68827e-01		         0.37500	-4.00000e+00	
2.10386   	-3.69427e-01		         0.37667	-5.00000e+00	
2.11296   	-3.49240e-01		         0.37833	-5.00000e+00	
2.12208   	-2.95528e-01		         0.38000	-6.00000e+00	
2.13120   	-2.34292e-01		         0.38167	-7.00000e+00	
2.14062   	-1.87987e-01		         0.38333	-7.00000e+00	
2.14972   	-1.41886e-01		         0.38500	-8.00000e+00	
2.15884   	-1.30454e-01		         0.38667	-8.00000e+00	
2.16796   	-1.66203e-01		         0.38833	-9.00000e+00	
2.17737   	-2.05014e-01		         0.39000	-9.00000e+00	
2.18648   	-3.75305e-01		         0.39167	-9.00000e+00	
2.19559   	-6.65887e-01		         0.39333	-9.00000e+00	
2.20472   	-1.55546e+00		         0.39500	-9.00000e+00	
2.21434   	-2.93514e+00		         0.39667	-1.00000e+01	
2.22323   	-4.86049e+00		         0.39833	-1.00000e+01	
2.23235   	-6.50958e+00		         0.40000	-1.00000e+01	
2.24147   	-7.57772e+00		         0.40167	-1.00000e+01	
2.25089   	-7.88996e+00		         0.40333	-1.00000e+01	
2.25999   	-7.67152e+00		         0.40500	-1.00000e+01	
2.26911   	-7.13581e+00		         0.40667	-1.00000e+01	
2.27823   	-6.13847e+00		         0.40833	-1.10000e+01	
2.28764   	-5.05446e+00		         0.41000	-1.10000e+01	
2.29674   	-4.00780e+00		         0.41167	-1.10000e+01	
2.30586   	-3.26321e+00		         0.41333	-1.20000e+01	
2.31499   	-2.64943e+00		         0.41500	-1.20000e+01	
2.32439   	-1.76631e+00		         0.41667	-1.20000e+01	
2.33350   	-6.78658e-01		         0.41833	-1.30000e+01	
2.34262   	1.07447e+00		         0.42000	-1.30000e+01	
2.35174   	2.99739e+00		         0.42167	-1.30000e+01	
2.36116   	4.59701e+00		         0.42333	-1.30000e+01	
2.37026   	4.23726e+00		         0.42500	-1.20000e+01	
2.37938   	2.63261e+00		         0.42667	-1.20000e+01	
2.38850   	1.26303e+00		         0.42833	-1.10000e+01	
2.39790   	1.27477e+00		         0.43000	-1.10000e+01	
2.40701   	1.73180e+00		         0.43167	-1.00000e+01	
2.41613   	2.14190e+00		         0.43333	-1.00000e+01	
2.42525   	2.70035e+00		         0.43500	-9.00000e+00	
2.43466   	3.71609e+00		         0.43667	-9.00000e+00	
2.44377   	4.65147e+00		         0.43833	-8.00000e+00	
2.45289   	5.09817e+00		         0.44000	-7.00000e+00	
2.46201   	5.15231e+00		         0.44167	-6.00000e+00	
2.47142   	5.04395e+00		         0.44333	-6.00000e+00	
2.48052   	4.85951e+00		         0.44500	-5.00000e+00	
2.48965   	4.67277e+00		         0.44667	-5.00000e+00	
2.49877   	4.53431e+00		         0.44833	-4.00000e+00	
2.50818   	4.45048e+00		         0.45000	-4.00000e+00	
2.51728   	4.44375e+00		         0.45167	-3.00000e+00	
2.52640   	4.34336e+00		         0.45333	-3.00000e+00	
2.53552   	4.27393e+00		         0.45500	-3.00000e+00	
2.54493   	4.18333e+00		         0.45667	-3.00000e+00	
2.55403   	4.17775e+00		         0.45833	-3.00000e+00	
2.56315   	4.19499e+00		         0.46000	-3.00000e+00	
2.57228   	4.11155e+00		         0.46167	-4.00000e+00	
2.58169   	3.89122e+00		         0.46333	-4.00000e+00	
2.59079   	3.65245e+00		         0.46500	-4.00000e+00	
2.59992   	3.39815e+00		         0.46667	-5.00000e+00	
2.60904   	3.22132e+00		         0.46833	-5.00000e+00	
2.61846   	3.06527e+00		         0.47000	-6.00000e+00	
2.62755   	2.99749e+00		         0.47167	-6.00000e+00	
2.63667   	2.88241e+00		         0.47333	-7.00000e+00	
2.64579   	2.55920e+00		         0.47500	-7.00000e+00	
2.65520   	2.31836e+00		         0.47667	-7.00000e+00	
2.66430   	2.01457e+00		         0.47833	-7.00000e+00	
2.67343   	1.98367e+00		         0.48000	-7.00000e+00	
2.68255   	1.87172e+00		         0.48167	-7.00000e+00	
2.69195   	1.68577e+00		         0.48333	-6.00000e+00	
2.70106   	1.46488e+00		         0.48500	-6.00000e+00	
2.71018   	1.04915e+00		         0.48667	-5.00000e+00	
2.71930   	5.77485e-01		         0.48833	-5.00000e+00	
2.72872   	-1.89640e-01		         0.49000	-4.00000e+00	
2.73782   	-1.07211e+00		         0.49167	-3.00000e+00	
2.74694   	-1.88568e+00		         0.49333	-3.00000e+00	
2.75606   	-2.22507e+00		         0.49500	-2.00000e+00	
2.76547   	-2.02747e+00		         0.49667	-2.00000e+00	
2.77457   	-1.01747e+00		         0.49833	-2.00000e+00	
2.78370   	-3.34870e-01		         0.50000	-1.00000e+00	
2.79282   	3.17634e-01		         0.50167	-1.00000e+00	
2.80222   	5.35721e-01		         0.50333	-1.00000e+00	
2.81133   	9.68417e-01		         0.50500	-1.00000e+00	
2.82045   	1.36340e+00		         0.50667	0.00000e+00	
2.82957   	1.26556e+00		         0.50833	0.00000e+00	
2.83899   	9.40248e-01		         0.51000	0.00000e+00	
2.84809   	4.13843e-01		         0.51167	1.00000e+00	
2.85721   	9.09515e-02		         0.51333	1.00000e+00	
2.86633   	-4.83467e-01		         0.51500	1.00000e+00	
2.87573   	-1.21143e+00		         0.51667	2.00000e+00	
2.88484   	-2.20577e+00		         0.51833	2.00000e+00	
2.89396   	-3.10655e+00		         0.52000	3.00000e+00	
2.90309   	-3.87576e+00		         0.52167	3.00000e+00	
2.91249   	-4.37899e+00		         0.52333	4.00000e+00	
2.92160   	-4.58360e+00		         0.52500	4.00000e+00	
2.93072   	-4.65112e+00		         0.52667	4.00000e+00	
2.93984   	-4.53900e+00		         0.52833	4.00000e+00	
2.94925   	-4.21824e+00		         0.53000	4.00000e+00	
2.95835   	-3.76449e+00		         0.53167	5.00000e+00	
2.96748   	-3.13718e+00		         0.53333	5.00000e+00	
2.97660   	-2.48887e+00		         0.53500	5.00000e+00	
2.98602   	-2.01264e+00		         0.53667	4.00000e+00	
2.99511   	-1.54542e+00		         0.53833	4.00000e+00	
3.00423   	-1.41228e+00		         0.54000	4.00000e+00	
3.01335   	-1.23896e+00		         0.54167	4.00000e+00	
3.02277   	-1.17835e+00		         0.54333	4.00000e+00	
3.03187   	-9.29982e-01		         0.54500	4.00000e+00	
3.04099   	-7.27911e-01		         0.54667	4.00000e+00	
3.05011   	-5.12291e-01		         0.54833	4.00000e+00	
3.05951   	-3.54324e-01		         0.55000	4.00000e+00	
3.06862   	-8.02937e-02		         0.55167	4.00000e+00	
3.07774   	-7.86161e-02		         0.55333	4.00000e+00	
3.08687   	-4.83322e-02		         0.55500	4.00000e+00	
3.09628   	-5.13385e-02		         0.55667	4.00000e+00	
3.10538   	2.24118e-02		         0.55833	4.00000e+00	
3.11450   	9.42626e-02		         0.56000	4.00000e+00	
3.12362   	6.68508e-02		         0.56167	4.00000e+00	
3.13304   	4.00274e-02		         0.56333	4.00000e+00	
3.14213   	-5.54973e-02		         0.56500	4.00000e+00	
3.15126   	-1.64263e-01		         0.56667	4.00000e+00	
3.16038   	-2.60307e-01		         0.56833	4.00000e+00	
3.16978   	-3.01094e-01		         0.57000	4.00000e+00	
3.17889   	-3.70637e-01		         0.57167	5.00000e+00	
3.18802   	-4.53342e-01		         0.57333	5.00000e+00	
3.19714   	-5.66388e-01		         0.57500	5.00000e+00	
3.20656   	-5.79505e-01		         0.57667	6.00000e+00	
3.21565   	-5.59754e-01		         0.57833	6.00000e+00	
3.22477   	-4.86023e-01		         0.58000	6.00000e+00	
3.23389   	-3.41121e-01		         0.58167	7.00000e+00	
3.24334   	-1.66061e-01		         0.58333	7.00000e+00	
3.25240   	-6.15141e-02		         0.58500	8.00000e+00	
3.26152   	-1.33247e-01		         0.58667	8.00000e+00	
3.27065   	-2.85335e-01		         0.58833	8.00000e+00	
3.28007   	-3.76036e-01		         0.59000	9.00000e+00	
3.28916   	-3.67761e-01		         0.59167	9.00000e+00	
3.29828   	-2.43510e-01		         0.59333	9.00000e+00	
3.30741   	-1.91401e-01		         0.59500	9.00000e+00	
3.31682   	-1.66901e-01		         0.59667	9.00000e+00	
3.32592   	-1.71955e-01		         0.59833	9.00000e+00	
3.33504   	-2.32100e-01		         0.60000	9.00000e+00	
3.34416   	-4.47360e-01		         0.60167	9.00000e+00	
3.35358   	-8.60429e-01		         0.60333	8.00000e+00	
3.36267   	-1.45669e+00		         0.60500	8.00000e+00	
3.37179   	-2.44676e+00		         0.60667	8.00000e+00	
3.38092   	-4.07102e+00		         0.60833	8.00000e+00	
3.39032   	-5.83860e+00		         0.61000	8.00000e+00	
3.39943   	-7.19180e+00		         0.61167	8.00000e+00	
3.40855   	-7.71552e+00		         0.61333	9.00000e+00	
3.41767   	-7.54726e+00		         0.61500	9.00000e+00	
3.42709   	-7.03340e+00		         0.61667	9.00000e+00	
3.43619   	-6.20318e+00		         0.61833	9.00000e+00	
3.44531   	-5.20018e+00		         0.62000	9.00000e+00	
3.45443   	-4.32215e+00		         0.62167	9.00000e+00	
3.46385   	-3.62788e+00		         0.62333	1.00000e+01	
3.47294   	-3.03942e+00		         0.62500	1.00000e+01	
3.48206   	-1.90528e+00		         0.62667	1.00000e+01	
3.49118   	-7.15919e-01		         0.62833	1.00000e+01	
3.50060   	9.48377e-01		         0.63000	9.00000e+00	
3.50970   	2.50320e+00		         0.63167	9.00000e+00	
3.51882   	3.57826e+00		         0.63333	9.00000e+00	
			         0.63500	9.00000e+00	
			         0.63667	8.00000e+00	
			         0.63833	8.00000e+00	
			         0.64000	8.00000e+00	
			         0.64167	7.00000e+00	
			         0.64333	7.00000e+00	
			         0.64500	7.00000e+00	
			         0.64667	7.00000e+00	
			         0.64833	6.00000e+00	
			         0.65000	6.00000e+00	
			         0.65167	6.00000e+00	
			         0.65333	6.00000e+00	
			         0.65500	6.00000e+00	
			         0.65667	6.00000e+00	
			         0.65833	6.00000e+00	
			         0.66000	6.00000e+00	
			         0.66167	7.00000e+00	
			         0.66333	7.00000e+00	
			         0.66500	7.00000e+00	
			         0.66667	7.00000e+00	
			         0.66833	8.00000e+00	
			         0.67000	8.00000e+00	
			         0.67167	8.00000e+00	
			         0.67333	9.00000e+00	
			         0.67500	9.00000e+00	
			         0.67667	9.00000e+00	
			         0.67833	9.00000e+00	
			         0.68000	9.00000e+00	
			         0.68167	9.00000e+00	
			         0.68333	9.00000e+00	
			         0.68500	9.00000e+00	
			         0.68667	9.00000e+00	
			         0.68833	8.00000e+00	
			         0.69000	8.00000e+00	
			         0.69167	8.00000e+00	
			         0.69333	7.00000e+00	
			         0.69500	7.00000e+00	
			         0.69667	7.00000e+00	
			         0.69833	7.00000e+00	
			         0.70000	7.00000e+00	
			         0.70167	6.00000e+00	
			         0.70333	6.00000e+00	
			         0.70500	6.00000e+00	
			         0.70667	6.00000e+00	
			         0.70833	6.00000e+00	
			         0.71000	6.00000e+00	
			         0.71167	6.00000e+00	
			         0.71333	6.00000e+00	
			         0.71500	6.00000e+00	
			         0.71667	5.00000e+00	
			         0.71833	5.00000e+00	
			         0.72000	5.00000e+00	
			         0.72167	4.00000e+00	
			         0.72333	4.00000e+00	
			         0.72500	4.00000e+00	
			         0.72667	3.00000e+00	
			         0.72833	3.00000e+00	
			         0.73000	3.00000e+00	
			         0.73167	2.00000e+00	
			         0.73333	2.00000e+00	
			         0.73500	2.00000e+00	
			         0.73667	2.00000e+00	
			         0.73833	2.00000e+00	
			         0.74000	2.00000e+00	
			         0.74167	2.00000e+00	
			         0.74333	2.00000e+00	
			         0.74500	2.00000e+00	
			         0.74667	2.00000e+00	
			         0.74833	2.00000e+00	
			         0.75000	2.00000e+00	
			         0.75167	2.00000e+00	
			         0.75333	2.00000e+00	
			         0.75500	2.00000e+00	
			         0.75667	2.00000e+00	
			         0.75833	2.00000e+00	
			         0.76000	2.00000e+00	
			         0.76167	2.00000e+00	
			         0.76333	2.00000e+00	
			         0.76500	1.00000e+00	
			         0.76667	1.00000e+00	
			         0.76833	1.00000e+00	
			         0.77000	1.00000e+00	
			         0.77167	0.00000e+00	
			         0.77333	0.00000e+00	
			         0.77500	0.00000e+00	
			         0.77667	0.00000e+00	
			         0.77833	0.00000e+00	
			         0.78000	-1.00000e+00	
			         0.78167	-1.00000e+00	
			         0.78333	-1.00000e+00	
			         0.78500	-1.00000e+00	
			         0.78667	-2.00000e+00	
			         0.78833	-2.00000e+00	
			         0.79000	-2.00000e+00	
			         0.79167	-2.00000e+00	
			         0.79333	-2.00000e+00	
			         0.79500	-2.00000e+00	
			         0.79667	-2.00000e+00	
			         0.79833	-2.00000e+00	
			         0.80000	-2.00000e+00	
			         0.80167	-2.00000e+00	
			         0.80333	-2.00000e+00	
			         0.80500	-1.00000e+00	
			         0.80667	-1.00000e+00	
			         0.80833	-1.00000e+00	
			         0.81000	0.00000e+00	
			         0.81167	0.00000e+00	
			         0.81333	1.00000e+00	
			         0.81500	1.00000e+00	
			         0.81667	2.00000e+00	
			         0.81833	2.00000e+00	
			         0.82000	3.00000e+00	
			         0.82167	3.00000e+00	
			         0.82333	3.00000e+00	
			         0.82500	4.00000e+00	
			         0.82667	4.00000e+00	
			         0.82833	4.00000e+00	
			         0.83000	4.00000e+00	
			         0.83167	4.00000e+00	
			         0.83333	4.00000e+00	
			         0.83500	4.00000e+00	
			         0.83667	4.00000e+00	
			         0.83833	4.00000e+00	
			         0.84000	4.00000e+00	
			         0.84167	4.00000e+00	
			         0.84333	4.00000e+00	
			         0.84500	4.00000e+00	
			         0.84667	4.00000e+00	
			         0.84833	4.00000e+00	
			         0.85000	4.00000e+00	
			         0.85167	3.00000e+00	
			         0.85333	3.00000e+00	
			         0.85500	3.00000e+00	
			         0.85667	3.00000e+00	
			         0.85833	3.00000e+00	
			         0.86000	2.00000e+00	
			         0.86167	2.00000e+00	
			         0.86333	1.00000e+00	
			         0.86500	1.00000e+00	
			         0.86667	0.00000e+00	
			         0.86833	0.00000e+00	
			         0.87000	-1.00000e+00	
			         0.87167	-2.00000e+00	
			         0.87333	-2.00000e+00	
			         0.87500	-2.00000e+00	
			         0.87667	-2.00000e+00	
			         0.87833	-3.00000e+00	
			         0.88000	-3.00000e+00	
			         0.88167	-3.00000e+00	
			         0.88333	-2.00000e+00	
			         0.88500	-2.00000e+00	
			         0.88667	-2.00000e+00	
			         0.88833	-2.00000e+00	
			         0.89000	-2.00000e+00	
			         0.89167	-1.00000e+00	
			         0.89333	-1.00000e+00	
			         0.89500	-1.00000e+00	
			         0.89667	-1.00000e+00	
			         0.89833	-1.00000e+00	
			         0.90000	-1.00000e+00	
			         0.90167	-1.00000e+00	
			         0.90333	-1.00000e+00	
			         0.90500	-1.00000e+00	
			         0.90667	-1.00000e+00	
			         0.90833	-2.00000e+00	
			         0.91000	-2.00000e+00	
			         0.91167	-2.00000e+00	
			         0.91333	-2.00000e+00	
			         0.91500	-2.00000e+00	
			         0.91667	-2.00000e+00	
			         0.91833	-3.00000e+00	
			         0.92000	-3.00000e+00	
			         0.92167	-3.00000e+00	
			         0.92333	-4.00000e+00	
			         0.92500	-4.00000e+00	
			         0.92667	-4.00000e+00	
			         0.92833	-5.00000e+00	
			         0.93000	-5.00000e+00	
			         0.93167	-5.00000e+00	
			         0.93333	-5.00000e+00	
			         0.93500	-5.00000e+00	
			         0.93667	-5.00000e+00	
			         0.93833	-5.00000e+00	
			         0.94000	-4.00000e+00	
			         0.94167	-4.00000e+00	
			         0.94333	-3.00000e+00	
			         0.94500	-3.00000e+00	
			         0.94667	-2.00000e+00	
			         0.94833	-2.00000e+00	
			         0.95000	-2.00000e+00	
			         0.95167	-1.00000e+00	
			         0.95333	-1.00000e+00	
			         0.95500	-1.00000e+00	
			         0.95667	-1.00000e+00	
			         0.95833	-2.00000e+00	
			         0.96000	-2.00000e+00	
			         0.96167	-2.00000e+00	
			         0.96333	-2.00000e+00	
			         0.96500	-3.00000e+00	
			         0.96667	-3.00000e+00	
			         0.96833	-3.00000e+00	
			         0.97000	-4.00000e+00	
			         0.97167	-4.00000e+00	
			         0.97333	-4.00000e+00	
			         0.97500	-5.00000e+00	
			         0.97667	-5.00000e+00	
			         0.97833	-6.00000e+00	
			         0.98000	-6.00000e+00	
			         0.98167	-7.00000e+00	
			         0.98333	-7.00000e+00	
			         0.98500	-8.00000e+00	
			         0.98667	-8.00000e+00	
			         0.98833	-8.00000e+00	
			         0.99000	-8.00000e+00	
			         0.99167	-8.00000e+00	
			         0.99333	-7.00000e+00	
			         0.99500	-7.00000e+00	
			         0.99667	-6.00000e+00	
			         0.99833	-5.00000e+00	
			         1.00000	-4.00000e+00	
			         1.00167	-3.00000e+00	
			         1.00333	-2.00000e+00	
			         1.00500	-1.00000e+00	
			         1.00667	0.00000e+00	
			         1.00833	1.00000e+00	
			         1.01000	2.00000e+00	
			         1.01167	3.00000e+00	
			         1.01333	3.00000e+00	
			         1.01500	4.00000e+00	
			         1.01667	4.00000e+00	
			         1.01833	5.00000e+00	
			         1.02000	5.00000e+00	
			         1.02167	5.00000e+00	
			         1.02333	6.00000e+00	
			         1.02500	5.00000e+00	
			         1.02667	5.00000e+00	
			         1.02833	5.00000e+00	
			         1.03000	5.00000e+00	
			         1.03167	4.00000e+00	
			         1.03333	4.00000e+00	
			         1.03500	3.00000e+00	
			         1.03667	2.00000e+00	
			         1.03833	1.00000e+00	
			         1.04000	1.00000e+00	
			         1.04167	0.00000e+00	
			         1.04333	-1.00000e+00	
			         1.04500	-2.00000e+00	
			         1.04667	-3.00000e+00	
			         1.04833	-4.00000e+00	
			         1.05000	-4.00000e+00	
			         1.05167	-5.00000e+00	
			         1.05333	-6.00000e+00	
			         1.05500	-6.00000e+00	
			         1.05667	-6.00000e+00	
			         1.05833	-6.00000e+00	
			         1.06000	-7.00000e+00	
			         1.06167	-7.00000e+00	
			         1.06333	-7.00000e+00	
			         1.06500	-7.00000e+00	
			         1.06667	-6.00000e+00	
			         1.06833	-6.00000e+00	
			         1.07000	-6.00000e+00	
			         1.07167	-6.00000e+00	
			         1.07333	-6.00000e+00	
			         1.07500	-6.00000e+00	
			         1.07667	-6.00000e+00	
			         1.07833	-6.00000e+00	
			         1.08000	-6.00000e+00	
			         1.08167	-6.00000e+00	
			         1.08333	-5.00000e+00	
			         1.08500	-5.00000e+00	
			         1.08667	-5.00000e+00	
			         1.08833	-5.00000e+00	
			         1.09000	-4.00000e+00	
			         1.09167	-4.00000e+00	
			         1.09333	-4.00000e+00	
			         1.09500	-4.00000e+00	
			         1.09667	-4.00000e+00	
			         1.09833	-4.00000e+00	
			         1.10000	-4.00000e+00	
			         1.10167	-4.00000e+00	
			         1.10333	-4.00000e+00	
			         1.10500	-4.00000e+00	
			         1.10667	-4.00000e+00	
			         1.10833	-5.00000e+00	
			         1.11000	-5.00000e+00	
			         1.11167	-5.00000e+00	
			         1.11333	-6.00000e+00	
			         1.11500	-6.00000e+00	
			         1.11667	-6.00000e+00	
			         1.11833	-7.00000e+00	
			         1.12000	-7.00000e+00	
			         1.12167	-7.00000e+00	
			         1.12333	-8.00000e+00	
			         1.12500	-8.00000e+00	
			         1.12667	-9.00000e+00	
			         1.12833	-1.00000e+01	
			         1.13000	-1.00000e+01	
			         1.13167	-1.20000e+01	
			         1.13333	-1.30000e+01	
			         1.13500	-1.40000e+01	
			         1.13667	-1.60000e+01	
			         1.13833	-1.70000e+01	
			         1.14000	-1.90000e+01	
			         1.14167	-2.10000e+01	
			         1.14333	-2.20000e+01	
			         1.14500	-2.40000e+01	
			         1.14667	-2.50000e+01	
			         1.14833	-2.50000e+01	
			         1.15000	-2.50000e+01	
			         1.15167	-2.40000e+01	
			         1.15333	-2.30000e+01	
			         1.15500	-2.00000e+01	
			         1.15667	-1.70000e+01	
			         1.15833	-1.30000e+01	
			         1.16000	-7.00000e+00	
			         1.16167	-1.00000e+00	
			         1.16333	6.00000e+00	
			         1.16500	1.50000e+01	
			         1.16667	2.40000e+01	
			         1.16833	3.50000e+01	
			         1.17000	4.60000e+01	
			         1.17167	5.80000e+01	
			         1.17333	7.10000e+01	
			         1.17500	8.40000e+01	
			         1.17667	9.70000e+01	
			         1.17833	1.11000e+02	
			         1.18000	1.25000e+02	
			         1.18167	1.39000e+02	
			         1.18333	1.52000e+02	
			         1.18500	1.64000e+02	
			         1.18667	1.76000e+02	
			         1.18833	1.86000e+02	
			         1.19000	1.95000e+02	
			         1.19167	2.02000e+02	
			         1.19333	2.08000e+02	
			         1.19500	2.13000e+02	
			         1.19667	2.16000e+02	
			         1.19833	2.17000e+02	
			         1.20000	2.16000e+02	
			         1.20167	2.13000e+02	
			         1.20333	2.10000e+02	
			         1.20500	2.04000e+02	
			         1.20667	1.98000e+02	
			         1.20833	1.91000e+02	
			         1.21000	1.82000e+02	
			         1.21167	1.73000e+02	
			         1.21333	1.64000e+02	
			         1.21500	1.53000e+02	
			         1.21667	1.42000e+02	
			         1.21833	1.31000e+02	
			         1.22000	1.19000e+02	
			         1.22167	1.07000e+02	
			         1.22333	9.40000e+01	
			         1.22500	8.20000e+01	
			         1.22667	6.90000e+01	
			         1.22833	5.60000e+01	
			         1.23000	4.30000e+01	
			         1.23167	3.10000e+01	
			         1.23333	1.80000e+01	
			         1.23500	6.00000e+00	
			         1.23667	-5.00000e+00	
			         1.23833	-1.70000e+01	
			         1.24000	-2.70000e+01	
			         1.24167	-3.80000e+01	
			         1.24333	-4.70000e+01	
			         1.24500	-5.60000e+01	
			         1.24667	-6.30000e+01	
			         1.24833	-7.00000e+01	
			         1.25000	-7.60000e+01	
			         1.25167	-8.10000e+01	
			         1.25333	-8.60000e+01	
			         1.25500	-8.90000e+01	
			         1.25667	-9.20000e+01	
			         1.25833	-9.40000e+01	
			         1.26000	-9.50000e+01	
			         1.26167	-9.50000e+01	
			         1.26333	-9.50000e+01	
			         1.26500	-9.50000e+01	
			         1.26667	-9.40000e+01	
			         1.26833	-9.30000e+01	
			         1.27000	-9.20000e+01	
			         1.27167	-9.00000e+01	
			         1.27333	-8.90000e+01	
			         1.27500	-8.70000e+01	
			         1.27667	-8.50000e+01	
			         1.27833	-8.40000e+01	
			         1.28000	-8.20000e+01	
			         1.28167	-8.00000e+01	
			         1.28333	-7.80000e+01	
			         1.28500	-7.70000e+01	
			         1.28667	-7.50000e+01	
			         1.28833	-7.30000e+01	
			         1.29000	-7.10000e+01	
			         1.29167	-6.90000e+01	
			         1.29333	-6.70000e+01	
			         1.29500	-6.50000e+01	
			         1.29667	-6.40000e+01	
			         1.29833	-6.20000e+01	
			         1.30000	-6.00000e+01	
			         1.30167	-5.80000e+01	
			         1.30333	-5.70000e+01	
			         1.30500	-5.60000e+01	
			         1.30667	-5.40000e+01	
			         1.30833	-5.30000e+01	
			         1.31000	-5.30000e+01	
			         1.31167	-5.20000e+01	
			         1.31333	-5.10000e+01	
			         1.31500	-5.10000e+01	
			         1.31667	-5.00000e+01	
			         1.31833	-4.90000e+01	
			         1.32000	-4.90000e+01	
			         1.32167	-4.80000e+01	
			         1.32333	-4.80000e+01	
			         1.32500	-4.70000e+01	
			         1.32667	-4.70000e+01	
			         1.32833	-4.60000e+01	
			         1.33000	-4.50000e+01	
			         1.33167	-4.50000e+01	
			         1.33333	-4.40000e+01	
			         1.33500	-4.40000e+01	
			         1.33667	-4.30000e+01	
			         1.33833	-4.20000e+01	
			         1.34000	-4.10000e+01	
			         1.34167	-4.00000e+01	
			         1.34333	-3.90000e+01	
			         1.34500	-3.80000e+01	
			         1.34667	-3.70000e+01	
			         1.34833	-3.50000e+01	
			         1.35000	-3.40000e+01	
			         1.35167	-3.30000e+01	
			         1.35333	-3.20000e+01	
			         1.35500	-3.10000e+01	
			         1.35667	-3.00000e+01	
			         1.35833	-2.90000e+01	
			         1.36000	-2.80000e+01	
			         1.36167	-2.80000e+01	
			         1.36333	-2.80000e+01	
			         1.36500	-2.70000e+01	
			         1.36667	-2.70000e+01	
			         1.36833	-2.70000e+01	
			         1.37000	-2.70000e+01	
			         1.37167	-2.70000e+01	
			         1.37333	-2.70000e+01	
			         1.37500	-2.70000e+01	
			         1.37667	-2.70000e+01	
			         1.37833	-2.60000e+01	
			         1.38000	-2.60000e+01	
			         1.38167	-2.50000e+01	
			         1.38333	-2.50000e+01	
			         1.38500	-2.40000e+01	
			         1.38667	-2.30000e+01	
			         1.38833	-2.30000e+01	
			         1.39000	-2.20000e+01	
			         1.39167	-2.20000e+01	
			         1.39333	-2.10000e+01	
			         1.39500	-2.00000e+01	
			         1.39667	-2.00000e+01	
			         1.39833	-1.90000e+01	
			         1.40000	-1.80000e+01	
			         1.40167	-1.80000e+01	
			         1.40333	-1.70000e+01	
			         1.40500	-1.70000e+01	
			         1.40667	-1.60000e+01	
			         1.40833	-1.50000e+01	
			         1.41000	-1.50000e+01	
			         1.41167	-1.40000e+01	
			         1.41333	-1.40000e+01	
			         1.41500	-1.30000e+01	
			         1.41667	-1.30000e+01	
			         1.41833	-1.20000e+01	
			         1.42000	-1.20000e+01	
			         1.42167	-1.10000e+01	
			         1.42333	-1.10000e+01	
			         1.42500	-1.00000e+01	
			         1.42667	-1.00000e+01	
			         1.42833	-9.00000e+00	
			         1.43000	-9.00000e+00	
			         1.43167	-8.00000e+00	
			         1.43333	-8.00000e+00	
			         1.43500	-7.00000e+00	
			         1.43667	-7.00000e+00	
			         1.43833	-6.00000e+00	
			         1.44000	-6.00000e+00	
			         1.44167	-5.00000e+00	
			         1.44333	-5.00000e+00	
			         1.44500	-4.00000e+00	
			         1.44667	-3.00000e+00	
			         1.44833	-3.00000e+00	
			         1.45000	-2.00000e+00	
			         1.45167	-2.00000e+00	
			         1.45333	-1.00000e+00	
			         1.45500	0.00000e+00	
			         1.45667	0.00000e+00	
			         1.45833	1.00000e+00	
			         1.46000	2.00000e+00	
			         1.46167	2.00000e+00	
			         1.46333	3.00000e+00	
			         1.46500	4.00000e+00	
			         1.46667	5.00000e+00	
			         1.46833	6.00000e+00	
			         1.47000	7.00000e+00	
			         1.47167	7.00000e+00	
			         1.47333	8.00000e+00	
			         1.47500	9.00000e+00	
			         1.47667	9.00000e+00	
			         1.47833	1.00000e+01	
			         1.48000	1.10000e+01	
			         1.48167	1.10000e+01	
			         1.48333	1.20000e+01	
			         1.48500	1.20000e+01	
			         1.48667	1.30000e+01	
			         1.48833	1.30000e+01	
			         1.49000	1.30000e+01	
			         1.49167	1.40000e+01	
			         1.49333	1.40000e+01	
			         1.49500	1.40000e+01	
			         1.49667	1.50000e+01	
			         1.49833	1.50000e+01	
			         1.50000	1.50000e+01	
			         1.50167	1.50000e+01	
			         1.50333	1.50000e+01	
			         1.50500	1.50000e+01	
			         1.50667	1.40000e+01	
			         1.50833	1.40000e+01	
			         1.51000	1.30000e+01	
			         1.51167	1.20000e+01	
			         1.51333	1.10000e+01	
			         1.51500	9.00000e+00	
			         1.51667	8.00000e+00	
			         1.51833	7.00000e+00	
			         1.52000	5.00000e+00	
			         1.52167	4.00000e+00	
			         1.52333	3.00000e+00	
			         1.52500	1.00000e+00	
			         1.52667	0.00000e+00	
			         1.52833	-1.00000e+00	
			         1.53000	-2.00000e+00	
			         1.53167	-2.00000e+00	
			         1.53333	-3.00000e+00	
			         1.53500	-3.00000e+00	
			         1.53667	-4.00000e+00	
			         1.53833	-4.00000e+00	
			         1.54000	-4.00000e+00	
			         1.54167	-5.00000e+00	
			         1.54333	-5.00000e+00	
			         1.54500	-5.00000e+00	
			         1.54667	-6.00000e+00	
			         1.54833	-6.00000e+00	
			         1.55000	-6.00000e+00	
			         1.55167	-7.00000e+00	
			         1.55333	-7.00000e+00	
			         1.55500	-8.00000e+00	
			         1.55667	-9.00000e+00	
			         1.55833	-9.00000e+00	
			         1.56000	-1.00000e+01	
			         1.56167	-1.10000e+01	
			         1.56333	-1.20000e+01	
			         1.56500	-1.20000e+01	
			         1.56667	-1.30000e+01	
			         1.56833	-1.30000e+01	
			         1.57000	-1.30000e+01	
			         1.57167	-1.40000e+01	
			         1.57333	-1.40000e+01	
			         1.57500	-1.40000e+01	
			         1.57667	-1.40000e+01	
			         1.57833	-1.40000e+01	
			         1.58000	-1.40000e+01	
			         1.58167	-1.40000e+01	
			         1.58333	-1.30000e+01	
			         1.58500	-1.30000e+01	
			         1.58667	-1.30000e+01	
			         1.58833	-1.20000e+01	
			         1.59000	-1.20000e+01	
			         1.59167	-1.20000e+01	
			         1.59333	-1.20000e+01	
			         1.59500	-1.10000e+01	
			         1.59667	-1.10000e+01	
			         1.59833	-1.10000e+01	
			         1.60000	-1.00000e+01	
			         1.60167	-1.00000e+01	
			         1.60333	-1.00000e+01	
			         1.60500	-1.00000e+01	
			         1.60667	-9.00000e+00	
			         1.60833	-9.00000e+00	
			         1.61000	-9.00000e+00	
			         1.61167	-9.00000e+00	
			         1.61333	-9.00000e+00	
			         1.61500	-9.00000e+00	
			         1.61667	-9.00000e+00	
			         1.61833	-9.00000e+00	
			         1.62000	-1.00000e+01	
			         1.62167	-1.00000e+01	
			         1.62333	-1.00000e+01	
			         1.62500	-1.00000e+01	
			         1.62667	-1.00000e+01	
			         1.62833	-1.00000e+01	
			         1.63000	-1.00000e+01	
			         1.63167	-9.00000e+00	
			         1.63333	-9.00000e+00	
			         1.63500	-9.00000e+00	
			         1.63667	-9.00000e+00	
			         1.63833	-8.00000e+00	
			         1.64000	-8.00000e+00	
			         1.64167	-8.00000e+00	
			         1.64333	-7.00000e+00	
			         1.64500	-7.00000e+00	
			         1.64667	-6.00000e+00	
			         1.64833	-6.00000e+00	
			         1.65000	-5.00000e+00	
			         1.65167	-5.00000e+00	
			         1.65333	-5.00000e+00	
			         1.65500	-5.00000e+00	
			         1.65667	-4.00000e+00	
			         1.65833	-4.00000e+00	
			         1.66000	-4.00000e+00	
			         1.66167	-4.00000e+00	
			         1.66333	-4.00000e+00	
			         1.66500	-4.00000e+00	
			         1.66667	-5.00000e+00	
			         1.66833	-5.00000e+00	
			         1.67000	-5.00000e+00	
			         1.67167	-5.00000e+00	
			         1.67333	-5.00000e+00	
			         1.67500	-5.00000e+00	
			         1.67667	-6.00000e+00	
			         1.67833	-6.00000e+00	
			         1.68000	-6.00000e+00	
			         1.68167	-6.00000e+00	
			         1.68333	-5.00000e+00	
			         1.68500	-5.00000e+00	
			         1.68667	-5.00000e+00	
			         1.68833	-5.00000e+00	
			         1.69000	-4.00000e+00	
			         1.69167	-4.00000e+00	
			         1.69333	-4.00000e+00	
			         1.69500	-4.00000e+00	
			         1.69667	-4.00000e+00	
			         1.69833	-4.00000e+00	
			         1.70000	-4.00000e+00	
			         1.70167	-4.00000e+00	
			         1.70333	-4.00000e+00	
			         1.70500	-5.00000e+00	
			         1.70667	-5.00000e+00	
			         1.70833	-5.00000e+00	
			         1.71000	-5.00000e+00	
			         1.71167	-6.00000e+00	
			         1.71333	-6.00000e+00	
			         1.71500	-6.00000e+00	
			         1.71667	-6.00000e+00	
			         1.71833	-6.00000e+00	
			         1.72000	-5.00000e+00	
			         1.72167	-5.00000e+00	
			         1.72333	-5.00000e+00	
			         1.72500	-5.00000e+00	
			         1.72667	-4.00000e+00	
			         1.72833	-4.00000e+00	
			         1.73000	-4.00000e+00	
			         1.73167	-4.00000e+00	
			         1.73333	-4.00000e+00	
			         1.73500	-4.00000e+00	
			         1.73667	-4.00000e+00	
			         1.73833	-4.00000e+00	
			         1.74000	-4.00000e+00	
			         1.74167	-4.00000e+00	
			         1.74333	-4.00000e+00	
			         1.74500	-4.00000e+00	
			         1.74667	-4.00000e+00	
			         1.74833	-5.00000e+00	
			         1.75000	-5.00000e+00	
			         1.75167	-5.00000e+00	
			         1.75333	-5.00000e+00	
			         1.75500	-5.00000e+00	
			         1.75667	-5.00000e+00	
			         1.75833	-5.00000e+00	
			         1.76000	-5.00000e+00	
			         1.76167	-5.00000e+00	
			         1.76333	-5.00000e+00	
			         1.76500	-5.00000e+00	
			         1.76667	-5.00000e+00	
			         1.76833	-5.00000e+00	
			         1.77000	-4.00000e+00	
			         1.77167	-4.00000e+00	
			         1.77333	-4.00000e+00	
			         1.77500	-3.00000e+00	
			         1.77667	-3.00000e+00	
			         1.77833	-3.00000e+00	
			         1.78000	-3.00000e+00	
			         1.78167	-3.00000e+00	
			         1.78333	-3.00000e+00	
			         1.78500	-3.00000e+00	
			         1.78667	-3.00000e+00	
			         1.78833	-2.00000e+00	
			         1.79000	-2.00000e+00	
			         1.79167	-2.00000e+00	
			         1.79333	-2.00000e+00	
			         1.79500	-2.00000e+00	
			         1.79667	-1.00000e+00	
			         1.79833	-1.00000e+00	
			         1.80000	-1.00000e+00	
			         1.80167	-1.00000e+00	
			         1.80333	-1.00000e+00	
			         1.80500	-1.00000e+00	
			         1.80667	-1.00000e+00	
			         1.80833	-1.00000e+00	
			         1.81000	-1.00000e+00	
			         1.81167	-1.00000e+00	
			         1.81333	-2.00000e+00	
			         1.81500	-2.00000e+00	
			         1.81667	-3.00000e+00	
			         1.81833	-3.00000e+00	
			         1.82000	-3.00000e+00	
			         1.82167	-4.00000e+00	
			         1.82333	-4.00000e+00	
			         1.82500	-4.00000e+00	
			         1.82667	-4.00000e+00	
			         1.82833	-4.00000e+00	
			         1.83000	-4.00000e+00	
			         1.83167	-4.00000e+00	
			         1.83333	-4.00000e+00	
			         1.83500	-4.00000e+00	
			         1.83667	-4.00000e+00	
			         1.83833	-4.00000e+00	
			         1.84000	-3.00000e+00	
			         1.84167	-3.00000e+00	
			         1.84333	-3.00000e+00	
			         1.84500	-3.00000e+00	
			         1.84667	-3.00000e+00	
			         1.84833	-3.00000e+00	
			         1.85000	-3.00000e+00	
			         1.85167	-2.00000e+00	
			         1.85333	-2.00000e+00	
			         1.85500	-2.00000e+00	
			         1.85667	-1.00000e+00	
			         1.85833	-1.00000e+00	
			         1.86000	-1.00000e+00	
			         1.86167	0.00000e+00	
			         1.86333	0.00000e+00	
			         1.86500	1.00000e+00	
			         1.86667	2.00000e+00	
			         1.86833	2.00000e+00	
			         1.87000	3.00000e+00	
			         1.87167	3.00000e+00	
			         1.87333	4.00000e+00	
			         1.87500	4.00000e+00	
			         1.87667	4.00000e+00	
			         1.87833	5.00000e+00	
			         1.88000	5.00000e+00	
			         1.88167	5.00000e+00	
			         1.88333	5.00000e+00	
			         1.88500	5.00000e+00	
			         1.88667	5.00000e+00	
			         1.88833	5.00000e+00	
			         1.89000	5.00000e+00	
			         1.89167	5.00000e+00	
			         1.89333	5.00000e+00	
			         1.89500	5.00000e+00	
			         1.89667	4.00000e+00	
			         1.89833	4.00000e+00	
			         1.90000	4.00000e+00	
			         1.90167	4.00000e+00	
			         1.90333	3.00000e+00	
			         1.90500	3.00000e+00	
			         1.90667	3.00000e+00	
			         1.90833	3.00000e+00	
			         1.91000	2.00000e+00	
			         1.91167	2.00000e+00	
			         1.91333	1.00000e+00	
			         1.91500	1.00000e+00	
			         1.91667	0.00000e+00	
			         1.91833	0.00000e+00	
			         1.92000	-1.00000e+00	
			         1.92167	-2.00000e+00	
			         1.92333	-2.00000e+00	
			         1.92500	-3.00000e+00	
			         1.92667	-3.00000e+00	
			         1.92833	-4.00000e+00	
			         1.93000	-4.00000e+00	
			         1.93167	-4.00000e+00	
			         1.93333	-5.00000e+00	
			         1.93500	-5.00000e+00	
			         1.93667	-5.00000e+00	
			         1.93833	-4.00000e+00	
			         1.94000	-4.00000e+00	
			         1.94167	-4.00000e+00	
			         1.94333	-4.00000e+00	
			         1.94500	-3.00000e+00	
			         1.94667	-3.00000e+00	
			         1.94833	-3.00000e+00	
			         1.95000	-2.00000e+00	
			         1.95167	-2.00000e+00	
			         1.95333	-2.00000e+00	
			         1.95500	-2.00000e+00	
			         1.95667	-2.00000e+00	
			         1.95833	-3.00000e+00	
			         1.96000	-3.00000e+00	
			         1.96167	-3.00000e+00	
			         1.96333	-3.00000e+00	
			         1.96500	-3.00000e+00	
			         1.96667	-3.00000e+00	
			         1.96833	-3.00000e+00	
			         1.97000	-4.00000e+00	
			         1.97167	-4.00000e+00	
			         1.97333	-3.00000e+00	
			         1.97500	-3.00000e+00	
			         1.97667	-3.00000e+00	
			         1.97833	-3.00000e+00	
			         1.98000	-3.00000e+00	
			         1.98167	-3.00000e+00	
			         1.98333	-2.00000e+00	
			         1.98500	-2.00000e+00	
			         1.98667	-2.00000e+00	
			         1.98833	-2.00000e+00	
			         1.99000	-2.00000e+00	
			         1.99167	-2.00000e+00	
			         1.99333	-2.00000e+00	
			         1.99500	-2.00000e+00	
			         1.99667	-3.00000e+00	
			         1.99833	-3.00000e+00	
			         2.00000	-3.00000e+00	
			         2.00167	-3.00000e+00	
			         2.00333	-3.00000e+00	
			         2.00500	-3.00000e+00	
			         2.00667	-3.00000e+00	
			         2.00833	-4.00000e+00	
			         2.01000	-4.00000e+00	
			         2.01167	-4.00000e+00	
			         2.01333	-4.00000e+00	
			         2.01500	-4.00000e+00	
			         2.01667	-3.00000e+00	
			         2.01833	-3.00000e+00	
			         2.02000	-3.00000e+00	
			         2.02167	-3.00000e+00	
			         2.02333	-2.00000e+00	
			         2.02500	-2.00000e+00	
			         2.02667	-1.00000e+00	
			         2.02833	0.00000e+00	
			         2.03000	0.00000e+00	
			         2.03167	1.00000e+00	
			         2.03333	2.00000e+00	
			         2.03500	2.00000e+00	
			         2.03667	3.00000e+00	
			         2.03833	4.00000e+00	
			         2.04000	4.00000e+00	
			         2.04167	5.00000e+00	
			         2.04333	5.00000e+00	
			         2.04500	6.00000e+00	
			         2.04667	7.00000e+00	
			         2.04833	7.00000e+00	
			         2.05000	7.00000e+00	
			         2.05167	8.00000e+00	
			         2.05333	8.00000e+00	
			         2.05500	8.00000e+00	
			         2.05667	8.00000e+00	
			         2.05833	8.00000e+00	
			         2.06000	8.00000e+00	
			         2.06167	8.00000e+00	
			         2.06333	7.00000e+00	
			         2.06500	7.00000e+00	
			         2.06667	6.00000e+00	
			         2.06833	6.00000e+00	
			         2.07000	6.00000e+00	
			         2.07167	5.00000e+00	
			         2.07333	5.00000e+00	
			         2.07500	5.00000e+00	
			         2.07667	4.00000e+00	
			         2.07833	4.00000e+00	
			         2.08000	4.00000e+00	
			         2.08167	3.00000e+00	
			         2.08333	3.00000e+00	
			         2.08500	3.00000e+00	
			         2.08667	3.00000e+00	
			         2.08833	3.00000e+00	
			         2.09000	3.00000e+00	
			         2.09167	3.00000e+00	
			         2.09333	3.00000e+00	
			         2.09500	3.00000e+00	
			         2.09667	4.00000e+00	
			         2.09833	4.00000e+00	
			         2.10000	4.00000e+00	
			         2.10167	5.00000e+00	
			         2.10333	5.00000e+00	
			         2.10500	5.00000e+00	
			         2.10667	6.00000e+00	
			         2.10833	6.00000e+00	
			         2.11000	6.00000e+00	
			         2.11167	6.00000e+00	
			         2.11333	6.00000e+00	
			         2.11500	6.00000e+00	
			         2.11667	6.00000e+00	
			         2.11833	6.00000e+00	
			         2.12000	6.00000e+00	
			         2.12167	6.00000e+00	
			         2.12333	6.00000e+00	
			         2.12500	6.00000e+00	
			         2.12667	5.00000e+00	
			         2.12833	5.00000e+00	
			         2.13000	5.00000e+00	
			         2.13167	4.00000e+00	
			         2.13333	3.00000e+00	
			         2.13500	3.00000e+00	
			         2.13667	2.00000e+00	
			         2.13833	1.00000e+00	
			         2.14000	0.00000e+00	
			         2.14167	-1.00000e+00	
			         2.14333	-2.00000e+00	
			         2.14500	-3.00000e+00	
			         2.14667	-4.00000e+00	
			         2.14833	-4.00000e+00	
			         2.15000	-5.00000e+00	
			         2.15167	-5.00000e+00	
			         2.15333	-5.00000e+00	
			         2.15500	-5.00000e+00	
			         2.15667	-4.00000e+00	
			         2.15833	-4.00000e+00	
			         2.16000	-3.00000e+00	
			         2.16167	-1.00000e+00	
			         2.16333	0.00000e+00	
			         2.16500	1.00000e+00	
			         2.16667	3.00000e+00	
			         2.16833	4.00000e+00	
			         2.17000	5.00000e+00	
			         2.17167	6.00000e+00	
			         2.17333	7.00000e+00	
			         2.17500	8.00000e+00	
			         2.17667	8.00000e+00	
			         2.17833	9.00000e+00	
			         2.18000	9.00000e+00	
			         2.18167	9.00000e+00	
			         2.18333	1.00000e+01	
			         2.18500	1.00000e+01	
			         2.18667	1.00000e+01	
			         2.18833	9.00000e+00	
			         2.19000	9.00000e+00	
			         2.19167	9.00000e+00	
			         2.19333	9.00000e+00	
			         2.19500	9.00000e+00	
			         2.19667	9.00000e+00	
			         2.19833	8.00000e+00	
			         2.20000	8.00000e+00	
			         2.20167	8.00000e+00	
			         2.20333	8.00000e+00	
			         2.20500	8.00000e+00	
			         2.20667	7.00000e+00	
			         2.20833	7.00000e+00	
			         2.21000	7.00000e+00	
			         2.21167	7.00000e+00	
			         2.21333	7.00000e+00	
			         2.21500	7.00000e+00	
			         2.21667	7.00000e+00	
			         2.21833	7.00000e+00	
			         2.22000	7.00000e+00	
			         2.22167	7.00000e+00	
			         2.22333	7.00000e+00	
			         2.22500	6.00000e+00	
			         2.22667	6.00000e+00	
			         2.22833	6.00000e+00	
			         2.23000	6.00000e+00	
			         2.23167	6.00000e+00	
			         2.23333	6.00000e+00	
			         2.23500	5.00000e+00	
			         2.23667	5.00000e+00	
			         2.23833	4.00000e+00	
			         2.24000	4.00000e+00	
			         2.24167	3.00000e+00	
			         2.24333	3.00000e+00	
			         2.24500	2.00000e+00	
			         2.24667	1.00000e+00	
			         2.24833	1.00000e+00	
			         2.25000	0.00000e+00	
			         2.25167	0.00000e+00	
			         2.25333	-1.00000e+00	
			         2.25500	-1.00000e+00	
			         2.25667	-2.00000e+00	
			         2.25833	-2.00000e+00	
			         2.26000	-2.00000e+00	
			         2.26167	-3.00000e+00	
			         2.26333	-3.00000e+00	
			         2.26500	-3.00000e+00	
			         2.26667	-3.00000e+00	
			         2.26833	-3.00000e+00	
			         2.27000	-3.00000e+00	
			         2.27167	-2.00000e+00	
			         2.27333	-2.00000e+00	
			         2.27500	-2.00000e+00	
			         2.27667	-2.00000e+00	
			         2.27833	-1.00000e+00	
			         2.28000	-1.00000e+00	
			         2.28167	-1.00000e+00	
			         2.28333	-1.00000e+00	
			         2.28500	-2.00000e+00	
			         2.28667	-3.00000e+00	
			         2.28833	-4.00000e+00	
			         2.29000	-5.00000e+00	
			         2.29167	-7.00000e+00	
			         2.29333	-8.00000e+00	
			         2.29500	-1.00000e+01	
			         2.29667	-1.30000e+01	
			         2.29833	-1.50000e+01	
			         2.30000	-1.70000e+01	
			         2.30167	-1.90000e+01	
			         2.30333	-2.10000e+01	
			         2.30500	-2.20000e+01	
			         2.30667	-2.30000e+01	
			         2.30833	-2.30000e+01	
			         2.31000	-2.20000e+01	
			         2.31167	-2.10000e+01	
			         2.31333	-1.90000e+01	
			         2.31500	-1.60000e+01	
			         2.31667	-1.20000e+01	
			         2.31833	-8.00000e+00	
			         2.32000	-2.00000e+00	
			         2.32167	5.00000e+00	
			         2.32333	1.30000e+01	
			         2.32500	2.20000e+01	
			         2.32667	3.20000e+01	
			         2.32833	4.20000e+01	
			         2.33000	5.40000e+01	
			         2.33167	6.60000e+01	
			         2.33333	7.90000e+01	
			         2.33500	9.20000e+01	
			         2.33667	1.06000e+02	
			         2.33833	1.19000e+02	
			         2.34000	1.33000e+02	
			         2.34167	1.46000e+02	
			         2.34333	1.59000e+02	
			         2.34500	1.71000e+02	
			         2.34667	1.82000e+02	
			         2.34833	1.92000e+02	
			         2.35000	2.01000e+02	
			         2.35167	2.08000e+02	
			         2.35333	2.14000e+02	
			         2.35500	2.18000e+02	
			         2.35667	2.20000e+02	
			         2.35833	2.21000e+02	
			         2.36000	2.20000e+02	
			         2.36167	2.17000e+02	
			         2.36333	2.13000e+02	
			         2.36500	2.08000e+02	
			         2.36667	2.02000e+02	
			         2.36833	1.94000e+02	
			         2.37000	1.86000e+02	
			         2.37167	1.76000e+02	
			         2.37333	1.66000e+02	
			         2.37500	1.56000e+02	
			         2.37667	1.44000e+02	
			         2.37833	1.32000e+02	
			         2.38000	1.20000e+02	
			         2.38167	1.07000e+02	
			         2.38333	9.40000e+01	
			         2.38500	8.10000e+01	
			         2.38667	6.80000e+01	
			         2.38833	5.50000e+01	
			         2.39000	4.20000e+01	
			         2.39167	2.90000e+01	
			         2.39333	1.70000e+01	
			         2.39500	5.00000e+00	
			         2.39667	-7.00000e+00	
			         2.39833	-1.80000e+01	
			         2.40000	-2.80000e+01	
			         2.40167	-3.80000e+01	
			         2.40333	-4.70000e+01	
			         2.40500	-5.50000e+01	
			         2.40667	-6.30000e+01	
			         2.40833	-7.00000e+01	
			         2.41000	-7.60000e+01	
			         2.41167	-8.10000e+01	
			         2.41333	-8.50000e+01	
			         2.41500	-8.90000e+01	
			         2.41667	-9.20000e+01	
			         2.41833	-9.40000e+01	
			         2.42000	-9.50000e+01	
			         2.42167	-9.60000e+01	
			         2.42333	-9.70000e+01	
			         2.42500	-9.70000e+01	
			         2.42667	-9.60000e+01	
			         2.42833	-9.50000e+01	
			         2.43000	-9.40000e+01	
			         2.43167	-9.30000e+01	
			         2.43333	-9.20000e+01	
			         2.43500	-9.10000e+01	
			         2.43667	-8.90000e+01	
			         2.43833	-8.80000e+01	
			         2.44000	-8.60000e+01	
			         2.44167	-8.50000e+01	
			         2.44333	-8.30000e+01	
			         2.44500	-8.10000e+01	
			         2.44667	-8.00000e+01	
			         2.44833	-7.90000e+01	
			         2.45000	-7.70000e+01	
			         2.45167	-7.60000e+01	
			         2.45333	-7.40000e+01	
			         2.45500	-7.30000e+01	
			         2.45667	-7.20000e+01	
			         2.45833	-7.10000e+01	
			         2.46000	-7.00000e+01	
			         2.46167	-6.90000e+01	
			         2.46333	-6.80000e+01	
			         2.46500	-6.70000e+01	
			         2.46667	-6.60000e+01	
			         2.46833	-6.50000e+01	
			         2.47000	-6.30000e+01	
			         2.47167	-6.20000e+01	
			         2.47333	-6.10000e+01	
			         2.47500	-6.00000e+01	
			         2.47667	-5.80000e+01	
			         2.47833	-5.70000e+01	
			         2.48000	-5.60000e+01	
			         2.48167	-5.40000e+01	
			         2.48333	-5.30000e+01	
			         2.48500	-5.20000e+01	
			         2.48667	-5.10000e+01	
			         2.48833	-5.00000e+01	
			         2.49000	-4.90000e+01	
			         2.49167	-4.80000e+01	
			         2.49333	-4.70000e+01	
			         2.49500	-4.60000e+01	
			         2.49667	-4.50000e+01	
			         2.49833	-4.30000e+01	
			         2.50000	-4.20000e+01	
			         2.50167	-4.10000e+01	
			         2.50333	-4.00000e+01	
			         2.50500	-3.80000e+01	
			         2.50667	-3.70000e+01	
			         2.50833	-3.60000e+01	
			         2.51000	-3.40000e+01	
			         2.51167	-3.30000e+01	
			         2.51333	-3.20000e+01	
			         2.51500	-3.10000e+01	
			         2.51667	-2.90000e+01	
			         2.51833	-2.80000e+01	
			         2.52000	-2.70000e+01	
			         2.52167	-2.60000e+01	
			         2.52333	-2.60000e+01	
			         2.52500	-2.50000e+01	
			         2.52667	-2.40000e+01	
			         2.52833	-2.30000e+01	
			         2.53000	-2.30000e+01	
			         2.53167	-2.20000e+01	
			         2.53333	-2.10000e+01	
			         2.53500	-2.10000e+01	
			         2.53667	-2.00000e+01	
			         2.53833	-2.00000e+01	
			         2.54000	-1.90000e+01	
			         2.54167	-1.90000e+01	
			         2.54333	-1.90000e+01	
			         2.54500	-1.90000e+01	
			         2.54667	-1.90000e+01	
			         2.54833	-1.90000e+01	
			         2.55000	-1.90000e+01	
			         2.55167	-1.90000e+01	
			         2.55333	-1.90000e+01	
			         2.55500	-1.90000e+01	
			         2.55667	-1.90000e+01	
			         2.55833	-1.90000e+01	
			         2.56000	-1.80000e+01	
			         2.56167	-1.80000e+01	
			         2.56333	-1.80000e+01	
			         2.56500	-1.80000e+01	
			         2.56667	-1.70000e+01	
			         2.56833	-1.70000e+01	
			         2.57000	-1.60000e+01	
			         2.57167	-1.60000e+01	
			         2.57333	-1.50000e+01	
			         2.57500	-1.50000e+01	
			         2.57667	-1.40000e+01	
			         2.57833	-1.40000e+01	
			         2.58000	-1.40000e+01	
			         2.58167	-1.30000e+01	
			         2.58333	-1.30000e+01	
			         2.58500	-1.30000e+01	
			         2.58667	-1.30000e+01	
			         2.58833	-1.30000e+01	
			         2.59000	-1.30000e+01	
			         2.59167	-1.30000e+01	
			         2.59333	-1.20000e+01	
			         2.59500	-1.20000e+01	
			         2.59667	-1.20000e+01	
			         2.59833	-1.10000e+01	
			         2.60000	-1.10000e+01	
			         2.60167	-1.00000e+01	
			         2.60333	-9.00000e+00	
			         2.60500	-8.00000e+00	
			         2.60667	-7.00000e+00	
			         2.60833	-6.00000e+00	
			         2.61000	-5.00000e+00	
			         2.61167	-4.00000e+00	
			         2.61333	-4.00000e+00	
			         2.61500	-3.00000e+00	
			         2.61667	-2.00000e+00	
			         2.61833	-1.00000e+00	
			         2.62000	-1.00000e+00	
			         2.62167	0.00000e+00	
			         2.62333	0.00000e+00	
			         2.62500	0.00000e+00	
			         2.62667	1.00000e+00	
			         2.62833	1.00000e+00	
			         2.63000	2.00000e+00	
			         2.63167	2.00000e+00	
			         2.63333	3.00000e+00	
			         2.63500	3.00000e+00	
			         2.63667	3.00000e+00	
			         2.63833	4.00000e+00	
			         2.64000	4.00000e+00	
			         2.64167	4.00000e+00	
			         2.64333	4.00000e+00	
			         2.64500	4.00000e+00	
			         2.64667	4.00000e+00	
			         2.64833	5.00000e+00	
			         2.65000	4.00000e+00	
			         2.65167	4.00000e+00	
			         2.65333	4.00000e+00	
			         2.65500	4.00000e+00	
			         2.65667	4.00000e+00	
			         2.65833	4.00000e+00	
			         2.66000	3.00000e+00	
			         2.66167	3.00000e+00	
			         2.66333	3.00000e+00	
			         2.66500	2.00000e+00	
			         2.66667	1.00000e+00	
			         2.66833	1.00000e+00	
			         2.67000	0.00000e+00	
			         2.67167	0.00000e+00	
			         2.67333	-1.00000e+00	
			         2.67500	-2.00000e+00	
			         2.67667	-3.00000e+00	
			         2.67833	-4.00000e+00	
			         2.68000	-5.00000e+00	
			         2.68167	-6.00000e+00	
			         2.68333	-7.00000e+00	
			         2.68500	-8.00000e+00	
			         2.68667	-9.00000e+00	
			         2.68833	-1.00000e+01	
			         2.69000	-1.10000e+01	
			         2.69167	-1.20000e+01	
			         2.69333	-1.20000e+01	
			         2.69500	-1.30000e+01	
			         2.69667	-1.30000e+01	
			         2.69833	-1.40000e+01	
			         2.70000	-1.40000e+01	
			         2.70167	-1.40000e+01	
			         2.70333	-1.40000e+01	
			         2.70500	-1.30000e+01	
			         2.70667	-1.30000e+01	
			         2.70833	-1.30000e+01	
			         2.71000	-1.30000e+01	
			         2.71167	-1.30000e+01	
			         2.71333	-1.30000e+01	
			         2.71500	-1.30000e+01	
			         2.71667	-1.20000e+01	
			         2.71833	-1.20000e+01	
			         2.72000	-1.30000e+01	
			         2.72167	-1.30000e+01	
			         2.72333	-1.30000e+01	
			         2.72500	-1.30000e+01	
			         2.72667	-1.30000e+01	
			         2.72833	-1.30000e+01	
			         2.73000	-1.30000e+01	
			         2.73167	-1.30000e+01	
			         2.73333	-1.30000e+01	
			         2.73500	-1.30000e+01	
			         2.73667	-1.30000e+01	
			         2.73833	-1.30000e+01	
			         2.74000	-1.30000e+01	
			         2.74167	-1.20000e+01	
			         2.74333	-1.20000e+01	
			         2.74500	-1.20000e+01	
			         2.74667	-1.10000e+01	
			         2.74833	-1.10000e+01	
			         2.75000	-1.00000e+01	
			         2.75167	-1.00000e+01	
			         2.75333	-1.00000e+01	
			         2.75500	-9.00000e+00	
			         2.75667	-9.00000e+00	
			         2.75833	-9.00000e+00	
			         2.76000	-8.00000e+00	
			         2.76167	-8.00000e+00	
			         2.76333	-8.00000e+00	
			         2.76500	-8.00000e+00	
			         2.76667	-7.00000e+00	
			         2.76833	-7.00000e+00	
			         2.77000	-6.00000e+00	
			         2.77167	-6.00000e+00	
			         2.77333	-5.00000e+00	
			         2.77500	-5.00000e+00	
			         2.77667	-5.00000e+00	
			         2.77833	-4.00000e+00	
			         2.78000	-4.00000e+00	
			         2.78167	-4.00000e+00	
			         2.78333	-3.00000e+00	
			         2.78500	-3.00000e+00	
			         2.78667	-3.00000e+00	
			         2.78833	-3.00000e+00	
			         2.79000	-3.00000e+00	
			         2.79167	-3.00000e+00	
			         2.79333	-3.00000e+00	
			         2.79500	-3.00000e+00	
			         2.79667	-3.00000e+00	
			         2.79833	-3.00000e+00	
			         2.80000	-4.00000e+00	
			         2.80167	-4.00000e+00	
			         2.80333	-4.00000e+00	
			         2.80500	-4.00000e+00	
			         2.80667	-5.00000e+00	
			         2.80833	-5.00000e+00	
			         2.81000	-5.00000e+00	
			         2.81167	-5.00000e+00	
			         2.81333	-5.00000e+00	
			         2.81500	-5.00000e+00	
			         2.81667	-5.00000e+00	
			         2.81833	-4.00000e+00	
			         2.82000	-4.00000e+00	
			         2.82167	-4.00000e+00	
			         2.82333	-3.00000e+00	
			         2.82500	-3.00000e+00	
			         2.82667	-3.00000e+00	
			         2.82833	-2.00000e+00	
			         2.83000	-2.00000e+00	
			         2.83167	-2.00000e+00	
			         2.83333	-2.00000e+00	
			         2.83500	-2.00000e+00	
			         2.83667	-2.00000e+00	
			         2.83833	-2.00000e+00	
			         2.84000	-2.00000e+00	
			         2.84167	-2.00000e+00	
			         2.84333	-3.00000e+00	
			         2.84500	-3.00000e+00	
			         2.84667	-3.00000e+00	
			         2.84833	-3.00000e+00	
			         2.85000	-3.00000e+00	
			         2.85167	-3.00000e+00	
			         2.85333	-3.00000e+00	
			         2.85500	-3.00000e+00	
			         2.85667	-2.00000e+00	
			         2.85833	-2.00000e+00	
			         2.86000	-2.00000e+00	
			         2.86167	-2.00000e+00	
			         2.86333	-2.00000e+00	
			         2.86500	-3.00000e+00	
			         2.86667	-3.00000e+00	
			         2.86833	-3.00000e+00	
			         2.87000	-3.00000e+00	
			         2.87167	-3.00000e+00	
			         2.87333	-3.00000e+00	
			         2.87500	-4.00000e+00	
			         2.87667	-4.00000e+00	
			         2.87833	-4.00000e+00	
			         2.88000	-4.00000e+00	
			         2.88167	-4.00000e+00	
			         2.88333	-4.00000e+00	
			         2.88500	-4.00000e+00	
			         2.88667	-4.00000e+00	
			         2.88833	-4.00000e+00	
			         2.89000	-4.00000e+00	
			         2.89167	-4.00000e+00	
			         2.89333	-4.00000e+00	
			         2.89500	-3.00000e+00	
			         2.89667	-3.00000e+00	
			         2.89833	-2.00000e+00	
			         2.90000	-2.00000e+00	
			         2.90167	-1.00000e+00	
			         2.90333	-1.00000e+00	
			         2.90500	0.00000e+00	
			         2.90667	0.00000e+00	
			         2.90833	0.00000e+00	
			         2.91000	1.00000e+00	
			         2.91167	1.00000e+00	
			         2.91333	2.00000e+00	
			         2.91500	2.00000e+00	
			         2.91667	2.00000e+00	
			         2.91833	2.00000e+00	
			         2.92000	2.00000e+00	
			         2.92167	1.00000e+00	
			         2.92333	1.00000e+00	
			         2.92500	1.00000e+00	
			         2.92667	0.00000e+00	
			         2.92833	0.00000e+00	
			         2.93000	0.00000e+00	
			         2.93167	0.00000e+00	
			         2.93333	0.00000e+00	
			         2.93500	0.00000e+00	
			         2.93667	0.00000e+00	
			         2.93833	0.00000e+00	
			         2.94000	0.00000e+00	
			         2.94167	0.00000e+00	
			         2.94333	0.00000e+00	
			         2.94500	0.00000e+00	
			         2.94667	0.00000e+00	
			         2.94833	0.00000e+00	
			         2.95000	0.00000e+00	
			         2.95167	0.00000e+00	
			         2.95333	0.00000e+00	
			         2.95500	0.00000e+00	
			         2.95667	0.00000e+00	
			         2.95833	0.00000e+00	
			         2.96000	1.00000e+00	
			         2.96167	1.00000e+00	
			         2.96333	1.00000e+00	
			         2.96500	1.00000e+00	
			         2.96667	2.00000e+00	
			         2.96833	2.00000e+00	
			         2.97000	2.00000e+00	
			         2.97167	2.00000e+00	
			         2.97333	3.00000e+00	
			         2.97500	3.00000e+00	
			         2.97667	3.00000e+00	
			         2.97833	4.00000e+00	
			         2.98000	4.00000e+00	
			         2.98167	4.00000e+00	
			         2.98333	4.00000e+00	
			         2.98500	4.00000e+00	
			         2.98667	3.00000e+00	
			         2.98833	3.00000e+00	
			         2.99000	3.00000e+00	
			         2.99167	2.00000e+00	
			         2.99333	2.00000e+00	
			         2.99500	1.00000e+00	
			         2.99667	1.00000e+00	
			         2.99833	1.00000e+00	
			         3.00000	0.00000e+00	
			         3.00167	0.00000e+00	
			         3.00333	0.00000e+00	
			         3.00500	0.00000e+00	
			         3.00667	0.00000e+00	
			         3.00833	0.00000e+00	
			         3.01000	0.00000e+00	
			         3.01167	0.00000e+00	
			         3.01333	0.00000e+00	
			         3.01500	0.00000e+00	
			         3.01667	0.00000e+00	
			         3.01833	0.00000e+00	
			         3.02000	0.00000e+00	
			         3.02167	0.00000e+00	
			         3.02333	-1.00000e+00	
			         3.02500	-1.00000e+00	
			         3.02667	-1.00000e+00	
			         3.02833	-1.00000e+00	
			         3.03000	-2.00000e+00	
			         3.03167	-2.00000e+00	
			         3.03333	-2.00000e+00	
			         3.03500	-2.00000e+00	
			         3.03667	-2.00000e+00	
			         3.03833	-3.00000e+00	
			         3.04000	-3.00000e+00	
			         3.04167	-3.00000e+00	
			         3.04333	-3.00000e+00	
			         3.04500	-3.00000e+00	
			         3.04667	-3.00000e+00	
			         3.04833	-3.00000e+00	
			         3.05000	-2.00000e+00	
			         3.05167	-2.00000e+00	
			         3.05333	-2.00000e+00	
			         3.05500	-2.00000e+00	
			         3.05667	-1.00000e+00	
			         3.05833	-1.00000e+00	
			         3.06000	0.00000e+00	
			         3.06167	0.00000e+00	
			         3.06333	1.00000e+00	
			         3.06500	2.00000e+00	
			         3.06667	2.00000e+00	
			         3.06833	3.00000e+00	
			         3.07000	3.00000e+00	
			         3.07167	3.00000e+00	
			         3.07333	4.00000e+00	
			         3.07500	4.00000e+00	
			         3.07667	4.00000e+00	
			         3.07833	4.00000e+00	
			         3.08000	4.00000e+00	
			         3.08167	4.00000e+00	
			         3.08333	4.00000e+00	
			         3.08500	4.00000e+00	
			         3.08667	4.00000e+00	
			         3.08833	4.00000e+00	
			         3.09000	4.00000e+00	
			         3.09167	4.00000e+00	
			         3.09333	4.00000e+00	
			         3.09500	5.00000e+00	
			         3.09667	5.00000e+00	
			         3.09833	4.00000e+00	
			         3.10000	4.00000e+00	
			         3.10167	4.00000e+00	
			         3.10333	4.00000e+00	
			         3.10500	4.00000e+00	
			         3.10667	4.00000e+00	
			         3.10833	4.00000e+00	
			         3.11000	4.00000e+00	
			         3.11167	4.00000e+00	
			         3.11333	4.00000e+00	
			         3.11500	4.00000e+00	
			         3.11667	4.00000e+00	
			         3.11833	4.00000e+00	
			         3.12000	5.00000e+00	
			         3.12167	5.00000e+00	
			         3.12333	5.00000e+00	
			         3.12500	5.00000e+00	
			         3.12667	5.00000e+00	
			         3.12833	5.00000e+00	
			         3.13000	5.00000e+00	
			         3.13167	6.00000e+00	
			         3.13333	6.00000e+00	
			         3.13500	6.00000e+00	
			         3.13667	6.00000e+00	
			         3.13833	6.00000e+00	
			         3.14000	7.00000e+00	
			         3.14167	7.00000e+00	
			         3.14333	7.00000e+00	
			         3.14500	7.00000e+00	
			         3.14667	6.00000e+00	
			         3.14833	6.00000e+00	
			         3.15000	6.00000e+00	
			         3.15167	6.00000e+00	
			         3.15333	5.00000e+00	
			         3.15500	5.00000e+00	
			         3.15667	5.00000e+00	
			         3.15833	5.00000e+00	
			         3.16000	4.00000e+00	
			         3.16167	4.00000e+00	
			         3.16333	4.00000e+00	
			         3.16500	4.00000e+00	
			         3.16667	4.00000e+00	
			         3.16833	4.00000e+00	
			         3.17000	4.00000e+00	
			         3.17167	3.00000e+00	
			         3.17333	3.00000e+00	
			         3.17500	3.00000e+00	
			         3.17667	3.00000e+00	
			         3.17833	3.00000e+00	
			         3.18000	3.00000e+00	
			         3.18167	3.00000e+00	
			         3.18333	3.00000e+00	
			         3.18500	3.00000e+00	
			         3.18667	3.00000e+00	
			         3.18833	3.00000e+00	
			         3.19000	3.00000e+00	
			         3.19167	3.00000e+00	
			         3.19333	3.00000e+00	
			         3.19500	3.00000e+00	
			         3.19667	4.00000e+00	
			         3.19833	4.00000e+00	
			         3.20000	4.00000e+00	
			         3.20167	4.00000e+00	
			         3.20333	4.00000e+00	
			         3.20500	4.00000e+00	
			         3.20667	4.00000e+00	
			         3.20833	4.00000e+00	
			         3.21000	4.00000e+00	
			         3.21167	4.00000e+00	
			         3.21333	4.00000e+00	
			         3.21500	4.00000e+00	
			         3.21667	4.00000e+00	
			         3.21833	3.00000e+00	
			         3.22000	3.00000e+00	
			         3.22167	3.00000e+00	
			         3.22333	2.00000e+00	
			         3.22500	1.00000e+00	
			         3.22667	1.00000e+00	
			         3.22833	0.00000e+00	
			         3.23000	-1.00000e+00	
			         3.23167	-2.00000e+00	
			         3.23333	-2.00000e+00	
			         3.23500	-3.00000e+00	
			         3.23667	-4.00000e+00	
			         3.23833	-4.00000e+00	
			         3.24000	-4.00000e+00	
			         3.24167	-5.00000e+00	
			         3.24333	-5.00000e+00	
			         3.24500	-5.00000e+00	
			         3.24667	-5.00000e+00	
			         3.24833	-5.00000e+00	
			         3.25000	-5.00000e+00	
			         3.25167	-4.00000e+00	
			         3.25333	-4.00000e+00	
			         3.25500	-4.00000e+00	
			         3.25667	-4.00000e+00	
			         3.25833	-4.00000e+00	
			         3.26000	-3.00000e+00	
			         3.26167	-3.00000e+00	
			         3.26333	-3.00000e+00	
			         3.26500	-3.00000e+00	
			         3.26667	-3.00000e+00	
			         3.26833	-3.00000e+00	
			         3.27000	-3.00000e+00	
			         3.27167	-3.00000e+00	
			         3.27333	-3.00000e+00	
			         3.27500	-3.00000e+00	
			         3.27667	-4.00000e+00	
			         3.27833	-4.00000e+00	
			         3.28000	-4.00000e+00	
			         3.28167	-5.00000e+00	
			         3.28333	-5.00000e+00	
			         3.28500	-6.00000e+00	
			         3.28667	-6.00000e+00	
			         3.28833	-7.00000e+00	
			         3.29000	-8.00000e+00	
			         3.29167	-8.00000e+00	
			         3.29333	-9.00000e+00	
			         3.29500	-9.00000e+00	
			         3.29667	-1.00000e+01	
			         3.29833	-1.00000e+01	
			         3.30000	-1.00000e+01	
			         3.30167	-1.00000e+01	
			         3.30333	-1.00000e+01	
			         3.30500	-1.00000e+01	
			         3.30667	-1.00000e+01	
			         3.30833	-9.00000e+00	
			         3.31000	-8.00000e+00	
			         3.31167	-8.00000e+00	
			         3.31333	-7.00000e+00	
			         3.31500	-6.00000e+00	
			         3.31667	-5.00000e+00	
			         3.31833	-4.00000e+00	
			         3.32000	-2.00000e+00	
			         3.32167	-1.00000e+00	
			         3.32333	0.00000e+00	
			         3.32500	1.00000e+00	
			         3.32667	3.00000e+00	
			         3.32833	4.00000e+00	
			         3.33000	5.00000e+00	
			         3.33167	6.00000e+00	
			         3.33333	7.00000e+00	
			         3.33500	8.00000e+00	
			         3.33667	9.00000e+00	
			         3.33833	1.00000e+01	
			         3.34000	1.10000e+01	
			         3.34167	1.20000e+01	
			         3.34333	1.20000e+01	
			         3.34500	1.30000e+01	
			         3.34667	1.30000e+01	
			         3.34833	1.30000e+01	
			         3.35000	1.30000e+01	
			         3.35167	1.30000e+01	
			         3.35333	1.30000e+01	
			         3.35500	1.30000e+01	
			         3.35667	1.20000e+01	
			         3.35833	1.10000e+01	
			         3.36000	1.10000e+01	
			         3.36167	1.00000e+01	
			         3.36333	9.00000e+00	
			         3.36500	8.00000e+00	
			         3.36667	7.00000e+00	
			         3.36833	6.00000e+00	
			         3.37000	5.00000e+00	
			         3.37167	4.00000e+00	
			         3.37333	3.00000e+00	
			         3.37500	2.00000e+00	
			         3.37667	2.00000e+00	
			         3.37833	1.00000e+00	
			         3.38000	0.00000e+00	
			         3.38167	0.00000e+00	
			         3.38333	0.00000e+00	
			         3.38500	0.00000e+00	
			         3.38667	-1.00000e+00	
			         3.38833	-1.00000e+00	
			         3.39000	-1.00000e+00	
			         3.39167	-1.00000e+00	
			         3.39333	-2.00000e+00	
			         3.39500	-2.00000e+00	
			         3.39667	-2.00000e+00	
			         3.39833	-2.00000e+00	
			         3.40000	-2.00000e+00	
			         3.40167	-3.00000e+00	
			         3.40333	-3.00000e+00	
			         3.40500	-3.00000e+00	
			         3.40667	-3.00000e+00	
			         3.40833	-3.00000e+00	
			         3.41000	-3.00000e+00	
			         3.41167	-2.00000e+00	
			         3.41333	-2.00000e+00	
			         3.41500	-2.00000e+00	
			         3.41667	-1.00000e+00	
			         3.41833	-1.00000e+00	
			         3.42000	0.00000e+00	
			         3.42167	0.00000e+00	
			         3.42333	1.00000e+00	
			         3.42500	1.00000e+00	
			         3.42667	1.00000e+00	
			         3.42833	2.00000e+00	
			         3.43000	2.00000e+00	
			         3.43167	2.00000e+00	
			         3.43333	2.00000e+00	
			         3.43500	2.00000e+00	
			         3.43667	1.00000e+00	
			         3.43833	1.00000e+00	
			         3.44000	0.00000e+00	
			         3.44167	-1.00000e+00	
			         3.44333	-3.00000e+00	
			         3.44500	-4.00000e+00	
			         3.44667	-6.00000e+00	
			         3.44833	-8.00000e+00	
			         3.45000	-1.00000e+01	
			         3.45167	-1.20000e+01	
			         3.45333	-1.40000e+01	
			         3.45500	-1.70000e+01	
			         3.45667	-1.90000e+01	
			         3.45833	-2.10000e+01	
			         3.46000	-2.30000e+01	
			         3.46167	-2.50000e+01	
			         3.46333	-2.70000e+01	
			         3.46500	-2.80000e+01	
			         3.46667	-3.00000e+01	
			         3.46833	-3.00000e+01	
			         3.47000	-3.00000e+01	
			         3.47167	-3.00000e+01	
			         3.47333	-2.90000e+01	
			         3.47500	-2.60000e+01	
			         3.47667	-2.30000e+01	
			         3.47833	-1.90000e+01	
			         3.48000	-1.30000e+01	
			         3.48167	-6.00000e+00	
			         3.48333	1.00000e+00	
			         3.48500	1.00000e+01	
			         3.48667	2.00000e+01	
			         3.48833	3.10000e+01	
			         3.49000	4.30000e+01	
			         3.49167	5.60000e+01	
			         3.49333	7.00000e+01	
			         3.49500	8.30000e+01	
			         3.49667	9.80000e+01	
			         3.49833	1.12000e+02	
			         3.50000	1.26000e+02	
			         3.50167	1.39000e+02	
			         3.50333	1.52000e+02	
			         3.50500	1.65000e+02	
			         3.50667	1.76000e+02	
			         3.50833	1.86000e+02	
			         3.51000	1.95000e+02	
			         3.51167	2.03000e+02	
			         3.51333	2.09000e+02	
			         3.51500	2.13000e+02	
			         3.51667	2.16000e+02	
			         3.51833	2.16000e+02	
			         3.52000	2.16000e+02	
			         3.52167	2.13000e+02	
			         3.52333	2.10000e+02	
			         3.52500	2.05000e+02	
			         3.52667	1.98000e+02	
			         3.52833	1.91000e+02	
			         3.53000	1.83000e+02	
			         3.53167	1.73000e+02	
			         3.53333	1.63000e+02	
			         3.53500	1.52000e+02	
			         3.53667	1.41000e+02	
			         3.53833	1.30000e+02	
			         3.54000	1.18000e+02	
			         3.54167	1.06000e+02	
			         3.54333	9.30000e+01	
			         3.54500	8.10000e+01	
			         3.54667	6.80000e+01	
			         3.54833	5.60000e+01	
			         3.55000	4.30000e+01	
			         3.55167	3.10000e+01	
			         3.55333	1.90000e+01	
