Velocity (TVI), in cm/s

Time (s) :	Trace 1 : 		Ecg : 		
0.01314   	3.18255e-01		         0.00000	3.00000e+02	
0.02027   	-7.70034e-02		         0.00167	3.79000e+02	
0.02724   	1.47005e-02		         0.00333	4.62000e+02	
0.03428   	1.01954e-01		         0.00500	5.46000e+02	
0.04133   	-4.06885e-02		         0.00667	6.29000e+02	
0.04838   	-1.81739e-01		         0.00833	7.05000e+02	
0.05543   	6.46768e-02		         0.01000	7.72000e+02	
0.06248   	-1.21737e-01		         0.01167	8.25000e+02	
0.06952   	4.98573e-01		         0.01333	8.61000e+02	
0.07657   	1.18194e+00		         0.01500	8.78000e+02	
0.08361   	1.58407e+00		         0.01667	8.74000e+02	
0.09066   	2.57672e+00		         0.01833	8.48000e+02	
0.09771   	3.60522e+00		         0.02000	8.02000e+02	
0.10476   	4.08771e+00		         0.02167	7.38000e+02	
0.11181   	4.36716e+00		         0.02333	6.58000e+02	
0.11889   	4.74018e+00		         0.02500	5.68000e+02	
0.12590   	4.76462e+00		         0.02667	4.70000e+02	
0.13295   	4.79582e+00		         0.02833	3.69000e+02	
0.14000   	4.88632e+00		         0.03000	2.68000e+02	
0.14704   	4.99234e+00		         0.03167	1.71000e+02	
0.15409   	4.99328e+00		         0.03333	8.10000e+01	
0.16114   	4.94341e+00		         0.03500	0.00000e+00	
0.16818   	4.97398e+00		         0.03667	-7.20000e+01	
0.17523   	4.95004e+00		         0.03833	-1.32000e+02	
0.18228   	4.86864e+00		         0.04000	-1.82000e+02	
0.18933   	4.79618e+00		         0.04167	-2.21000e+02	
0.19637   	4.76009e+00		         0.04333	-2.51000e+02	
0.20342   	4.67246e+00		         0.04500	-2.73000e+02	
0.21047   	4.55984e+00		         0.04667	-2.87000e+02	
0.21751   	4.47620e+00		         0.04833	-2.96000e+02	
0.22456   	4.42521e+00		         0.05000	-2.99000e+02	
0.23161   	4.31589e+00		         0.05167	-3.00000e+02	
0.23866   	4.23758e+00		         0.05333	-2.97000e+02	
0.24570   	4.13668e+00		         0.05500	-2.92000e+02	
0.25275   	4.01723e+00		         0.05667	-2.85000e+02	
0.25980   	3.83463e+00		         0.05833	-2.77000e+02	
0.26684   	3.70500e+00		         0.06000	-2.69000e+02	
0.27389   	3.55193e+00		         0.06167	-2.60000e+02	
0.28094   	3.40329e+00		         0.06333	-2.52000e+02	
0.28799   	3.28177e+00		         0.06500	-2.44000e+02	
0.29503   	3.17290e+00		         0.06667	-2.36000e+02	
0.30208   	2.99707e+00		         0.06833	-2.29000e+02	
0.30913   	2.83531e+00		         0.07000	-2.22000e+02	
0.31617   	2.72188e+00		         0.07167	-2.16000e+02	
0.32322   	2.54303e+00		         0.07333	-2.10000e+02	
0.33027   	2.38218e+00		         0.07500	-2.05000e+02	
0.33731   	2.25424e+00		         0.07667	-2.00000e+02	
0.34436   	2.10578e+00		         0.07833	-1.95000e+02	
0.35141   	1.88951e+00		         0.08000	-1.90000e+02	
0.35846   	1.72743e+00		         0.08167	-1.86000e+02	
0.36551   	1.49751e+00		         0.08333	-1.81000e+02	
0.37255   	1.22779e+00		         0.08500	-1.77000e+02	
0.37960   	8.63812e-01		         0.08667	-1.72000e+02	
0.38665   	5.80289e-01		         0.08833	-1.67000e+02	
0.39369   	4.84668e-01		         0.09000	-1.62000e+02	
0.40074   	5.26982e-01		         0.09167	-1.57000e+02	
0.40779   	6.53544e-01		         0.09333	-1.52000e+02	
0.41483   	8.32425e-01		         0.09500	-1.48000e+02	
0.42189   	8.89382e-01		         0.09667	-1.44000e+02	
0.42893   	6.70255e-01		         0.09833	-1.40000e+02	
0.43598   	4.10813e-01		         0.10000	-1.36000e+02	
0.44303   	-5.50132e-02		         0.10167	-1.33000e+02	
0.45007   	-5.59762e-01		         0.10333	-1.30000e+02	
0.45712   	-1.18857e+00		         0.10500	-1.26000e+02	
0.46417   	-2.12108e+00		         0.10667	-1.23000e+02	
0.47122   	-3.16363e+00		         0.10833	-1.20000e+02	
0.47826   	-4.19326e+00		         0.11000	-1.17000e+02	
0.48531   	-5.06198e+00		         0.11167	-1.14000e+02	
0.49236   	-5.73144e+00		         0.11333	-1.11000e+02	
0.49940   	-5.99659e+00		         0.11500	-1.08000e+02	
0.50644   	-6.17318e+00		         0.11667	-1.05000e+02	
0.51350   	-6.16936e+00		         0.11833	-1.01000e+02	
0.52054   	-6.22334e+00		         0.12000	-9.80000e+01	
0.52759   	-6.23591e+00		         0.12167	-9.50000e+01	
0.53464   	-6.17500e+00		         0.12333	-9.20000e+01	
0.54169   	-6.00024e+00		         0.12500	-8.80000e+01	
0.54873   	-5.68390e+00		         0.12667	-8.60000e+01	
0.55578   	-5.27330e+00		         0.12833	-8.30000e+01	
0.56283   	-4.68890e+00		         0.13000	-8.00000e+01	
0.56987   	-4.06489e+00		         0.13167	-7.80000e+01	
0.57692   	-3.43889e+00		         0.13333	-7.60000e+01	
0.58397   	-2.85870e+00		         0.13500	-7.40000e+01	
0.59102   	-2.30691e+00		         0.13667	-7.20000e+01	
0.59806   	-1.88857e+00		         0.13833	-7.10000e+01	
0.60511   	-1.51737e+00		         0.14000	-7.00000e+01	
0.61216   	-1.21397e+00		         0.14167	-6.80000e+01	
0.61920   	-9.56773e-01		         0.14333	-6.70000e+01	
0.62625   	-7.00276e-01		         0.14500	-6.60000e+01	
0.63348   	-4.64373e-01		         0.14667	-6.50000e+01	
0.64035   	-2.75256e-01		         0.14833	-6.40000e+01	
0.64739   	-9.08500e-02		         0.15000	-6.30000e+01	
0.65444   	6.84895e-02		         0.15167	-6.20000e+01	
0.66149   	1.21928e-01		         0.15333	-6.00000e+01	
0.66853   	1.05138e-01		         0.15500	-5.80000e+01	
0.67558   	6.15911e-02		         0.15667	-5.60000e+01	
0.68263   	-1.64243e-02		         0.15833	-5.30000e+01	
0.68968   	-1.12917e-01		         0.16000	-4.90000e+01	
0.69672   	-1.88439e-01		         0.16167	-4.60000e+01	
0.70377   	-3.96346e-01		         0.16333	-4.20000e+01	
0.71082   	-8.11082e-01		         0.16500	-3.80000e+01	
0.71787   	-1.51384e+00		         0.16667	-3.40000e+01	
0.72491   	-2.80409e+00		         0.16833	-3.10000e+01	
0.73196   	-4.49155e+00		         0.17000	-2.70000e+01	
0.73901   	-6.07080e+00		         0.17167	-2.40000e+01	
0.74605   	-7.35798e+00		         0.17333	-2.10000e+01	
0.75310   	-8.15358e+00		         0.17500	-1.80000e+01	
0.76015   	-8.16539e+00		         0.17667	-1.60000e+01	
0.76720   	-7.55055e+00		         0.17833	-1.40000e+01	
0.77425   	-6.59873e+00		         0.18000	-1.30000e+01	
0.78129   	-5.53756e+00		         0.18167	-1.10000e+01	
0.78834   	-4.66412e+00		         0.18333	-1.00000e+01	
0.79539   	-3.95688e+00		         0.18500	-8.00000e+00	
0.80243   	-3.32957e+00		         0.18667	-7.00000e+00	
0.80948   	-2.81481e+00		         0.18833	-5.00000e+00	
0.81653   	-2.38969e+00		         0.19000	-3.00000e+00	
0.82358   	-1.92415e+00		         0.19167	-1.00000e+00	
0.83062   	-1.34792e+00		         0.19333	1.00000e+00	
0.83767   	-5.44619e-01		         0.19500	3.00000e+00	
0.84472   	1.13819e-01		         0.19667	5.00000e+00	
0.85176   	7.23206e-01		         0.19833	7.00000e+00	
0.85881   	1.21027e+00		         0.20000	9.00000e+00	
0.86619   	1.26500e+00		         0.20167	1.10000e+01	
0.87291   	8.93478e-01		         0.20333	1.30000e+01	
0.87995   	6.20591e-01		         0.20500	1.50000e+01	
0.88700   	2.61146e-01		         0.20667	1.80000e+01	
0.89405   	2.35755e-01		         0.20833	2.10000e+01	
0.90109   	6.30532e-01		         0.21000	2.40000e+01	
0.90814   	1.39621e+00		         0.21167	2.80000e+01	
0.91519   	2.14025e+00		         0.21333	3.10000e+01	
0.92224   	2.98013e+00		         0.21500	3.60000e+01	
0.92928   	3.69227e+00		         0.21667	4.00000e+01	
0.93633   	4.23056e+00		         0.21833	4.50000e+01	
0.94338   	4.51485e+00		         0.22000	4.90000e+01	
0.95042   	4.73840e+00		         0.22167	5.40000e+01	
0.95747   	4.90363e+00		         0.22333	5.90000e+01	
0.96452   	4.97221e+00		         0.22500	6.40000e+01	
0.97157   	5.10591e+00		         0.22667	6.80000e+01	
0.97861   	5.16155e+00		         0.22833	7.30000e+01	
0.98566   	5.17956e+00		         0.23000	7.70000e+01	
0.99271   	5.22733e+00		         0.23167	8.10000e+01	
0.99976   	5.22319e+00		         0.23333	8.50000e+01	
1.00680   	5.15213e+00		         0.23500	8.90000e+01	
1.01385   	5.09604e+00		         0.23667	9.30000e+01	
1.02090   	5.04150e+00		         0.23833	9.70000e+01	
1.02795   	4.95799e+00		         0.24000	1.01000e+02	
1.03499   	4.85674e+00		         0.24167	1.05000e+02	
1.04204   	4.81500e+00		         0.24333	1.08000e+02	
1.04909   	4.77556e+00		         0.24500	1.12000e+02	
1.05614   	4.69187e+00		         0.24667	1.14000e+02	
1.06318   	4.59109e+00		         0.24833	1.17000e+02	
1.07023   	4.49567e+00		         0.25000	1.19000e+02	
1.07728   	4.39855e+00		         0.25167	1.21000e+02	
1.08432   	4.28289e+00		         0.25333	1.23000e+02	
1.09137   	4.16662e+00		         0.25500	1.24000e+02	
1.09842   	4.03159e+00		         0.25667	1.25000e+02	
1.10547   	3.88133e+00		         0.25833	1.26000e+02	
1.11251   	3.69779e+00		         0.26000	1.27000e+02	
1.11956   	3.52424e+00		         0.26167	1.26000e+02	
1.12661   	3.36090e+00		         0.26333	1.26000e+02	
1.13365   	3.18011e+00		         0.26500	1.25000e+02	
1.14070   	3.01578e+00		         0.26667	1.24000e+02	
1.14808   	2.83985e+00		         0.26833	1.22000e+02	
1.15480   	2.67620e+00		         0.27000	1.20000e+02	
1.16184   	2.50549e+00		         0.27167	1.18000e+02	
1.16889   	2.30010e+00		         0.27333	1.15000e+02	
1.17594   	2.12967e+00		         0.27500	1.12000e+02	
1.18298   	1.94285e+00		         0.27667	1.08000e+02	
1.19003   	1.70401e+00		         0.27833	1.04000e+02	
1.19708   	1.41945e+00		         0.28000	1.00000e+02	
1.20413   	1.11892e+00		         0.28167	9.60000e+01	
1.21117   	7.21118e-01		         0.28333	9.10000e+01	
1.21822   	2.11912e-01		         0.28500	8.50000e+01	
1.22527   	-3.31497e-01		         0.28667	8.00000e+01	
1.23231   	-7.34238e-01		         0.28833	7.40000e+01	
1.23936   	-8.73947e-01		         0.29000	6.80000e+01	
1.24641   	-8.96312e-01		         0.29167	6.20000e+01	
1.25346   	-7.55281e-01		         0.29333	5.50000e+01	
1.26051   	-5.00418e-01		         0.29500	4.80000e+01	
1.26755   	-3.03779e-01		         0.29667	4.10000e+01	
1.27460   	-3.15954e-01		         0.29833	3.40000e+01	
1.28164   	-4.64371e-01		         0.30000	2.60000e+01	
1.28869   	-6.76337e-01		         0.30167	1.90000e+01	
1.29574   	-8.55969e-01		         0.30333	1.10000e+01	
1.30279   	-1.35387e+00		         0.30500	3.00000e+00	
1.30984   	-1.98445e+00		         0.30667	-4.00000e+00	
1.31688   	-2.59235e+00		         0.30833	-1.20000e+01	
1.32393   	-3.29616e+00		         0.31000	-2.00000e+01	
1.33098   	-4.03829e+00		         0.31167	-2.70000e+01	
1.33803   	-4.52001e+00		         0.31333	-3.50000e+01	
1.34507   	-4.86900e+00		         0.31500	-4.20000e+01	
1.35212   	-5.17185e+00		         0.31667	-4.80000e+01	
1.35917   	-5.26554e+00		         0.31833	-5.40000e+01	
1.36621   	-5.32861e+00		         0.32000	-6.00000e+01	
1.37326   	-5.31433e+00		         0.32167	-6.50000e+01	
1.38057   	-5.22112e+00		         0.32333	-7.00000e+01	
1.38736   	-5.05532e+00		         0.32500	-7.40000e+01	
1.39440   	-4.88556e+00		         0.32667	-7.80000e+01	
1.40144   	-4.68679e+00		         0.32833	-8.10000e+01	
1.40850   	-4.42768e+00		         0.33000	-8.30000e+01	
1.41554   	-4.11319e+00		         0.33167	-8.50000e+01	
1.42259   	-3.75253e+00		         0.33333	-8.70000e+01	
1.42964   	-3.34777e+00		         0.33500	-8.80000e+01	
1.43669   	-2.89880e+00		         0.33667	-9.00000e+01	
1.44373   	-2.40117e+00		         0.33833	-9.10000e+01	
1.45078   	-1.92860e+00		         0.34000	-9.20000e+01	
1.45783   	-1.46289e+00		         0.34167	-9.30000e+01	
1.46487   	-1.02039e+00		         0.34333	-9.30000e+01	
1.47192   	-6.75837e-01		         0.34500	-9.40000e+01	
1.47897   	-4.02257e-01		         0.34667	-9.40000e+01	
1.48602   	-2.07760e-01		         0.34833	-9.40000e+01	
1.49306   	-5.28330e-02		         0.35000	-9.40000e+01	
1.50011   	2.22875e-02		         0.35167	-9.40000e+01	
1.50716   	7.55464e-02		         0.35333	-9.30000e+01	
1.51420   	3.23261e-02		         0.35500	-9.20000e+01	
1.52125   	-7.44097e-03		         0.35667	-9.00000e+01	
1.52830   	-7.62568e-02		         0.35833	-8.80000e+01	
1.53535   	-1.12741e-01		         0.36000	-8.60000e+01	
1.54239   	-2.38003e-01		         0.36167	-8.40000e+01	
1.54944   	-5.37133e-01		         0.36333	-8.20000e+01	
1.55649   	-1.10919e+00		         0.36500	-8.00000e+01	
1.56353   	-2.15318e+00		         0.36667	-7.80000e+01	
1.57058   	-3.72503e+00		         0.36833	-7.70000e+01	
1.57763   	-5.47641e+00		         0.37000	-7.50000e+01	
1.58468   	-7.07682e+00		         0.37167	-7.40000e+01	
1.59173   	-8.21162e+00		         0.37333	-7.30000e+01	
1.59877   	-8.66479e+00		         0.37500	-7.20000e+01	
1.60582   	-8.43956e+00		         0.37667	-7.10000e+01	
1.61315   	-7.65067e+00		         0.37833	-7.00000e+01	
1.61992   	-6.51689e+00		         0.38000	-6.90000e+01	
1.62696   	-5.43426e+00		         0.38167	-6.80000e+01	
1.63401   	-4.50163e+00		         0.38333	-6.60000e+01	
1.64106   	-3.65559e+00		         0.38500	-6.50000e+01	
1.64810   	-3.01589e+00		         0.38667	-6.30000e+01	
1.65515   	-2.52192e+00		         0.38833	-6.20000e+01	
1.66220   	-2.01033e+00		         0.39000	-6.00000e+01	
1.66925   	-1.50188e+00		         0.39167	-5.90000e+01	
1.67629   	-1.05923e+00		         0.39333	-5.70000e+01	
1.68334   	-4.38979e-01		         0.39500	-5.70000e+01	
1.69039   	2.99656e-01		         0.39667	-5.60000e+01	
1.69743   	7.94178e-01		         0.39833	-5.60000e+01	
1.70448   	1.01210e+00		         0.40000	-5.60000e+01	
1.71153   	9.22321e-01		         0.40167	-5.60000e+01	
1.71858   	7.79561e-01		         0.40333	-5.60000e+01	
1.72562   	4.95071e-01		         0.40500	-5.70000e+01	
1.73267   	2.84388e-01		         0.40667	-5.70000e+01	
1.73972   	5.05428e-01		         0.40833	-5.70000e+01	
1.74676   	1.23651e+00		         0.41000	-5.60000e+01	
1.75381   	1.92743e+00		         0.41167	-5.60000e+01	
1.76086   	2.56499e+00		         0.41333	-5.50000e+01	
1.76790   	3.41071e+00		         0.41500	-5.30000e+01	
1.77495   	4.02332e+00		         0.41667	-5.10000e+01	
1.78200   	4.43850e+00		         0.41833	-4.90000e+01	
1.78905   	4.73636e+00		         0.42000	-4.70000e+01	
1.79609   	5.00997e+00		         0.42167	-4.50000e+01	
1.80314   	5.09367e+00		         0.42333	-4.30000e+01	
1.81019   	5.22815e+00		         0.42500	-4.10000e+01	
1.81724   	5.32108e+00		         0.42667	-4.00000e+01	
1.82428   	5.35551e+00		         0.42833	-3.90000e+01	
1.83133   	5.34253e+00		         0.43000	-3.80000e+01	
1.83838   	5.32190e+00		         0.43167	-3.70000e+01	
1.84543   	5.23782e+00		         0.43333	-3.60000e+01	
1.85247   	5.14918e+00		         0.43500	-3.60000e+01	
1.85952   	5.08476e+00		         0.43667	-3.60000e+01	
1.86657   	5.01118e+00		         0.43833	-3.60000e+01	
1.87361   	4.94611e+00		         0.44000	-3.60000e+01	
1.88066   	4.90415e+00		         0.44167	-3.60000e+01	
1.88771   	4.87480e+00		         0.44333	-3.50000e+01	
1.89476   	4.79477e+00		         0.44500	-3.40000e+01	
1.90180   	4.70719e+00		         0.44667	-3.30000e+01	
1.90885   	4.62424e+00		         0.44833	-3.20000e+01	
1.91590   	4.51928e+00		         0.45000	-3.00000e+01	
1.92295   	4.39891e+00		         0.45167	-2.90000e+01	
1.92999   	4.29688e+00		         0.45333	-2.70000e+01	
1.93704   	4.20046e+00		         0.45500	-2.60000e+01	
1.94408   	4.06257e+00		         0.45667	-2.40000e+01	
1.95114   	3.91274e+00		         0.45833	-2.20000e+01	
1.95818   	3.75326e+00		         0.46000	-2.00000e+01	
1.96523   	3.55784e+00		         0.46167	-1.90000e+01	
1.97228   	3.37483e+00		         0.46333	-1.80000e+01	
1.97932   	3.20582e+00		         0.46500	-1.70000e+01	
1.98637   	3.02400e+00		         0.46667	-1.60000e+01	
1.99342   	2.81707e+00		         0.46833	-1.60000e+01	
2.00046   	2.63038e+00		         0.47000	-1.50000e+01	
2.00751   	2.41628e+00		         0.47167	-1.50000e+01	
2.01456   	2.18559e+00		         0.47333	-1.50000e+01	
2.02161   	1.98277e+00		         0.47500	-1.40000e+01	
2.02865   	1.76584e+00		         0.47667	-1.40000e+01	
2.03570   	1.50506e+00		         0.47833	-1.30000e+01	
2.04275   	1.19881e+00		         0.48000	-1.10000e+01	
2.04979   	8.08441e-01		         0.48167	-1.00000e+01	
2.05684   	2.88360e-01		         0.48333	-8.00000e+00	
2.06389   	-3.42196e-01		         0.48500	-5.00000e+00	
2.07094   	-8.91417e-01		         0.48667	-3.00000e+00	
2.07799   	-1.17096e+00		         0.48833	0.00000e+00	
2.08503   	-1.18844e+00		         0.49000	2.00000e+00	
2.09208   	-1.07515e+00		         0.49167	5.00000e+00	
2.09913   	-7.81968e-01		         0.49333	7.00000e+00	
2.10617   	-4.60254e-01		         0.49500	8.00000e+00	
2.11322   	-3.98033e-01		         0.49667	9.00000e+00	
2.12027   	-4.20672e-01		         0.49833	9.00000e+00	
2.12757   	-6.13938e-01		         0.50000	9.00000e+00	
2.13436   	-8.71847e-01		         0.50167	9.00000e+00	
2.14141   	-1.31580e+00		         0.50333	8.00000e+00	
2.14846   	-1.88626e+00		         0.50500	8.00000e+00	
2.15551   	-2.60079e+00		         0.50667	7.00000e+00	
2.16255   	-3.21943e+00		         0.50833	7.00000e+00	
2.16960   	-3.85602e+00		         0.51000	7.00000e+00	
2.17664   	-4.35733e+00		         0.51167	7.00000e+00	
2.18369   	-4.69316e+00		         0.51333	7.00000e+00	
2.19074   	-4.92162e+00		         0.51500	8.00000e+00	
2.19779   	-5.06591e+00		         0.51667	8.00000e+00	
2.20484   	-5.11937e+00		         0.51833	9.00000e+00	
2.21188   	-5.12032e+00		         0.52000	9.00000e+00	
2.21893   	-5.08387e+00		         0.52167	9.00000e+00	
2.22597   	-5.03517e+00		         0.52333	9.00000e+00	
2.23302   	-4.91381e+00		         0.52500	8.00000e+00	
2.24007   	-4.77518e+00		         0.52667	7.00000e+00	
2.24712   	-4.61681e+00		         0.52833	5.00000e+00	
2.25416   	-4.41158e+00		         0.53000	4.00000e+00	
2.26121   	-4.09830e+00		         0.53167	2.00000e+00	
2.26826   	-3.74783e+00		         0.53333	1.00000e+00	
2.27530   	-3.30888e+00		         0.53500	0.00000e+00	
2.28235   	-2.78724e+00		         0.53667	-1.00000e+00	
2.28940   	-2.21131e+00		         0.53833	-1.00000e+00	
2.29644   	-1.68351e+00		         0.54000	-1.00000e+00	
2.30350   	-1.18548e+00		         0.54167	-1.00000e+00	
2.31054   	-7.61598e-01		         0.54333	0.00000e+00	
2.31759   	-4.52982e-01		         0.54500	1.00000e+00	
2.32464   	-2.52245e-01		         0.54667	2.00000e+00	
2.33168   	-1.51262e-01		         0.54833	3.00000e+00	
2.33873   	-1.18972e-01		         0.55000	4.00000e+00	
2.34578   	-1.56607e-01		         0.55167	5.00000e+00	
2.35283   	-2.44131e-01		         0.55333	6.00000e+00	
2.36003   	-2.89689e-01		         0.55500	7.00000e+00	
2.36692   	-3.06660e-01		         0.55667	7.00000e+00	
2.37397   	-2.93360e-01		         0.55833	7.00000e+00	
2.38102   	-2.20771e-01		         0.56000	7.00000e+00	
2.38806   	-1.62977e-01		         0.56167	7.00000e+00	
2.39511   	-3.77364e-01		         0.56333	7.00000e+00	
2.40216   	-9.09690e-01		         0.56500	7.00000e+00	
2.40920   	-1.87555e+00		         0.56667	6.00000e+00	
2.41625   	-3.40468e+00		         0.56833	6.00000e+00	
2.42330   	-5.28758e+00		         0.57000	5.00000e+00	
2.43035   	-6.97443e+00		         0.57167	5.00000e+00	
2.43739   	-8.12770e+00		         0.57333	4.00000e+00	
2.44444   	-8.62748e+00		         0.57500	3.00000e+00	
2.45149   	-8.43494e+00		         0.57667	2.00000e+00	
2.45853   	-7.61540e+00		         0.57833	1.00000e+00	
2.46558   	-6.48006e+00		         0.58000	0.00000e+00	
2.47263   	-5.44453e+00		         0.58167	0.00000e+00	
2.47968   	-4.60168e+00		         0.58333	-1.00000e+00	
2.48672   	-3.82424e+00		         0.58500	-2.00000e+00	
2.49377   	-3.17432e+00		         0.58667	-2.00000e+00	
2.50082   	-2.60096e+00		         0.58833	-3.00000e+00	
2.50786   	-2.02332e+00		         0.59000	-4.00000e+00	
2.51492   	-1.40728e+00		         0.59167	-5.00000e+00	
2.52196   	-7.70968e-01		         0.59333	-6.00000e+00	
2.52901   	-1.11763e-01		         0.59500	-7.00000e+00	
2.53605   	4.89633e-01		         0.59667	-8.00000e+00	
2.54343   	9.98140e-01		         0.59833	-9.00000e+00	
2.55015   	1.28424e+00		         0.60000	-1.00000e+01	
2.55719   	1.56756e+00		         0.60167	-1.00000e+01	
			         0.60333	-1.10000e+01	
			         0.60500	-1.10000e+01	
			         0.60667	-1.10000e+01	
			         0.60833	-1.10000e+01	
			         0.61000	-1.00000e+01	
			         0.61167	-9.00000e+00	
			         0.61333	-8.00000e+00	
			         0.61500	-6.00000e+00	
			         0.61667	-5.00000e+00	
			         0.61833	-3.00000e+00	
			         0.62000	-1.00000e+00	
			         0.62167	0.00000e+00	
			         0.62333	1.00000e+00	
			         0.62500	2.00000e+00	
			         0.62667	3.00000e+00	
			         0.62833	3.00000e+00	
			         0.63000	4.00000e+00	
			         0.63167	4.00000e+00	
			         0.63333	3.00000e+00	
			         0.63500	3.00000e+00	
			         0.63667	2.00000e+00	
			         0.63833	2.00000e+00	
			         0.64000	1.00000e+00	
			         0.64167	0.00000e+00	
			         0.64333	0.00000e+00	
			         0.64500	1.00000e+00	
			         0.64667	1.00000e+00	
			         0.64833	2.00000e+00	
			         0.65000	4.00000e+00	
			         0.65167	6.00000e+00	
			         0.65333	8.00000e+00	
			         0.65500	1.00000e+01	
			         0.65667	1.30000e+01	
			         0.65833	1.60000e+01	
			         0.66000	1.90000e+01	
			         0.66167	2.20000e+01	
			         0.66333	2.50000e+01	
			         0.66500	2.70000e+01	
			         0.66667	2.90000e+01	
			         0.66833	3.10000e+01	
			         0.67000	3.40000e+01	
			         0.67167	3.60000e+01	
			         0.67333	3.90000e+01	
			         0.67500	4.20000e+01	
			         0.67667	4.50000e+01	
			         0.67833	4.80000e+01	
			         0.68000	5.20000e+01	
			         0.68167	5.50000e+01	
			         0.68333	5.90000e+01	
			         0.68500	6.20000e+01	
			         0.68667	6.50000e+01	
			         0.68833	6.80000e+01	
			         0.69000	7.00000e+01	
			         0.69167	7.10000e+01	
			         0.69333	7.10000e+01	
			         0.69500	7.10000e+01	
			         0.69667	6.90000e+01	
			         0.69833	6.70000e+01	
			         0.70000	6.50000e+01	
			         0.70167	6.10000e+01	
			         0.70333	5.80000e+01	
			         0.70500	5.30000e+01	
			         0.70667	4.80000e+01	
			         0.70833	4.30000e+01	
			         0.71000	3.80000e+01	
			         0.71167	3.20000e+01	
			         0.71333	2.60000e+01	
			         0.71500	2.10000e+01	
			         0.71667	1.50000e+01	
			         0.71833	9.00000e+00	
			         0.72000	4.00000e+00	
			         0.72167	-1.00000e+00	
			         0.72333	-6.00000e+00	
			         0.72500	-1.10000e+01	
			         0.72667	-1.50000e+01	
			         0.72833	-1.90000e+01	
			         0.73000	-2.30000e+01	
			         0.73167	-2.60000e+01	
			         0.73333	-2.90000e+01	
			         0.73500	-3.20000e+01	
			         0.73667	-3.40000e+01	
			         0.73833	-3.70000e+01	
			         0.74000	-3.90000e+01	
			         0.74167	-4.20000e+01	
			         0.74333	-4.40000e+01	
			         0.74500	-4.70000e+01	
			         0.74667	-4.90000e+01	
			         0.74833	-5.20000e+01	
			         0.75000	-5.40000e+01	
			         0.75167	-5.60000e+01	
			         0.75333	-5.70000e+01	
			         0.75500	-5.80000e+01	
			         0.75667	-5.80000e+01	
			         0.75833	-5.90000e+01	
			         0.76000	-5.90000e+01	
			         0.76167	-5.80000e+01	
			         0.76333	-5.70000e+01	
			         0.76500	-5.60000e+01	
			         0.76667	-5.40000e+01	
			         0.76833	-5.20000e+01	
			         0.77000	-5.00000e+01	
			         0.77167	-4.90000e+01	
			         0.77333	-4.70000e+01	
			         0.77500	-4.60000e+01	
			         0.77667	-4.60000e+01	
			         0.77833	-4.50000e+01	
			         0.78000	-4.50000e+01	
			         0.78167	-4.50000e+01	
			         0.78333	-4.50000e+01	
			         0.78500	-4.50000e+01	
			         0.78667	-4.50000e+01	
			         0.78833	-4.50000e+01	
			         0.79000	-4.50000e+01	
			         0.79167	-4.60000e+01	
			         0.79333	-4.60000e+01	
			         0.79500	-4.50000e+01	
			         0.79667	-4.50000e+01	
			         0.79833	-4.40000e+01	
			         0.80000	-4.30000e+01	
			         0.80167	-4.20000e+01	
			         0.80333	-4.10000e+01	
			         0.80500	-3.90000e+01	
			         0.80667	-3.70000e+01	
			         0.80833	-3.50000e+01	
			         0.81000	-3.30000e+01	
			         0.81167	-3.10000e+01	
			         0.81333	-2.90000e+01	
			         0.81500	-2.60000e+01	
			         0.81667	-2.30000e+01	
			         0.81833	-1.90000e+01	
			         0.82000	-1.40000e+01	
			         0.82167	-7.00000e+00	
			         0.82333	3.00000e+00	
			         0.82500	1.70000e+01	
			         0.82667	3.60000e+01	
			         0.82833	6.10000e+01	
			         0.83000	9.40000e+01	
			         0.83167	1.36000e+02	
			         0.83333	1.88000e+02	
			         0.83500	2.50000e+02	
			         0.83667	3.21000e+02	
			         0.83833	3.99000e+02	
			         0.84000	4.82000e+02	
			         0.84167	5.65000e+02	
			         0.84333	6.45000e+02	
			         0.84500	7.19000e+02	
			         0.84667	7.82000e+02	
			         0.84833	8.31000e+02	
			         0.85000	8.63000e+02	
			         0.85167	8.74000e+02	
			         0.85333	8.65000e+02	
			         0.85500	8.35000e+02	
			         0.85667	7.85000e+02	
			         0.85833	7.17000e+02	
			         0.86000	6.35000e+02	
			         0.86167	5.43000e+02	
			         0.86333	4.45000e+02	
			         0.86500	3.45000e+02	
			         0.86667	2.46000e+02	
			         0.86833	1.51000e+02	
			         0.87000	6.40000e+01	
			         0.87167	-1.30000e+01	
			         0.87333	-8.10000e+01	
			         0.87500	-1.38000e+02	
			         0.87667	-1.84000e+02	
			         0.87833	-2.20000e+02	
			         0.88000	-2.48000e+02	
			         0.88167	-2.67000e+02	
			         0.88333	-2.80000e+02	
			         0.88500	-2.87000e+02	
			         0.88667	-2.89000e+02	
			         0.88833	-2.88000e+02	
			         0.89000	-2.84000e+02	
			         0.89167	-2.78000e+02	
			         0.89333	-2.70000e+02	
			         0.89500	-2.62000e+02	
			         0.89667	-2.54000e+02	
			         0.89833	-2.45000e+02	
			         0.90000	-2.37000e+02	
			         0.90167	-2.29000e+02	
			         0.90333	-2.21000e+02	
			         0.90500	-2.15000e+02	
			         0.90667	-2.09000e+02	
			         0.90833	-2.04000e+02	
			         0.91000	-1.99000e+02	
			         0.91167	-1.95000e+02	
			         0.91333	-1.91000e+02	
			         0.91500	-1.87000e+02	
			         0.91667	-1.83000e+02	
			         0.91833	-1.80000e+02	
			         0.92000	-1.76000e+02	
			         0.92167	-1.73000e+02	
			         0.92333	-1.69000e+02	
			         0.92500	-1.66000e+02	
			         0.92667	-1.62000e+02	
			         0.92833	-1.58000e+02	
			         0.93000	-1.55000e+02	
			         0.93167	-1.51000e+02	
			         0.93333	-1.47000e+02	
			         0.93500	-1.43000e+02	
			         0.93667	-1.39000e+02	
			         0.93833	-1.36000e+02	
			         0.94000	-1.32000e+02	
			         0.94167	-1.28000e+02	
			         0.94333	-1.24000e+02	
			         0.94500	-1.20000e+02	
			         0.94667	-1.16000e+02	
			         0.94833	-1.12000e+02	
			         0.95000	-1.07000e+02	
			         0.95167	-1.04000e+02	
			         0.95333	-1.00000e+02	
			         0.95500	-9.70000e+01	
			         0.95667	-9.40000e+01	
			         0.95833	-9.10000e+01	
			         0.96000	-8.80000e+01	
			         0.96167	-8.60000e+01	
			         0.96333	-8.40000e+01	
			         0.96500	-8.20000e+01	
			         0.96667	-8.00000e+01	
			         0.96833	-7.90000e+01	
			         0.97000	-7.70000e+01	
			         0.97167	-7.60000e+01	
			         0.97333	-7.40000e+01	
			         0.97500	-7.20000e+01	
			         0.97667	-7.00000e+01	
			         0.97833	-6.80000e+01	
			         0.98000	-6.60000e+01	
			         0.98167	-6.30000e+01	
			         0.98333	-6.10000e+01	
			         0.98500	-5.80000e+01	
			         0.98667	-5.50000e+01	
			         0.98833	-5.20000e+01	
			         0.99000	-5.00000e+01	
			         0.99167	-4.70000e+01	
			         0.99333	-4.50000e+01	
			         0.99500	-4.30000e+01	
			         0.99667	-4.00000e+01	
			         0.99833	-3.80000e+01	
			         1.00000	-3.50000e+01	
			         1.00167	-3.30000e+01	
			         1.00333	-3.10000e+01	
			         1.00500	-2.90000e+01	
			         1.00667	-2.70000e+01	
			         1.00833	-2.50000e+01	
			         1.01000	-2.20000e+01	
			         1.01167	-2.00000e+01	
			         1.01333	-1.80000e+01	
			         1.01500	-1.50000e+01	
			         1.01667	-1.30000e+01	
			         1.01833	-1.10000e+01	
			         1.02000	-8.00000e+00	
			         1.02167	-6.00000e+00	
			         1.02333	-3.00000e+00	
			         1.02500	-1.00000e+00	
			         1.02667	2.00000e+00	
			         1.02833	4.00000e+00	
			         1.03000	6.00000e+00	
			         1.03167	9.00000e+00	
			         1.03333	1.20000e+01	
			         1.03500	1.40000e+01	
			         1.03667	1.70000e+01	
			         1.03833	1.90000e+01	
			         1.04000	2.10000e+01	
			         1.04167	2.40000e+01	
			         1.04333	2.70000e+01	
			         1.04500	2.90000e+01	
			         1.04667	3.20000e+01	
			         1.04833	3.60000e+01	
			         1.05000	3.90000e+01	
			         1.05167	4.20000e+01	
			         1.05333	4.50000e+01	
			         1.05500	4.90000e+01	
			         1.05667	5.20000e+01	
			         1.05833	5.60000e+01	
			         1.06000	6.00000e+01	
			         1.06167	6.30000e+01	
			         1.06333	6.70000e+01	
			         1.06500	7.10000e+01	
			         1.06667	7.50000e+01	
			         1.06833	7.90000e+01	
			         1.07000	8.20000e+01	
			         1.07167	8.60000e+01	
			         1.07333	9.00000e+01	
			         1.07500	9.40000e+01	
			         1.07667	9.80000e+01	
			         1.07833	1.02000e+02	
			         1.08000	1.06000e+02	
			         1.08167	1.10000e+02	
			         1.08333	1.14000e+02	
			         1.08500	1.17000e+02	
			         1.08667	1.20000e+02	
			         1.08833	1.23000e+02	
			         1.09000	1.25000e+02	
			         1.09167	1.27000e+02	
			         1.09333	1.28000e+02	
			         1.09500	1.30000e+02	
			         1.09667	1.30000e+02	
			         1.09833	1.31000e+02	
			         1.10000	1.30000e+02	
			         1.10167	1.29000e+02	
			         1.10333	1.28000e+02	
			         1.10500	1.27000e+02	
			         1.10667	1.25000e+02	
			         1.10833	1.22000e+02	
			         1.11000	1.20000e+02	
			         1.11167	1.17000e+02	
			         1.11333	1.14000e+02	
			         1.11500	1.10000e+02	
			         1.11667	1.06000e+02	
			         1.11833	1.01000e+02	
			         1.12000	9.60000e+01	
			         1.12167	9.10000e+01	
			         1.12333	8.50000e+01	
			         1.12500	7.90000e+01	
			         1.12667	7.30000e+01	
			         1.12833	6.60000e+01	
			         1.13000	5.90000e+01	
			         1.13167	5.10000e+01	
			         1.13333	4.30000e+01	
			         1.13500	3.50000e+01	
			         1.13667	2.70000e+01	
			         1.13833	1.80000e+01	
			         1.14000	1.00000e+01	
			         1.14167	1.00000e+00	
			         1.14333	-7.00000e+00	
			         1.14500	-1.40000e+01	
			         1.14667	-2.20000e+01	
			         1.14833	-2.90000e+01	
			         1.15000	-3.50000e+01	
			         1.15167	-4.20000e+01	
			         1.15333	-4.80000e+01	
			         1.15500	-5.30000e+01	
			         1.15667	-5.80000e+01	
			         1.15833	-6.30000e+01	
			         1.16000	-6.70000e+01	
			         1.16167	-7.10000e+01	
			         1.16333	-7.50000e+01	
			         1.16500	-7.80000e+01	
			         1.16667	-8.10000e+01	
			         1.16833	-8.30000e+01	
			         1.17000	-8.50000e+01	
			         1.17167	-8.70000e+01	
			         1.17333	-8.80000e+01	
			         1.17500	-8.80000e+01	
			         1.17667	-8.90000e+01	
			         1.17833	-8.80000e+01	
			         1.18000	-8.80000e+01	
			         1.18167	-8.80000e+01	
			         1.18333	-8.80000e+01	
			         1.18500	-8.70000e+01	
			         1.18667	-8.70000e+01	
			         1.18833	-8.60000e+01	
			         1.19000	-8.60000e+01	
			         1.19167	-8.50000e+01	
			         1.19333	-8.50000e+01	
			         1.19500	-8.40000e+01	
			         1.19667	-8.30000e+01	
			         1.19833	-8.20000e+01	
			         1.20000	-8.20000e+01	
			         1.20167	-8.10000e+01	
			         1.20333	-8.00000e+01	
			         1.20500	-7.80000e+01	
			         1.20667	-7.70000e+01	
			         1.20833	-7.50000e+01	
			         1.21000	-7.30000e+01	
			         1.21167	-7.20000e+01	
			         1.21333	-7.10000e+01	
			         1.21500	-6.90000e+01	
			         1.21667	-6.80000e+01	
			         1.21833	-6.70000e+01	
			         1.22000	-6.60000e+01	
			         1.22167	-6.40000e+01	
			         1.22333	-6.30000e+01	
			         1.22500	-6.10000e+01	
			         1.22667	-6.00000e+01	
			         1.22833	-5.90000e+01	
			         1.23000	-5.80000e+01	
			         1.23167	-5.70000e+01	
			         1.23333	-5.50000e+01	
			         1.23500	-5.40000e+01	
			         1.23667	-5.30000e+01	
			         1.23833	-5.20000e+01	
			         1.24000	-5.10000e+01	
			         1.24167	-5.00000e+01	
			         1.24333	-5.00000e+01	
			         1.24500	-4.90000e+01	
			         1.24667	-4.90000e+01	
			         1.24833	-4.80000e+01	
			         1.25000	-4.70000e+01	
			         1.25167	-4.70000e+01	
			         1.25333	-4.60000e+01	
			         1.25500	-4.50000e+01	
			         1.25667	-4.40000e+01	
			         1.25833	-4.30000e+01	
			         1.26000	-4.20000e+01	
			         1.26167	-4.10000e+01	
			         1.26333	-3.90000e+01	
			         1.26500	-3.80000e+01	
			         1.26667	-3.60000e+01	
			         1.26833	-3.50000e+01	
			         1.27000	-3.40000e+01	
			         1.27167	-3.20000e+01	
			         1.27333	-3.10000e+01	
			         1.27500	-3.10000e+01	
			         1.27667	-3.00000e+01	
			         1.27833	-2.90000e+01	
			         1.28000	-2.90000e+01	
			         1.28167	-2.80000e+01	
			         1.28333	-2.70000e+01	
			         1.28500	-2.60000e+01	
			         1.28667	-2.50000e+01	
			         1.28833	-2.40000e+01	
			         1.29000	-2.30000e+01	
			         1.29167	-2.20000e+01	
			         1.29333	-2.10000e+01	
			         1.29500	-1.90000e+01	
			         1.29667	-1.80000e+01	
			         1.29833	-1.60000e+01	
			         1.30000	-1.40000e+01	
			         1.30167	-1.30000e+01	
			         1.30333	-1.10000e+01	
			         1.30500	-1.00000e+01	
			         1.30667	-8.00000e+00	
			         1.30833	-7.00000e+00	
			         1.31000	-6.00000e+00	
			         1.31167	-5.00000e+00	
			         1.31333	-3.00000e+00	
			         1.31500	-2.00000e+00	
			         1.31667	-1.00000e+00	
			         1.31833	0.00000e+00	
			         1.32000	1.00000e+00	
			         1.32167	2.00000e+00	
			         1.32333	4.00000e+00	
			         1.32500	5.00000e+00	
			         1.32667	6.00000e+00	
			         1.32833	7.00000e+00	
			         1.33000	8.00000e+00	
			         1.33167	9.00000e+00	
			         1.33333	1.00000e+01	
			         1.33500	1.00000e+01	
			         1.33667	1.00000e+01	
			         1.33833	1.10000e+01	
			         1.34000	1.10000e+01	
			         1.34167	1.10000e+01	
			         1.34333	1.10000e+01	
			         1.34500	1.10000e+01	
			         1.34667	1.10000e+01	
			         1.34833	1.00000e+01	
			         1.35000	1.00000e+01	
			         1.35167	1.00000e+01	
			         1.35333	1.00000e+01	
			         1.35500	1.00000e+01	
			         1.35667	1.10000e+01	
			         1.35833	1.20000e+01	
			         1.36000	1.30000e+01	
			         1.36167	1.40000e+01	
			         1.36333	1.50000e+01	
			         1.36500	1.60000e+01	
			         1.36667	1.60000e+01	
			         1.36833	1.70000e+01	
			         1.37000	1.70000e+01	
			         1.37167	1.70000e+01	
			         1.37333	1.60000e+01	
			         1.37500	1.50000e+01	
			         1.37667	1.30000e+01	
			         1.37833	1.10000e+01	
			         1.38000	1.00000e+01	
			         1.38167	8.00000e+00	
			         1.38333	6.00000e+00	
			         1.38500	5.00000e+00	
			         1.38667	3.00000e+00	
			         1.38833	2.00000e+00	
			         1.39000	2.00000e+00	
			         1.39167	1.00000e+00	
			         1.39333	1.00000e+00	
			         1.39500	1.00000e+00	
			         1.39667	2.00000e+00	
			         1.39833	2.00000e+00	
			         1.40000	3.00000e+00	
			         1.40167	3.00000e+00	
			         1.40333	4.00000e+00	
			         1.40500	4.00000e+00	
			         1.40667	4.00000e+00	
			         1.40833	5.00000e+00	
			         1.41000	5.00000e+00	
			         1.41167	5.00000e+00	
			         1.41333	6.00000e+00	
			         1.41500	6.00000e+00	
			         1.41667	6.00000e+00	
			         1.41833	6.00000e+00	
			         1.42000	5.00000e+00	
			         1.42167	5.00000e+00	
			         1.42333	4.00000e+00	
			         1.42500	4.00000e+00	
			         1.42667	3.00000e+00	
			         1.42833	2.00000e+00	
			         1.43000	2.00000e+00	
			         1.43167	1.00000e+00	
			         1.43333	0.00000e+00	
			         1.43500	0.00000e+00	
			         1.43667	-1.00000e+00	
			         1.43833	-2.00000e+00	
			         1.44000	-2.00000e+00	
			         1.44167	-3.00000e+00	
			         1.44333	-3.00000e+00	
			         1.44500	-3.00000e+00	
			         1.44667	-2.00000e+00	
			         1.44833	-2.00000e+00	
			         1.45000	-2.00000e+00	
			         1.45167	-2.00000e+00	
			         1.45333	-1.00000e+00	
			         1.45500	-1.00000e+00	
			         1.45667	-1.00000e+00	
			         1.45833	-1.00000e+00	
			         1.46000	-1.00000e+00	
			         1.46167	-1.00000e+00	
			         1.46333	-1.00000e+00	
			         1.46500	-1.00000e+00	
			         1.46667	-1.00000e+00	
			         1.46833	0.00000e+00	
			         1.47000	0.00000e+00	
			         1.47167	0.00000e+00	
			         1.47333	0.00000e+00	
			         1.47500	0.00000e+00	
			         1.47667	0.00000e+00	
			         1.47833	0.00000e+00	
			         1.48000	0.00000e+00	
			         1.48167	1.00000e+00	
			         1.48333	1.00000e+00	
			         1.48500	2.00000e+00	
			         1.48667	3.00000e+00	
			         1.48833	3.00000e+00	
			         1.49000	4.00000e+00	
			         1.49167	6.00000e+00	
			         1.49333	7.00000e+00	
			         1.49500	9.00000e+00	
			         1.49667	1.10000e+01	
			         1.49833	1.30000e+01	
			         1.50000	1.60000e+01	
			         1.50167	1.80000e+01	
			         1.50333	2.10000e+01	
			         1.50500	2.40000e+01	
			         1.50667	2.60000e+01	
			         1.50833	2.90000e+01	
			         1.51000	3.10000e+01	
			         1.51167	3.40000e+01	
			         1.51333	3.70000e+01	
			         1.51500	4.00000e+01	
			         1.51667	4.30000e+01	
			         1.51833	4.70000e+01	
			         1.52000	5.10000e+01	
			         1.52167	5.40000e+01	
			         1.52333	5.80000e+01	
			         1.52500	6.10000e+01	
			         1.52667	6.40000e+01	
			         1.52833	6.70000e+01	
			         1.53000	6.90000e+01	
			         1.53167	7.10000e+01	
			         1.53333	7.20000e+01	
			         1.53500	7.20000e+01	
			         1.53667	7.10000e+01	
			         1.53833	6.90000e+01	
			         1.54000	6.70000e+01	
			         1.54167	6.30000e+01	
			         1.54333	5.90000e+01	
			         1.54500	5.40000e+01	
			         1.54667	4.90000e+01	
			         1.54833	4.40000e+01	
			         1.55000	3.80000e+01	
			         1.55167	3.20000e+01	
			         1.55333	2.60000e+01	
			         1.55500	2.00000e+01	
			         1.55667	1.40000e+01	
			         1.55833	9.00000e+00	
			         1.56000	3.00000e+00	
			         1.56167	-1.00000e+00	
			         1.56333	-6.00000e+00	
			         1.56500	-1.00000e+01	
			         1.56667	-1.30000e+01	
			         1.56833	-1.70000e+01	
			         1.57000	-1.90000e+01	
			         1.57167	-2.20000e+01	
			         1.57333	-2.40000e+01	
			         1.57500	-2.50000e+01	
			         1.57667	-2.70000e+01	
			         1.57833	-2.80000e+01	
			         1.58000	-2.90000e+01	
			         1.58167	-3.00000e+01	
			         1.58333	-3.20000e+01	
			         1.58500	-3.40000e+01	
			         1.58667	-3.60000e+01	
			         1.58833	-3.80000e+01	
			         1.59000	-4.00000e+01	
			         1.59167	-4.20000e+01	
			         1.59333	-4.40000e+01	
			         1.59500	-4.60000e+01	
			         1.59667	-4.70000e+01	
			         1.59833	-4.90000e+01	
			         1.60000	-5.00000e+01	
			         1.60167	-5.10000e+01	
			         1.60333	-5.10000e+01	
			         1.60500	-5.20000e+01	
			         1.60667	-5.20000e+01	
			         1.60833	-5.20000e+01	
			         1.61000	-5.20000e+01	
			         1.61167	-5.10000e+01	
			         1.61333	-5.10000e+01	
			         1.61500	-5.10000e+01	
			         1.61667	-5.00000e+01	
			         1.61833	-5.00000e+01	
			         1.62000	-5.00000e+01	
			         1.62167	-4.90000e+01	
			         1.62333	-4.80000e+01	
			         1.62500	-4.80000e+01	
			         1.62667	-4.70000e+01	
			         1.62833	-4.60000e+01	
			         1.63000	-4.50000e+01	
			         1.63167	-4.40000e+01	
			         1.63333	-4.30000e+01	
			         1.63500	-4.10000e+01	
			         1.63667	-4.00000e+01	
			         1.63833	-3.90000e+01	
			         1.64000	-3.70000e+01	
			         1.64167	-3.60000e+01	
			         1.64333	-3.40000e+01	
			         1.64500	-3.30000e+01	
			         1.64667	-3.20000e+01	
			         1.64833	-3.00000e+01	
			         1.65000	-2.90000e+01	
			         1.65167	-2.80000e+01	
			         1.65333	-2.70000e+01	
			         1.65500	-2.50000e+01	
			         1.65667	-2.40000e+01	
			         1.65833	-2.20000e+01	
			         1.66000	-2.00000e+01	
			         1.66167	-1.60000e+01	
			         1.66333	-1.00000e+01	
			         1.66500	-2.00000e+00	
			         1.66667	1.10000e+01	
			         1.66833	2.90000e+01	
			         1.67000	5.40000e+01	
			         1.67167	8.80000e+01	
			         1.67333	1.30000e+02	
			         1.67500	1.82000e+02	
			         1.67667	2.44000e+02	
			         1.67833	3.15000e+02	
			         1.68000	3.94000e+02	
			         1.68167	4.76000e+02	
			         1.68333	5.60000e+02	
			         1.68500	6.42000e+02	
			         1.68667	7.18000e+02	
			         1.68833	7.83000e+02	
			         1.69000	8.35000e+02	
			         1.69167	8.69000e+02	
			         1.69333	8.85000e+02	
			         1.69500	8.79000e+02	
			         1.69667	8.52000e+02	
			         1.69833	8.04000e+02	
			         1.70000	7.39000e+02	
			         1.70167	6.59000e+02	
			         1.70333	5.68000e+02	
			         1.70500	4.70000e+02	
			         1.70667	3.69000e+02	
			         1.70833	2.69000e+02	
			         1.71000	1.73000e+02	
			         1.71167	8.40000e+01	
			         1.71333	4.00000e+00	
			         1.71500	-6.60000e+01	
			         1.71667	-1.25000e+02	
			         1.71833	-1.73000e+02	
			         1.72000	-2.11000e+02	
			         1.72167	-2.40000e+02	
			         1.72333	-2.61000e+02	
			         1.72500	-2.75000e+02	
			         1.72667	-2.83000e+02	
			         1.72833	-2.87000e+02	
			         1.73000	-2.87000e+02	
			         1.73167	-2.85000e+02	
			         1.73333	-2.81000e+02	
			         1.73500	-2.75000e+02	
			         1.73667	-2.69000e+02	
			         1.73833	-2.62000e+02	
			         1.74000	-2.55000e+02	
			         1.74167	-2.49000e+02	
			         1.74333	-2.42000e+02	
			         1.74500	-2.35000e+02	
			         1.74667	-2.29000e+02	
			         1.74833	-2.23000e+02	
			         1.75000	-2.18000e+02	
			         1.75167	-2.12000e+02	
			         1.75333	-2.07000e+02	
			         1.75500	-2.02000e+02	
			         1.75667	-1.97000e+02	
			         1.75833	-1.92000e+02	
			         1.76000	-1.87000e+02	
			         1.76167	-1.83000e+02	
			         1.76333	-1.78000e+02	
			         1.76500	-1.74000e+02	
			         1.76667	-1.69000e+02	
			         1.76833	-1.66000e+02	
			         1.77000	-1.62000e+02	
			         1.77167	-1.59000e+02	
			         1.77333	-1.55000e+02	
			         1.77500	-1.52000e+02	
			         1.77667	-1.49000e+02	
			         1.77833	-1.46000e+02	
			         1.78000	-1.42000e+02	
			         1.78167	-1.39000e+02	
			         1.78333	-1.35000e+02	
			         1.78500	-1.31000e+02	
			         1.78667	-1.28000e+02	
			         1.78833	-1.24000e+02	
			         1.79000	-1.20000e+02	
			         1.79167	-1.17000e+02	
			         1.79333	-1.13000e+02	
			         1.79500	-1.09000e+02	
			         1.79667	-1.06000e+02	
			         1.79833	-1.03000e+02	
			         1.80000	-1.00000e+02	
			         1.80167	-9.70000e+01	
			         1.80333	-9.40000e+01	
			         1.80500	-9.20000e+01	
			         1.80667	-8.90000e+01	
			         1.80833	-8.70000e+01	
			         1.81000	-8.50000e+01	
			         1.81167	-8.30000e+01	
			         1.81333	-8.10000e+01	
			         1.81500	-7.90000e+01	
			         1.81667	-7.70000e+01	
			         1.81833	-7.50000e+01	
			         1.82000	-7.30000e+01	
			         1.82167	-7.10000e+01	
			         1.82333	-6.90000e+01	
			         1.82500	-6.60000e+01	
			         1.82667	-6.40000e+01	
			         1.82833	-6.10000e+01	
			         1.83000	-5.90000e+01	
			         1.83167	-5.60000e+01	
			         1.83333	-5.40000e+01	
			         1.83500	-5.10000e+01	
			         1.83667	-4.90000e+01	
			         1.83833	-4.70000e+01	
			         1.84000	-4.40000e+01	
			         1.84167	-4.20000e+01	
			         1.84333	-4.00000e+01	
			         1.84500	-3.80000e+01	
			         1.84667	-3.50000e+01	
			         1.84833	-3.30000e+01	
			         1.85000	-3.10000e+01	
			         1.85167	-2.80000e+01	
			         1.85333	-2.60000e+01	
			         1.85500	-2.40000e+01	
			         1.85667	-2.20000e+01	
			         1.85833	-2.00000e+01	
			         1.86000	-1.80000e+01	
			         1.86167	-1.60000e+01	
			         1.86333	-1.40000e+01	
			         1.86500	-1.10000e+01	
			         1.86667	-9.00000e+00	
			         1.86833	-7.00000e+00	
			         1.87000	-4.00000e+00	
			         1.87167	-2.00000e+00	
			         1.87333	1.00000e+00	
			         1.87500	5.00000e+00	
			         1.87667	8.00000e+00	
			         1.87833	1.20000e+01	
			         1.88000	1.50000e+01	
			         1.88167	1.90000e+01	
			         1.88333	2.30000e+01	
			         1.88500	2.60000e+01	
			         1.88667	3.00000e+01	
			         1.88833	3.30000e+01	
			         1.89000	3.60000e+01	
			         1.89167	3.90000e+01	
			         1.89333	4.20000e+01	
			         1.89500	4.50000e+01	
			         1.89667	4.90000e+01	
			         1.89833	5.20000e+01	
			         1.90000	5.60000e+01	
			         1.90167	6.00000e+01	
			         1.90333	6.40000e+01	
			         1.90500	6.90000e+01	
			         1.90667	7.30000e+01	
			         1.90833	7.80000e+01	
			         1.91000	8.30000e+01	
			         1.91167	8.80000e+01	
			         1.91333	9.30000e+01	
			         1.91500	9.80000e+01	
			         1.91667	1.02000e+02	
			         1.91833	1.06000e+02	
			         1.92000	1.09000e+02	
			         1.92167	1.13000e+02	
			         1.92333	1.16000e+02	
			         1.92500	1.19000e+02	
			         1.92667	1.21000e+02	
			         1.92833	1.24000e+02	
			         1.93000	1.25000e+02	
			         1.93167	1.26000e+02	
			         1.93333	1.27000e+02	
			         1.93500	1.28000e+02	
			         1.93667	1.28000e+02	
			         1.93833	1.27000e+02	
			         1.94000	1.27000e+02	
			         1.94167	1.26000e+02	
			         1.94333	1.24000e+02	
			         1.94500	1.23000e+02	
			         1.94667	1.21000e+02	
			         1.94833	1.19000e+02	
			         1.95000	1.16000e+02	
			         1.95167	1.13000e+02	
			         1.95333	1.10000e+02	
			         1.95500	1.07000e+02	
			         1.95667	1.04000e+02	
			         1.95833	1.00000e+02	
			         1.96000	9.60000e+01	
			         1.96167	9.30000e+01	
			         1.96333	8.80000e+01	
			         1.96500	8.40000e+01	
			         1.96667	7.90000e+01	
			         1.96833	7.30000e+01	
			         1.97000	6.70000e+01	
			         1.97167	6.10000e+01	
			         1.97333	5.30000e+01	
			         1.97500	4.60000e+01	
			         1.97667	3.80000e+01	
			         1.97833	3.00000e+01	
			         1.98000	2.10000e+01	
			         1.98167	1.30000e+01	
			         1.98333	4.00000e+00	
			         1.98500	-4.00000e+00	
			         1.98667	-1.30000e+01	
			         1.98833	-2.10000e+01	
			         1.99000	-2.80000e+01	
			         1.99167	-3.50000e+01	
			         1.99333	-4.20000e+01	
			         1.99500	-4.80000e+01	
			         1.99667	-5.40000e+01	
			         1.99833	-5.90000e+01	
			         2.00000	-6.50000e+01	
			         2.00167	-6.90000e+01	
			         2.00333	-7.30000e+01	
			         2.00500	-7.70000e+01	
			         2.00667	-8.00000e+01	
			         2.00833	-8.20000e+01	
			         2.01000	-8.40000e+01	
			         2.01167	-8.60000e+01	
			         2.01333	-8.70000e+01	
			         2.01500	-8.70000e+01	
			         2.01667	-8.70000e+01	
			         2.01833	-8.80000e+01	
			         2.02000	-8.80000e+01	
			         2.02167	-8.80000e+01	
			         2.02333	-8.90000e+01	
			         2.02500	-8.90000e+01	
			         2.02667	-9.00000e+01	
			         2.02833	-9.10000e+01	
			         2.03000	-9.20000e+01	
			         2.03167	-9.20000e+01	
			         2.03333	-9.30000e+01	
			         2.03500	-9.30000e+01	
			         2.03667	-9.30000e+01	
			         2.03833	-9.30000e+01	
			         2.04000	-9.20000e+01	
			         2.04167	-9.10000e+01	
			         2.04333	-8.90000e+01	
			         2.04500	-8.70000e+01	
			         2.04667	-8.50000e+01	
			         2.04833	-8.20000e+01	
			         2.05000	-8.00000e+01	
			         2.05167	-7.70000e+01	
			         2.05333	-7.40000e+01	
			         2.05500	-7.20000e+01	
			         2.05667	-7.00000e+01	
			         2.05833	-6.70000e+01	
			         2.06000	-6.50000e+01	
			         2.06167	-6.30000e+01	
			         2.06333	-6.10000e+01	
			         2.06500	-6.00000e+01	
			         2.06667	-5.90000e+01	
			         2.06833	-5.80000e+01	
			         2.07000	-5.70000e+01	
			         2.07167	-5.70000e+01	
			         2.07333	-5.70000e+01	
			         2.07500	-5.70000e+01	
			         2.07667	-5.60000e+01	
			         2.07833	-5.60000e+01	
			         2.08000	-5.60000e+01	
			         2.08167	-5.50000e+01	
			         2.08333	-5.50000e+01	
			         2.08500	-5.40000e+01	
			         2.08667	-5.30000e+01	
			         2.08833	-5.20000e+01	
			         2.09000	-5.00000e+01	
			         2.09167	-4.90000e+01	
			         2.09333	-4.70000e+01	
			         2.09500	-4.50000e+01	
			         2.09667	-4.30000e+01	
			         2.09833	-4.10000e+01	
			         2.10000	-3.90000e+01	
			         2.10167	-3.80000e+01	
			         2.10333	-3.70000e+01	
			         2.10500	-3.60000e+01	
			         2.10667	-3.60000e+01	
			         2.10833	-3.60000e+01	
			         2.11000	-3.60000e+01	
			         2.11167	-3.60000e+01	
			         2.11333	-3.60000e+01	
			         2.11500	-3.70000e+01	
			         2.11667	-3.70000e+01	
			         2.11833	-3.60000e+01	
			         2.12000	-3.60000e+01	
			         2.12167	-3.50000e+01	
			         2.12333	-3.40000e+01	
			         2.12500	-3.30000e+01	
			         2.12667	-3.10000e+01	
			         2.12833	-2.90000e+01	
			         2.13000	-2.70000e+01	
			         2.13167	-2.50000e+01	
			         2.13333	-2.30000e+01	
			         2.13500	-2.10000e+01	
			         2.13667	-1.90000e+01	
			         2.13833	-1.80000e+01	
			         2.14000	-1.60000e+01	
			         2.14167	-1.50000e+01	
			         2.14333	-1.40000e+01	
			         2.14500	-1.30000e+01	
			         2.14667	-1.20000e+01	
			         2.14833	-1.10000e+01	
			         2.15000	-1.10000e+01	
			         2.15167	-1.00000e+01	
			         2.15333	-9.00000e+00	
			         2.15500	-8.00000e+00	
			         2.15667	-7.00000e+00	
			         2.15833	-6.00000e+00	
			         2.16000	-6.00000e+00	
			         2.16167	-5.00000e+00	
			         2.16333	-4.00000e+00	
			         2.16500	-3.00000e+00	
			         2.16667	-2.00000e+00	
			         2.16833	-2.00000e+00	
			         2.17000	-1.00000e+00	
			         2.17167	0.00000e+00	
			         2.17333	0.00000e+00	
			         2.17500	1.00000e+00	
			         2.17667	1.00000e+00	
			         2.17833	2.00000e+00	
			         2.18000	3.00000e+00	
			         2.18167	4.00000e+00	
			         2.18333	5.00000e+00	
			         2.18500	6.00000e+00	
			         2.18667	7.00000e+00	
			         2.18833	8.00000e+00	
			         2.19000	9.00000e+00	
			         2.19167	1.00000e+01	
			         2.19333	1.10000e+01	
			         2.19500	1.20000e+01	
			         2.19667	1.20000e+01	
			         2.19833	1.30000e+01	
			         2.20000	1.30000e+01	
			         2.20167	1.30000e+01	
			         2.20333	1.30000e+01	
			         2.20500	1.30000e+01	
			         2.20667	1.20000e+01	
			         2.20833	1.20000e+01	
			         2.21000	1.10000e+01	
			         2.21167	1.00000e+01	
			         2.21333	9.00000e+00	
			         2.21500	8.00000e+00	
			         2.21667	7.00000e+00	
			         2.21833	6.00000e+00	
			         2.22000	5.00000e+00	
			         2.22167	4.00000e+00	
			         2.22333	2.00000e+00	
			         2.22500	2.00000e+00	
			         2.22667	1.00000e+00	
			         2.22833	0.00000e+00	
			         2.23000	0.00000e+00	
			         2.23167	0.00000e+00	
			         2.23333	0.00000e+00	
			         2.23500	0.00000e+00	
			         2.23667	0.00000e+00	
			         2.23833	1.00000e+00	
			         2.24000	1.00000e+00	
			         2.24167	1.00000e+00	
			         2.24333	1.00000e+00	
			         2.24500	1.00000e+00	
			         2.24667	1.00000e+00	
			         2.24833	1.00000e+00	
			         2.25000	0.00000e+00	
			         2.25167	-1.00000e+00	
			         2.25333	-2.00000e+00	
			         2.25500	-2.00000e+00	
			         2.25667	-3.00000e+00	
			         2.25833	-4.00000e+00	
			         2.26000	-5.00000e+00	
			         2.26167	-6.00000e+00	
			         2.26333	-7.00000e+00	
			         2.26500	-8.00000e+00	
			         2.26667	-9.00000e+00	
			         2.26833	-9.00000e+00	
			         2.27000	-1.00000e+01	
			         2.27167	-1.00000e+01	
			         2.27333	-1.00000e+01	
			         2.27500	-1.00000e+01	
			         2.27667	-1.00000e+01	
			         2.27833	-1.00000e+01	
			         2.28000	-1.00000e+01	
			         2.28167	-1.00000e+01	
			         2.28333	-9.00000e+00	
			         2.28500	-9.00000e+00	
			         2.28667	-8.00000e+00	
			         2.28833	-8.00000e+00	
			         2.29000	-7.00000e+00	
			         2.29167	-6.00000e+00	
			         2.29333	-6.00000e+00	
			         2.29500	-5.00000e+00	
			         2.29667	-5.00000e+00	
			         2.29833	-5.00000e+00	
			         2.30000	-5.00000e+00	
			         2.30167	-5.00000e+00	
			         2.30333	-5.00000e+00	
			         2.30500	-5.00000e+00	
			         2.30667	-5.00000e+00	
			         2.30833	-5.00000e+00	
			         2.31000	-5.00000e+00	
			         2.31167	-5.00000e+00	
			         2.31333	-5.00000e+00	
			         2.31500	-5.00000e+00	
			         2.31667	-5.00000e+00	
			         2.31833	-5.00000e+00	
			         2.32000	-5.00000e+00	
			         2.32167	-5.00000e+00	
			         2.32333	-5.00000e+00	
			         2.32500	-5.00000e+00	
			         2.32667	-4.00000e+00	
			         2.32833	-4.00000e+00	
			         2.33000	-4.00000e+00	
			         2.33167	-3.00000e+00	
			         2.33333	-2.00000e+00	
			         2.33500	-1.00000e+00	
			         2.33667	1.00000e+00	
			         2.33833	3.00000e+00	
			         2.34000	5.00000e+00	
			         2.34167	8.00000e+00	
			         2.34333	1.00000e+01	
			         2.34500	1.30000e+01	
			         2.34667	1.60000e+01	
			         2.34833	1.80000e+01	
			         2.35000	2.00000e+01	
			         2.35167	2.20000e+01	
			         2.35333	2.40000e+01	
			         2.35500	2.60000e+01	
			         2.35667	2.70000e+01	
			         2.35833	2.90000e+01	
			         2.36000	3.10000e+01	
			         2.36167	3.30000e+01	
			         2.36333	3.60000e+01	
			         2.36500	3.90000e+01	
			         2.36667	4.20000e+01	
			         2.36833	4.60000e+01	
			         2.37000	5.00000e+01	
			         2.37167	5.40000e+01	
			         2.37333	5.70000e+01	
			         2.37500	6.00000e+01	
			         2.37667	6.30000e+01	
			         2.37833	6.40000e+01	
			         2.38000	6.50000e+01	
			         2.38167	6.50000e+01	
			         2.38333	6.40000e+01	
			         2.38500	6.20000e+01	
			         2.38667	6.00000e+01	
			         2.38833	5.60000e+01	
			         2.39000	5.30000e+01	
			         2.39167	4.90000e+01	
			         2.39333	4.40000e+01	
			         2.39500	4.00000e+01	
			         2.39667	3.50000e+01	
			         2.39833	3.10000e+01	
			         2.40000	2.60000e+01	
			         2.40167	2.10000e+01	
			         2.40333	1.60000e+01	
			         2.40500	1.20000e+01	
			         2.40667	7.00000e+00	
			         2.40833	3.00000e+00	
			         2.41000	-1.00000e+00	
			         2.41167	-5.00000e+00	
			         2.41333	-9.00000e+00	
			         2.41500	-1.20000e+01	
			         2.41667	-1.60000e+01	
			         2.41833	-1.90000e+01	
			         2.42000	-2.20000e+01	
			         2.42167	-2.50000e+01	
			         2.42333	-2.80000e+01	
			         2.42500	-3.10000e+01	
			         2.42667	-3.40000e+01	
			         2.42833	-3.70000e+01	
			         2.43000	-4.00000e+01	
			         2.43167	-4.30000e+01	
			         2.43333	-4.60000e+01	
			         2.43500	-4.80000e+01	
			         2.43667	-5.10000e+01	
			         2.43833	-5.30000e+01	
			         2.44000	-5.40000e+01	
			         2.44167	-5.50000e+01	
			         2.44333	-5.60000e+01	
			         2.44500	-5.60000e+01	
			         2.44667	-5.60000e+01	
			         2.44833	-5.60000e+01	
			         2.45000	-5.50000e+01	
			         2.45167	-5.40000e+01	
			         2.45333	-5.40000e+01	
			         2.45500	-5.30000e+01	
			         2.45667	-5.30000e+01	
			         2.45833	-5.20000e+01	
			         2.46000	-5.10000e+01	
			         2.46167	-5.10000e+01	
			         2.46333	-5.00000e+01	
			         2.46500	-5.00000e+01	
			         2.46667	-4.90000e+01	
			         2.46833	-4.90000e+01	
			         2.47000	-4.80000e+01	
			         2.47167	-4.80000e+01	
			         2.47333	-4.70000e+01	
			         2.47500	-4.60000e+01	
			         2.47667	-4.50000e+01	
			         2.47833	-4.40000e+01	
			         2.48000	-4.40000e+01	
			         2.48167	-4.30000e+01	
			         2.48333	-4.30000e+01	
			         2.48500	-4.20000e+01	
			         2.48667	-4.10000e+01	
			         2.48833	-4.10000e+01	
			         2.49000	-4.00000e+01	
			         2.49167	-3.90000e+01	
			         2.49333	-3.80000e+01	
			         2.49500	-3.70000e+01	
			         2.49667	-3.60000e+01	
			         2.49833	-3.50000e+01	
			         2.50000	-3.30000e+01	
			         2.50167	-3.10000e+01	
			         2.50333	-2.90000e+01	
			         2.50500	-2.70000e+01	
			         2.50667	-2.40000e+01	
			         2.50833	-1.90000e+01	
			         2.51000	-1.30000e+01	
			         2.51167	-3.00000e+00	
			         2.51333	1.00000e+01	
			         2.51500	2.80000e+01	
			         2.51667	5.30000e+01	
			         2.51833	8.60000e+01	
			         2.52000	1.27000e+02	
			         2.52167	1.79000e+02	
			         2.52333	2.40000e+02	
			         2.52500	3.09000e+02	
			         2.52667	3.86000e+02	
			         2.52833	4.68000e+02	
			         2.53000	5.51000e+02	
			         2.53167	6.33000e+02	
			         2.53333	7.09000e+02	
			         2.53500	7.75000e+02	
			         2.53667	8.28000e+02	
			         2.53833	8.64000e+02	
			         2.54000	8.82000e+02	
			         2.54167	8.78000e+02	
			         2.54333	8.54000e+02	
			         2.54500	8.10000e+02	
			         2.54667	7.48000e+02	
			         2.54833	6.70000e+02	
			         2.55000	5.82000e+02	
			         2.55167	4.86000e+02	
			         2.55333	3.87000e+02	
			         2.55500	2.89000e+02	
			         2.55667	1.93000e+02	
			         2.55833	1.04000e+02	
			         2.56000	2.30000e+01	
			         2.56167	-4.80000e+01	
			         2.56333	-1.08000e+02	
			         2.56500	-1.59000e+02	
			         2.56667	-2.00000e+02	
			         2.56833	-2.32000e+02	
			         2.57000	-2.55000e+02	
			         2.57167	-2.73000e+02	
			         2.57333	-2.84000e+02	
			         2.57500	-2.91000e+02	
			         2.57667	-2.94000e+02	
			         2.57833	-2.94000e+02	
			         2.58000	-2.91000e+02	
			         2.58167	-2.86000e+02	
			         2.58333	-2.80000e+02	
			         2.58500	-2.73000e+02	
			         2.58667	-2.66000e+02	
			         2.58833	-2.58000e+02	
			         2.59000	-2.49000e+02	
			         2.59167	-2.41000e+02	
			         2.59333	-2.34000e+02	
			         2.59500	-2.27000e+02	
