Velocity (TVI), in cm/s

Time (s) :	Trace 1 : 		Ecg : 		
0.00478   	-4.32601e+00		         0.00000	-6.00000e+00	
0.01061   	-3.40842e+00		         0.00167	6.00000e+00	
0.01645   	-2.18330e+00		         0.00333	2.10000e+01	
0.02228   	-1.88485e-01		         0.00500	3.80000e+01	
0.02812   	1.12120e+00		         0.00667	5.90000e+01	
0.03396   	3.92360e+00		         0.00833	8.20000e+01	
0.04012   	4.01837e+00		         0.01000	1.07000e+02	
0.04563   	3.06167e+00		         0.01167	1.33000e+02	
0.05146   	1.84157e+00		         0.01333	1.60000e+02	
0.05729   	1.29260e+00		         0.01500	1.86000e+02	
0.06313   	-1.30740e+00		         0.01667	2.10000e+02	
0.06897   	-9.02807e-01		         0.01833	2.31000e+02	
0.07480   	5.29394e-02		         0.02000	2.49000e+02	
0.08063   	1.30256e+00		         0.02167	2.62000e+02	
0.08647   	2.52887e+00		         0.02333	2.70000e+02	
0.09230   	3.29011e+00		         0.02500	2.72000e+02	
0.09814   	3.91782e+00		         0.02667	2.69000e+02	
0.10397   	4.37486e+00		         0.02833	2.61000e+02	
0.10981   	4.90115e+00		         0.03000	2.49000e+02	
0.11565   	5.19233e+00		         0.03167	2.31000e+02	
0.12148   	5.46950e+00		         0.03333	2.11000e+02	
0.12731   	5.60998e+00		         0.03500	1.88000e+02	
0.13315   	5.72893e+00		         0.03667	1.62000e+02	
0.13898   	5.61971e+00		         0.03833	1.36000e+02	
0.14482   	5.54356e+00		         0.04000	1.10000e+02	
0.15066   	5.40034e+00		         0.04167	8.40000e+01	
0.15649   	5.40837e+00		         0.04333	6.00000e+01	
0.16232   	5.35242e+00		         0.04500	3.70000e+01	
0.16816   	5.29697e+00		         0.04667	1.60000e+01	
0.17399   	5.29002e+00		         0.04833	-3.00000e+00	
0.17983   	5.20374e+00		         0.05000	-2.00000e+01	
0.18567   	5.05800e+00		         0.05167	-3.40000e+01	
0.19150   	5.05529e+00		         0.05333	-4.60000e+01	
0.19734   	5.16099e+00		         0.05500	-5.70000e+01	
0.20317   	5.17497e+00		         0.05667	-6.50000e+01	
0.20900   	5.29154e+00		         0.05833	-7.20000e+01	
0.21484   	5.22442e+00		         0.06000	-7.70000e+01	
0.22067   	5.21990e+00		         0.06167	-8.10000e+01	
0.22652   	5.12629e+00		         0.06333	-8.40000e+01	
0.23234   	5.05859e+00		         0.06500	-8.50000e+01	
0.23818   	4.91704e+00		         0.06667	-8.60000e+01	
0.24402   	4.87880e+00		         0.06833	-8.60000e+01	
0.24985   	4.66221e+00		         0.07000	-8.60000e+01	
0.25574   	4.48938e+00		         0.07167	-8.50000e+01	
0.26152   	4.30277e+00		         0.07333	-8.40000e+01	
0.26735   	4.17897e+00		         0.07500	-8.20000e+01	
0.27319   	4.08772e+00		         0.07667	-8.10000e+01	
0.27903   	3.92428e+00		         0.07833	-7.90000e+01	
0.28486   	3.82222e+00		         0.08000	-7.80000e+01	
0.29069   	3.71973e+00		         0.08167	-7.60000e+01	
0.29653   	3.55068e+00		         0.08333	-7.40000e+01	
0.30237   	3.42914e+00		         0.08500	-7.30000e+01	
0.30820   	3.31991e+00		         0.08667	-7.10000e+01	
0.31403   	3.15998e+00		         0.08833	-6.90000e+01	
0.31987   	3.02701e+00		         0.09000	-6.70000e+01	
0.32571   	2.90788e+00		         0.09167	-6.60000e+01	
0.33154   	2.71786e+00		         0.09333	-6.40000e+01	
0.33737   	2.55306e+00		         0.09500	-6.20000e+01	
0.34321   	2.32617e+00		         0.09667	-6.10000e+01	
0.34904   	2.03974e+00		         0.09833	-5.90000e+01	
0.35488   	1.72832e+00		         0.10000	-5.70000e+01	
0.36071   	1.35644e+00		         0.10167	-5.50000e+01	
0.36655   	9.38088e-01		         0.10333	-5.30000e+01	
0.37238   	3.98613e-01		         0.10500	-5.10000e+01	
0.37822   	-2.15694e-01		         0.10667	-4.90000e+01	
0.38405   	-9.00560e-01		         0.10833	-4.80000e+01	
0.38989   	-1.37683e+00		         0.11000	-4.70000e+01	
0.39572   	-1.81257e+00		         0.11167	-4.50000e+01	
0.40156   	-2.04042e+00		         0.11333	-4.40000e+01	
0.40739   	-1.95622e+00		         0.11500	-4.30000e+01	
0.41323   	-1.60042e+00		         0.11667	-4.20000e+01	
0.41906   	-1.54738e+00		         0.11833	-4.10000e+01	
0.42490   	-1.27100e+00		         0.12000	-4.00000e+01	
0.43073   	-8.64614e-01		         0.12167	-3.90000e+01	
0.43657   	-6.13351e-01		         0.12333	-3.80000e+01	
0.44240   	-4.83619e-01		         0.12500	-3.70000e+01	
0.44824   	-1.41964e-01		         0.12667	-3.60000e+01	
0.45407   	-1.90638e-01		         0.12833	-3.50000e+01	
0.45991   	-2.82776e-01		         0.13000	-3.30000e+01	
0.46574   	-3.93316e-01		         0.13167	-3.20000e+01	
0.47172   	-5.84875e-01		         0.13333	-3.10000e+01	
0.47742   	-1.12423e+00		         0.13500	-2.90000e+01	
0.48325   	-1.22308e+00		         0.13667	-2.80000e+01	
0.48908   	-2.25196e+00		         0.13833	-2.70000e+01	
0.49492   	-2.98493e+00		         0.14000	-2.60000e+01	
0.50075   	-4.06108e+00		         0.14167	-2.60000e+01	
0.50659   	-4.82438e+00		         0.14333	-2.50000e+01	
0.51243   	-5.72459e+00		         0.14500	-2.50000e+01	
0.51826   	-5.78199e+00		         0.14667	-2.40000e+01	
0.52409   	-6.15703e+00		         0.14833	-2.30000e+01	
0.52993   	-6.12106e+00		         0.15000	-2.30000e+01	
0.53576   	-6.00230e+00		         0.15167	-2.20000e+01	
0.54160   	-5.85944e+00		         0.15333	-2.10000e+01	
0.54743   	-5.73623e+00		         0.15500	-2.10000e+01	
0.55327   	-5.41701e+00		         0.15667	-2.00000e+01	
0.55910   	-5.02685e+00		         0.15833	-1.90000e+01	
0.56494   	-4.72555e+00		         0.16000	-1.80000e+01	
0.57077   	-4.40070e+00		         0.16167	-1.80000e+01	
0.57661   	-3.98267e+00		         0.16333	-1.70000e+01	
0.58244   	-3.66506e+00		         0.16500	-1.60000e+01	
0.58828   	-3.46451e+00		         0.16667	-1.60000e+01	
0.59411   	-3.17259e+00		         0.16833	-1.60000e+01	
0.59995   	-2.91969e+00		         0.17000	-1.50000e+01	
0.60578   	-2.78412e+00		         0.17167	-1.50000e+01	
0.61162   	-2.55448e+00		         0.17333	-1.50000e+01	
0.61746   	-2.28805e+00		         0.17500	-1.50000e+01	
0.62329   	-2.02267e+00		         0.17667	-1.50000e+01	
0.62912   	-1.78985e+00		         0.17833	-1.40000e+01	
0.63496   	-1.44537e+00		         0.18000	-1.40000e+01	
0.64079   	-1.22259e+00		         0.18167	-1.40000e+01	
0.64663   	-1.05505e+00		         0.18333	-1.30000e+01	
0.65246   	-9.41654e-01		         0.18500	-1.30000e+01	
0.65830   	-8.64172e-01		         0.18667	-1.20000e+01	
0.66414   	-8.49287e-01		         0.18833	-1.10000e+01	
0.66996   	-8.13391e-01		         0.19000	-1.10000e+01	
0.67580   	-8.18074e-01		         0.19167	-1.00000e+01	
0.68164   	-8.55236e-01		         0.19333	-9.00000e+00	
0.68751   	-8.92227e-01		         0.19500	-9.00000e+00	
0.69331   	-7.98091e-01		         0.19667	-8.00000e+00	
0.69914   	-7.41848e-01		         0.19833	-7.00000e+00	
0.70498   	-6.58259e-01		         0.20000	-7.00000e+00	
0.71081   	-4.76981e-01		         0.20167	-6.00000e+00	
0.71665   	-2.77068e-01		         0.20333	-6.00000e+00	
0.72248   	-1.96857e-01		         0.20500	-5.00000e+00	
0.72832   	-7.30101e-02		         0.20667	-5.00000e+00	
0.73415   	1.08835e-01		         0.20833	-4.00000e+00	
0.73998   	1.87830e-01		         0.21000	-4.00000e+00	
0.74582   	2.72955e-01		         0.21167	-3.00000e+00	
0.75166   	2.93454e-01		         0.21333	-2.00000e+00	
0.75749   	2.43159e-01		         0.21500	-1.00000e+00	
0.76333   	1.74577e-01		         0.21667	0.00000e+00	
0.76916   	1.15900e-01		         0.21833	1.00000e+00	
0.77500   	4.64952e-02		         0.22000	2.00000e+00	
0.78083   	-3.31627e-02		         0.22167	3.00000e+00	
0.78666   	-1.02067e-01		         0.22333	4.00000e+00	
0.79251   	-1.69128e-01		         0.22500	4.00000e+00	
0.79834   	-2.12403e-01		         0.22667	5.00000e+00	
0.80417   	-2.77738e-01		         0.22833	6.00000e+00	
0.81001   	-3.39624e-01		         0.23000	7.00000e+00	
0.81584   	-3.87165e-01		         0.23167	8.00000e+00	
0.82168   	-4.33849e-01		         0.23333	9.00000e+00	
0.82751   	-4.63855e-01		         0.23500	1.00000e+01	
0.83335   	-4.76181e-01		         0.23667	1.10000e+01	
0.83918   	-4.68948e-01		         0.23833	1.30000e+01	
0.84502   	-4.73683e-01		         0.24000	1.40000e+01	
0.85085   	-4.47138e-01		         0.24167	1.60000e+01	
0.85669   	-4.52870e-01		         0.24333	1.70000e+01	
0.86252   	-4.39589e-01		         0.24500	1.90000e+01	
0.86836   	-4.35775e-01		         0.24667	2.00000e+01	
0.87419   	-4.08001e-01		         0.24833	2.20000e+01	
0.88003   	-4.00818e-01		         0.25000	2.30000e+01	
0.88586   	-3.75883e-01		         0.25167	2.40000e+01	
0.89170   	-3.54466e-01		         0.25333	2.60000e+01	
0.89753   	-3.24806e-01		         0.25500	2.70000e+01	
0.90337   	-3.04573e-01		         0.25667	2.80000e+01	
0.90920   	-2.91315e-01		         0.25833	2.90000e+01	
0.91504   	-2.78563e-01		         0.26000	2.90000e+01	
0.92087   	-2.65872e-01		         0.26167	3.00000e+01	
0.92671   	-2.55118e-01		         0.26333	3.20000e+01	
0.93254   	-2.43247e-01		         0.26500	3.30000e+01	
0.93838   	-2.29598e-01		         0.26667	3.40000e+01	
0.94421   	-2.13400e-01		         0.26833	3.60000e+01	
0.95004   	-2.05036e-01		         0.27000	3.80000e+01	
0.95588   	-1.93720e-01		         0.27167	4.00000e+01	
0.96172   	-1.82415e-01		         0.27333	4.10000e+01	
0.96755   	-1.73526e-01		         0.27500	4.30000e+01	
0.97339   	-1.68732e-01		         0.27667	4.50000e+01	
0.97922   	-1.64971e-01		         0.27833	4.70000e+01	
0.98506   	-1.61955e-01		         0.28000	4.90000e+01	
0.99089   	-1.61517e-01		         0.28167	5.00000e+01	
0.99673   	-1.59457e-01		         0.28333	5.10000e+01	
1.00290   	-1.59640e-01		         0.28500	5.20000e+01	
1.00840   	-1.83175e-01		         0.28667	5.30000e+01	
1.01423   	-2.27022e-01		         0.28833	5.40000e+01	
1.02007   	-3.01748e-01		         0.29000	5.40000e+01	
1.02590   	-4.77049e-01		         0.29167	5.50000e+01	
1.03174   	-6.88898e-01		         0.29333	5.50000e+01	
1.03757   	-1.10936e+00		         0.29500	5.50000e+01	
1.04340   	-1.61112e+00		         0.29667	5.50000e+01	
1.04924   	-2.11770e+00		         0.29833	5.50000e+01	
1.05508   	-2.70592e+00		         0.30000	5.50000e+01	
1.06091   	-3.47673e+00		         0.30167	5.40000e+01	
1.06675   	-4.28288e+00		         0.30333	5.40000e+01	
1.07258   	-5.23527e+00		         0.30500	5.30000e+01	
1.07842   	-6.25313e+00		         0.30667	5.30000e+01	
1.08425   	-7.01330e+00		         0.30833	5.20000e+01	
1.09009   	-7.67718e+00		         0.31000	5.10000e+01	
1.09592   	-8.08413e+00		         0.31167	5.00000e+01	
1.10176   	-8.09631e+00		         0.31333	4.80000e+01	
1.10759   	-7.85818e+00		         0.31500	4.60000e+01	
1.11343   	-7.52272e+00		         0.31667	4.40000e+01	
1.11926   	-6.89252e+00		         0.31833	4.10000e+01	
1.12510   	-6.21367e+00		         0.32000	3.90000e+01	
1.13093   	-5.61541e+00		         0.32167	3.60000e+01	
1.13676   	-5.49814e+00		         0.32333	3.30000e+01	
1.14260   	-5.32807e+00		         0.32500	3.00000e+01	
1.14844   	-4.79429e+00		         0.32667	2.70000e+01	
1.15427   	-4.30517e+00		         0.32833	2.30000e+01	
1.16011   	-3.85524e+00		         0.33000	2.00000e+01	
1.16594   	-2.83477e+00		         0.33167	1.70000e+01	
1.17177   	-6.78642e-01		         0.33333	1.40000e+01	
1.17761   	5.74416e-01		         0.33500	1.10000e+01	
1.18345   	9.96454e-01		         0.33667	8.00000e+00	
1.18928   	2.39077e+00		         0.33833	5.00000e+00	
1.19512   	2.76961e+00		         0.34000	3.00000e+00	
1.20095   	8.87721e-01		         0.34167	0.00000e+00	
1.20679   	-4.53210e-01		         0.34333	-3.00000e+00	
1.21262   	-2.13210e-01		         0.34500	-5.00000e+00	
1.21867   	-7.86363e-01		         0.34667	-8.00000e+00	
1.22429   	-3.01713e-01		         0.34833	-1.10000e+01	
1.23013   	1.05064e+00		         0.35000	-1.30000e+01	
1.23596   	2.41138e+00		         0.35167	-1.60000e+01	
1.24180   	3.25141e+00		         0.35333	-1.80000e+01	
1.24763   	3.88041e+00		         0.35500	-2.00000e+01	
1.25347   	4.39066e+00		         0.35667	-2.30000e+01	
1.25930   	5.07648e+00		         0.35833	-2.50000e+01	
1.26514   	5.41218e+00		         0.36000	-2.70000e+01	
1.27097   	5.58843e+00		         0.36167	-2.80000e+01	
1.27681   	5.75559e+00		         0.36333	-3.00000e+01	
1.28264   	5.74873e+00		         0.36500	-3.10000e+01	
1.28847   	5.51237e+00		         0.36667	-3.20000e+01	
1.29431   	5.44825e+00		         0.36833	-3.30000e+01	
1.30014   	5.31215e+00		         0.37000	-3.40000e+01	
1.30598   	5.32484e+00		         0.37167	-3.50000e+01	
1.31182   	5.23099e+00		         0.37333	-3.60000e+01	
1.31765   	5.23447e+00		         0.37500	-3.60000e+01	
1.32348   	5.28337e+00		         0.37667	-3.70000e+01	
1.32932   	5.28649e+00		         0.37833	-3.70000e+01	
1.33515   	5.30996e+00		         0.38000	-3.70000e+01	
1.34099   	5.31909e+00		         0.38167	-3.70000e+01	
1.34683   	5.37324e+00		         0.38333	-3.70000e+01	
1.35266   	5.28021e+00		         0.38500	-3.60000e+01	
1.35850   	5.28629e+00		         0.38667	-3.60000e+01	
1.36433   	5.19962e+00		         0.38833	-3.60000e+01	
1.37016   	5.24616e+00		         0.39000	-3.50000e+01	
1.37600   	5.11181e+00		         0.39167	-3.50000e+01	
1.38183   	5.09007e+00		         0.39333	-3.40000e+01	
1.38767   	5.11635e+00		         0.39500	-3.30000e+01	
1.39351   	4.97204e+00		         0.39667	-3.30000e+01	
1.39934   	4.73565e+00		         0.39833	-3.20000e+01	
1.40518   	4.73631e+00		         0.40000	-3.20000e+01	
1.41101   	4.59466e+00		         0.40167	-3.20000e+01	
1.41684   	4.33140e+00		         0.40333	-3.20000e+01	
1.42268   	4.22992e+00		         0.40500	-3.20000e+01	
1.42852   	4.16452e+00		         0.40667	-3.20000e+01	
1.43448   	3.87952e+00		         0.40833	-3.20000e+01	
1.44018   	3.78272e+00		         0.41000	-3.20000e+01	
1.44602   	3.66318e+00		         0.41167	-3.30000e+01	
1.45185   	3.54357e+00		         0.41333	-3.30000e+01	
1.45769   	3.41311e+00		         0.41500	-3.30000e+01	
1.46353   	3.37484e+00		         0.41667	-3.30000e+01	
1.46936   	3.26484e+00		         0.41833	-3.30000e+01	
1.47520   	3.14668e+00		         0.42000	-3.30000e+01	
1.48103   	2.93824e+00		         0.42167	-3.30000e+01	
1.48686   	2.74805e+00		         0.42333	-3.30000e+01	
1.49270   	2.52279e+00		         0.42500	-3.20000e+01	
1.49854   	2.25625e+00		         0.42667	-3.20000e+01	
1.50437   	1.98639e+00		         0.42833	-3.10000e+01	
1.51020   	1.66622e+00		         0.43000	-3.00000e+01	
1.51604   	1.27206e+00		         0.43167	-3.00000e+01	
1.52188   	8.11269e-01		         0.43333	-2.90000e+01	
1.52771   	2.03575e-01		         0.43500	-2.80000e+01	
1.53354   	-4.52703e-01		         0.43667	-2.70000e+01	
1.53938   	-8.57391e-01		         0.43833	-2.60000e+01	
1.54522   	-1.21154e+00		         0.44000	-2.60000e+01	
1.55105   	-1.49320e+00		         0.44167	-2.50000e+01	
1.55689   	-1.69046e+00		         0.44333	-2.40000e+01	
1.56272   	-1.59445e+00		         0.44500	-2.30000e+01	
1.56855   	-1.37152e+00		         0.44667	-2.20000e+01	
1.57439   	-1.00952e+00		         0.44833	-2.20000e+01	
1.58022   	-5.05155e-01		         0.45000	-2.10000e+01	
1.58606   	-4.62316e-02		         0.45167	-2.00000e+01	
1.59190   	2.85826e-01		         0.45333	-1.90000e+01	
1.59773   	2.13534e-01		         0.45500	-1.90000e+01	
1.60356   	1.68256e-01		         0.45667	-1.80000e+01	
1.60940   	-2.57129e-01		         0.45833	-1.70000e+01	
1.61523   	-5.72475e-01		         0.46000	-1.70000e+01	
1.62107   	-1.03471e+00		         0.46167	-1.70000e+01	
1.62690   	-1.43893e+00		         0.46333	-1.60000e+01	
1.63274   	-1.99584e+00		         0.46500	-1.60000e+01	
1.63857   	-2.37167e+00		         0.46667	-1.50000e+01	
1.64440   	-2.95422e+00		         0.46833	-1.50000e+01	
1.65024   	-3.67875e+00		         0.47000	-1.40000e+01	
1.65608   	-4.46226e+00		         0.47167	-1.30000e+01	
1.66191   	-5.28121e+00		         0.47333	-1.30000e+01	
1.66775   	-5.90369e+00		         0.47500	-1.20000e+01	
1.67358   	-6.21693e+00		         0.47667	-1.20000e+01	
1.67942   	-6.37964e+00		         0.47833	-1.10000e+01	
1.68525   	-6.33515e+00		         0.48000	-1.00000e+01	
1.69109   	-6.14977e+00		         0.48167	-9.00000e+00	
1.69692   	-5.98579e+00		         0.48333	-9.00000e+00	
1.70276   	-5.83427e+00		         0.48500	-8.00000e+00	
1.70860   	-5.47434e+00		         0.48667	-7.00000e+00	
1.71443   	-5.04646e+00		         0.48833	-7.00000e+00	
1.72027   	-4.70764e+00		         0.49000	-6.00000e+00	
1.72610   	-4.37317e+00		         0.49167	-6.00000e+00	
1.73193   	-3.97631e+00		         0.49333	-5.00000e+00	
1.73777   	-3.62552e+00		         0.49500	-4.00000e+00	
1.74360   	-3.37688e+00		         0.49667	-4.00000e+00	
1.74944   	-3.04442e+00		         0.49833	-3.00000e+00	
1.75527   	-2.73532e+00		         0.50000	-3.00000e+00	
1.76111   	-2.48940e+00		         0.50167	-3.00000e+00	
1.76717   	-2.22541e+00		         0.50333	-2.00000e+00	
1.77278   	-1.97571e+00		         0.50500	-2.00000e+00	
1.77861   	-1.77752e+00		         0.50667	-2.00000e+00	
1.78445   	-1.56839e+00		         0.50833	-1.00000e+00	
1.79028   	-1.31313e+00		         0.51000	-1.00000e+00	
1.79612   	-1.12077e+00		         0.51167	-1.00000e+00	
1.80195   	-9.59581e-01		         0.51333	-1.00000e+00	
1.80779   	-7.87514e-01		         0.51500	-1.00000e+00	
1.81362   	-6.81406e-01		         0.51667	-1.00000e+00	
1.81946   	-7.70469e-01		         0.51833	-1.00000e+00	
1.82529   	-8.83401e-01		         0.52000	-2.00000e+00	
1.83113   	-9.88303e-01		         0.52167	-2.00000e+00	
1.83696   	-1.15298e+00		         0.52333	-2.00000e+00	
1.84280   	-1.12700e+00		         0.52500	-2.00000e+00	
1.84863   	-9.39956e-01		         0.52667	-2.00000e+00	
1.85447   	-7.10912e-01		         0.52833	-2.00000e+00	
1.86030   	-4.71782e-01		         0.53000	-2.00000e+00	
1.86618   	-1.76850e-01		         0.53167	-2.00000e+00	
1.87197   	-2.98564e-02		         0.53333	-2.00000e+00	
1.87781   	5.68156e-02		         0.53500	-2.00000e+00	
1.88364   	1.30646e-01		         0.53667	-2.00000e+00	
1.88948   	2.01401e-01		         0.53833	-1.00000e+00	
1.89531   	2.53608e-01		         0.54000	-1.00000e+00	
1.90115   	2.82520e-01		         0.54167	-1.00000e+00	
1.90698   	3.07182e-01		         0.54333	-1.00000e+00	
1.91282   	2.76770e-01		         0.54500	-1.00000e+00	
1.91865   	2.25817e-01		         0.54667	-1.00000e+00	
1.92449   	1.72223e-01		         0.54833	-2.00000e+00	
1.93032   	8.26453e-02		         0.55000	-2.00000e+00	
1.93616   	-2.82299e-03		         0.55167	-2.00000e+00	
1.94199   	-7.93246e-02		         0.55333	-2.00000e+00	
1.94782   	-1.33488e-01		         0.55500	-2.00000e+00	
1.95366   	-1.63763e-01		         0.55667	-2.00000e+00	
1.95950   	-1.75720e-01		         0.55833	-2.00000e+00	
1.96533   	-1.83320e-01		         0.56000	-2.00000e+00	
1.97117   	-1.86975e-01		         0.56167	-2.00000e+00	
1.97700   	-2.00195e-01		         0.56333	-2.00000e+00	
1.98284   	-2.31492e-01		         0.56500	-1.00000e+00	
1.98867   	-2.50066e-01		         0.56667	-1.00000e+00	
1.99450   	-2.60741e-01		         0.56833	-1.00000e+00	
2.00034   	-2.61467e-01		         0.57000	-1.00000e+00	
2.00618   	-2.68056e-01		         0.57167	-1.00000e+00	
2.01201   	-2.46159e-01		         0.57333	-1.00000e+00	
2.01785   	-2.56938e-01		         0.57500	-1.00000e+00	
2.02368   	-2.59887e-01		         0.57667	-2.00000e+00	
2.02952   	-2.61902e-01		         0.57833	-2.00000e+00	
2.03535   	-2.57941e-01		         0.58000	-2.00000e+00	
2.04119   	-2.56456e-01		         0.58167	-3.00000e+00	
2.04702   	-2.39454e-01		         0.58333	-3.00000e+00	
2.05286   	-2.21196e-01		         0.58500	-4.00000e+00	
2.05869   	-2.07084e-01		         0.58667	-4.00000e+00	
2.06452   	-1.98267e-01		         0.58833	-4.00000e+00	
2.07037   	-1.96248e-01		         0.59000	-5.00000e+00	
2.07620   	-1.91534e-01		         0.59167	-5.00000e+00	
2.08203   	-1.94435e-01		         0.59333	-5.00000e+00	
2.08786   	-1.92337e-01		         0.59500	-5.00000e+00	
2.09370   	-1.86796e-01		         0.59667	-5.00000e+00	
2.09954   	-1.82281e-01		         0.59833	-5.00000e+00	
2.10537   	-1.69679e-01		         0.60000	-5.00000e+00	
2.11121   	-1.62001e-01		         0.60167	-5.00000e+00	
2.11704   	-1.59645e-01		         0.60333	-5.00000e+00	
2.12288   	-1.56629e-01		         0.60500	-5.00000e+00	
2.12871   	-1.48568e-01		         0.60667	-5.00000e+00	
2.13454   	-1.51616e-01		         0.60833	-4.00000e+00	
2.14038   	-1.56277e-01		         0.61000	-4.00000e+00	
2.14621   	-1.79970e-01		         0.61167	-4.00000e+00	
2.15206   	-2.28180e-01		         0.61333	-3.00000e+00	
2.15789   	-3.59211e-01		         0.61500	-3.00000e+00	
2.16372   	-5.24486e-01		         0.61667	-2.00000e+00	
2.16956   	-8.33244e-01		         0.61833	-2.00000e+00	
2.17539   	-1.19884e+00		         0.62000	-1.00000e+00	
2.18125   	-1.62120e+00		         0.62167	-1.00000e+00	
2.18706   	-2.10505e+00		         0.62333	0.00000e+00	
2.19290   	-2.75814e+00		         0.62500	0.00000e+00	
2.19873   	-3.48595e+00		         0.62667	0.00000e+00	
2.20457   	-4.79265e+00		         0.62833	1.00000e+00	
2.21040   	-6.06372e+00		         0.63000	1.00000e+00	
2.21623   	-7.17257e+00		         0.63167	1.00000e+00	
2.22207   	-7.80110e+00		         0.63333	1.00000e+00	
2.22791   	-8.12688e+00		         0.63500	0.00000e+00	
2.23374   	-8.01544e+00		         0.63667	0.00000e+00	
2.23958   	-7.75344e+00		         0.63833	0.00000e+00	
2.24541   	-7.48725e+00		         0.64000	-1.00000e+00	
2.25125   	-7.23618e+00		         0.64167	-2.00000e+00	
2.25708   	-7.03290e+00		         0.64333	-3.00000e+00	
2.26292   	-6.55511e+00		         0.64500	-4.00000e+00	
2.26875   	-5.85179e+00		         0.64667	-5.00000e+00	
2.27458   	-5.39551e+00		         0.64833	-5.00000e+00	
2.28042   	-5.24426e+00		         0.65000	-6.00000e+00	
2.28626   	-4.62490e+00		         0.65167	-6.00000e+00	
2.29209   	-3.82038e+00		         0.65333	-7.00000e+00	
2.29792   	-2.98501e+00		         0.65500	-7.00000e+00	
2.30376   	-1.92482e+00		         0.65667	-7.00000e+00	
2.30960   	-5.58934e-01		         0.65833	-6.00000e+00	
2.31543   	7.74477e-01		         0.66000	-6.00000e+00	
2.32127   	2.85197e-01		         0.66167	-5.00000e+00	
2.32710   	2.44963e-02		         0.66333	-5.00000e+00	
2.33293   	-1.05832e-01		         0.66500	-4.00000e+00	
2.33877   	-1.13126e+00		         0.66667	-3.00000e+00	
2.34460   	-2.67825e+00		         0.66833	-3.00000e+00	
2.35044   	-1.68314e+00		         0.67000	-3.00000e+00	
2.35628   	-1.00173e+00		         0.67167	-2.00000e+00	
2.36211   	-3.27053e-01		         0.67333	-2.00000e+00	
2.36794   	1.06589e+00		         0.67500	-1.00000e+00	
2.37378   	2.67595e+00		         0.67667	-1.00000e+00	
2.37961   	3.46253e+00		         0.67833	0.00000e+00	
2.38545   	3.97367e+00		         0.68000	0.00000e+00	
2.39129   	4.38741e+00		         0.68167	1.00000e+00	
2.39747   	4.89129e+00		         0.68333	2.00000e+00	
2.40296   	5.20366e+00		         0.68500	2.00000e+00	
2.40879   	5.38518e+00		         0.68667	2.00000e+00	
2.41462   	5.57922e+00		         0.68833	3.00000e+00	
2.42046   	5.58737e+00		         0.69000	3.00000e+00	
2.42630   	5.56524e+00		         0.69167	3.00000e+00	
2.43213   	5.50102e+00		         0.69333	3.00000e+00	
2.43796   	5.40100e+00		         0.69500	3.00000e+00	
2.44380   	5.24635e+00		         0.69667	2.00000e+00	
2.44963   	5.30985e+00		         0.69833	2.00000e+00	
2.45547   	5.20571e+00		         0.70000	1.00000e+00	
2.46130   	5.21103e+00		         0.70167	0.00000e+00	
2.46714   	5.24927e+00		         0.70333	-1.00000e+00	
2.47297   	5.28617e+00		         0.70500	-1.00000e+00	
2.47881   	5.28816e+00		         0.70667	-2.00000e+00	
2.48465   	5.28509e+00		         0.70833	-3.00000e+00	
2.49048   	5.23102e+00		         0.71000	-4.00000e+00	
2.49631   	5.20868e+00		         0.71167	-5.00000e+00	
2.50215   	5.09628e+00		         0.71333	-5.00000e+00	
2.50798   	5.10821e+00		         0.71500	-6.00000e+00	
2.51382   	5.06221e+00		         0.71667	-6.00000e+00	
2.51966   	5.05703e+00		         0.71833	-6.00000e+00	
2.52549   	5.00123e+00		         0.72000	-7.00000e+00	
2.53132   	4.96525e+00		         0.72167	-7.00000e+00	
2.53716   	4.80804e+00		         0.72333	-7.00000e+00	
2.54300   	4.70491e+00		         0.72500	-7.00000e+00	
2.54883   	4.47542e+00		         0.72667	-7.00000e+00	
2.55466   	4.25070e+00		         0.72833	-7.00000e+00	
2.56050   	4.11682e+00		         0.73000	-7.00000e+00	
2.56634   	4.01436e+00		         0.73167	-7.00000e+00	
2.57217   	3.84579e+00		         0.73333	-7.00000e+00	
2.57800   	3.80295e+00		         0.73500	-7.00000e+00	
2.58384   	3.72790e+00		         0.73667	-7.00000e+00	
2.58967   	3.60148e+00		         0.73833	-7.00000e+00	
2.59551   	3.45099e+00		         0.74000	-8.00000e+00	
2.60134   	3.34209e+00		         0.74167	-8.00000e+00	
2.60718   	3.21400e+00		         0.74333	-8.00000e+00	
2.61334   	3.03542e+00		         0.74500	-8.00000e+00	
2.61885   	2.93915e+00		         0.74667	-9.00000e+00	
2.62468   	2.74919e+00		         0.74833	-9.00000e+00	
2.63052   	2.55742e+00		         0.75000	-9.00000e+00	
2.63635   	2.27769e+00		         0.75167	-9.00000e+00	
2.64219   	2.02963e+00		         0.75333	-9.00000e+00	
2.64802   	1.73991e+00		         0.75500	-9.00000e+00	
2.65386   	1.36027e+00		         0.75667	-9.00000e+00	
2.65970   	9.25383e-01		         0.75833	-9.00000e+00	
2.66553   	3.93644e-01		         0.76000	-9.00000e+00	
2.67137   	-3.04992e-01		         0.76167	-8.00000e+00	
2.67720   	-7.06387e-01		         0.76333	-8.00000e+00	
2.68303   	-1.23808e+00		         0.76500	-8.00000e+00	
2.68887   	-1.51555e+00		         0.76667	-7.00000e+00	
2.69470   	-1.48049e+00		         0.76833	-7.00000e+00	
2.70054   	-1.30863e+00		         0.77000	-6.00000e+00	
2.70637   	-1.24798e+00		         0.77167	-5.00000e+00	
2.71221   	-8.06101e-01		         0.77333	-4.00000e+00	
2.71804   	-5.15642e-01		         0.77500	-4.00000e+00	
2.72388   	-3.55949e-01		         0.77667	-3.00000e+00	
2.72971   	-1.77373e-01		         0.77833	-3.00000e+00	
2.73555   	-9.50440e-02		         0.78000	-2.00000e+00	
2.74138   	-3.16503e-02		         0.78167	-2.00000e+00	
2.74722   	-3.52624e-01		         0.78333	-2.00000e+00	
2.75305   	-5.02550e-01		         0.78500	-1.00000e+00	
2.75889   	-8.15209e-01		         0.78667	-1.00000e+00	
2.76472   	-1.24324e+00		         0.78833	-1.00000e+00	
2.77056   	-2.09651e+00		         0.79000	-1.00000e+00	
2.77639   	-2.36572e+00		         0.79167	-1.00000e+00	
2.78223   	-3.25392e+00		         0.79333	-1.00000e+00	
2.78806   	-4.00039e+00		         0.79500	-2.00000e+00	
2.79390   	-4.81479e+00		         0.79667	-2.00000e+00	
2.79973   	-5.33026e+00		         0.79833	-2.00000e+00	
2.80557   	-6.08153e+00		         0.80000	-2.00000e+00	
2.81140   	-6.45498e+00		         0.80167	-1.00000e+00	
2.81724   	-6.70879e+00		         0.80333	-1.00000e+00	
2.82307   	-6.72799e+00		         0.80500	-1.00000e+00	
2.82910   	-6.61933e+00		         0.80667	-1.00000e+00	
2.83474   	-6.38152e+00		         0.80833	0.00000e+00	
2.84058   	-5.99628e+00		         0.81000	0.00000e+00	
2.84641   	-5.55805e+00		         0.81167	1.00000e+00	
2.85225   	-5.12994e+00		         0.81333	1.00000e+00	
2.85808   	-4.76097e+00		         0.81500	2.00000e+00	
2.86392   	-4.41031e+00		         0.81667	2.00000e+00	
2.86975   	-4.13012e+00		         0.81833	3.00000e+00	
2.87559   	-3.84407e+00		         0.82000	3.00000e+00	
2.88142   	-3.55811e+00		         0.82167	4.00000e+00	
2.88726   	-3.26993e+00		         0.82333	4.00000e+00	
2.89309   	-2.95305e+00		         0.82500	5.00000e+00	
2.89893   	-2.62779e+00		         0.82667	5.00000e+00	
2.90476   	-2.30150e+00		         0.82833	5.00000e+00	
2.91060   	-2.05194e+00		         0.83000	5.00000e+00	
2.91643   	-1.79098e+00		         0.83167	5.00000e+00	
2.92227   	-1.49315e+00		         0.83333	6.00000e+00	
2.92810   	-1.22045e+00		         0.83500	6.00000e+00	
2.93394   	-1.07789e+00		         0.83667	6.00000e+00	
2.93977   	-9.24772e-01		         0.83833	6.00000e+00	
2.94561   	-8.08655e-01		         0.84000	6.00000e+00	
2.95144   	-7.94875e-01		         0.84167	6.00000e+00	
2.95728   	-7.90006e-01		         0.84333	6.00000e+00	
2.96311   	-7.81792e-01		         0.84500	6.00000e+00	
2.96895   	-8.18519e-01		         0.84667	6.00000e+00	
2.97478   	-7.78836e-01		         0.84833	6.00000e+00	
2.98062   	-6.44476e-01		         0.85000	6.00000e+00	
2.98645   	-5.07826e-01		         0.85167	6.00000e+00	
2.99229   	-3.20622e-01		         0.85333	6.00000e+00	
2.99812   	-1.19117e-01		         0.85500	6.00000e+00	
3.00396   	-5.13510e-02		         0.85667	6.00000e+00	
3.00979   	-4.98158e-03		         0.85833	7.00000e+00	
3.01563   	4.49575e-02		         0.86000	7.00000e+00	
3.02146   	1.13437e-01		         0.86167	7.00000e+00	
3.02730   	1.73189e-01		         0.86333	7.00000e+00	
3.03314   	3.13558e-01		         0.86500	7.00000e+00	
3.03897   	3.23104e-01		         0.86667	7.00000e+00	
3.04487   	3.42417e-01		         0.86833	7.00000e+00	
3.05064   	3.19974e-01		         0.87000	7.00000e+00	
3.05647   	2.88171e-01		         0.87167	7.00000e+00	
3.06231   	1.99332e-01		         0.87333	7.00000e+00	
3.06814   	1.47469e-01		         0.87500	7.00000e+00	
3.07398   	7.08313e-02		         0.87667	7.00000e+00	
3.07981   	9.54347e-03		         0.87833	7.00000e+00	
3.08565   	-5.24261e-02		         0.88000	6.00000e+00	
3.09148   	-9.01433e-02		         0.88167	6.00000e+00	
3.09732   	-1.25253e-01		         0.88333	6.00000e+00	
3.10315   	-1.44077e-01		         0.88500	5.00000e+00	
3.10899   	-1.86561e-01		         0.88667	4.00000e+00	
3.11482   	-2.03947e-01		         0.88833	4.00000e+00	
3.12066   	-2.11331e-01		         0.89000	3.00000e+00	
3.12649   	-2.31512e-01		         0.89167	2.00000e+00	
3.13233   	-2.52482e-01		         0.89333	2.00000e+00	
3.13817   	-2.49028e-01		         0.89500	1.00000e+00	
3.14400   	-2.47725e-01		         0.89667	1.00000e+00	
3.14983   	-2.53554e-01		         0.89833	0.00000e+00	
3.15567   	-2.36410e-01		         0.90000	0.00000e+00	
3.16150   	-2.15381e-01		         0.90167	0.00000e+00	
3.16734   	-2.05607e-01		         0.90333	0.00000e+00	
3.17317   	-1.96018e-01		         0.90500	0.00000e+00	
3.17901   	-1.89913e-01		         0.90667	0.00000e+00	
3.18485   	-1.88450e-01		         0.90833	0.00000e+00	
3.19068   	-1.90561e-01		         0.91000	1.00000e+00	
3.19651   	-1.90772e-01		         0.91167	1.00000e+00	
3.20235   	-2.04775e-01		         0.91333	2.00000e+00	
3.20818   	-2.16337e-01		         0.91500	3.00000e+00	
3.21402   	-2.44301e-01		         0.91667	3.00000e+00	
3.21985   	-2.73258e-01		         0.91833	4.00000e+00	
3.22569   	-3.15824e-01		         0.92000	4.00000e+00	
3.23153   	-3.57737e-01		         0.92167	4.00000e+00	
3.23736   	-4.16533e-01		         0.92333	5.00000e+00	
3.24319   	-5.08834e-01		         0.92500	5.00000e+00	
3.24903   	-6.50336e-01		         0.92667	5.00000e+00	
3.25486   	-9.26582e-01		         0.92833	5.00000e+00	
3.26072   	-1.26914e+00		         0.93000	5.00000e+00	
3.26653   	-1.60537e+00		         0.93167	5.00000e+00	
3.27237   	-2.03287e+00		         0.93333	4.00000e+00	
3.27820   	-2.62107e+00		         0.93500	4.00000e+00	
3.28404   	-3.67651e+00		         0.93667	4.00000e+00	
3.28987   	-4.80941e+00		         0.93833	4.00000e+00	
3.29571   	-5.95110e+00		         0.94000	4.00000e+00	
3.30154   	-6.83398e+00		         0.94167	4.00000e+00	
3.30738   	-7.66053e+00		         0.94333	4.00000e+00	
3.31321   	-7.95022e+00		         0.94500	4.00000e+00	
3.31905   	-7.96721e+00		         0.94667	5.00000e+00	
3.32488   	-7.90338e+00		         0.94833	5.00000e+00	
3.33072   	-7.89575e+00		         0.95000	5.00000e+00	
3.33655   	-7.62471e+00		         0.95167	5.00000e+00	
3.34239   	-7.14259e+00		         0.95333	5.00000e+00	
3.34822   	-6.57213e+00		         0.95500	6.00000e+00	
3.35406   	-5.97878e+00		         0.95667	5.00000e+00	
3.35989   	-5.51981e+00		         0.95833	5.00000e+00	
3.36573   	-5.10134e+00		         0.96000	5.00000e+00	
3.37156   	-4.86808e+00		         0.96167	5.00000e+00	
3.37740   	-4.53510e+00		         0.96333	4.00000e+00	
3.38323   	-3.95556e+00		         0.96500	4.00000e+00	
3.38907   	-2.92399e+00		         0.96667	4.00000e+00	
3.39490   	-1.26622e+00		         0.96833	3.00000e+00	
3.40074   	2.59769e-01		         0.97000	3.00000e+00	
3.40657   	1.17714e+00		         0.97167	3.00000e+00	
3.41241   	2.15539e+00		         0.97333	3.00000e+00	
			         0.97500	3.00000e+00	
			         0.97667	3.00000e+00	
			         0.97833	3.00000e+00	
			         0.98000	3.00000e+00	
			         0.98167	4.00000e+00	
			         0.98333	4.00000e+00	
			         0.98500	5.00000e+00	
			         0.98667	6.00000e+00	
			         0.98833	6.00000e+00	
			         0.99000	7.00000e+00	
			         0.99167	7.00000e+00	
			         0.99333	8.00000e+00	
			         0.99500	8.00000e+00	
			         0.99667	9.00000e+00	
			         0.99833	1.00000e+01	
			         1.00000	1.00000e+01	
			         1.00167	1.10000e+01	
			         1.00333	1.10000e+01	
			         1.00500	1.20000e+01	
			         1.00667	1.30000e+01	
			         1.00833	1.30000e+01	
			         1.01000	1.40000e+01	
			         1.01167	1.50000e+01	
			         1.01333	1.60000e+01	
			         1.01500	1.70000e+01	
			         1.01667	1.80000e+01	
			         1.01833	1.80000e+01	
			         1.02000	1.90000e+01	
			         1.02167	2.00000e+01	
			         1.02333	2.10000e+01	
			         1.02500	2.20000e+01	
			         1.02667	2.40000e+01	
			         1.02833	2.50000e+01	
			         1.03000	2.70000e+01	
			         1.03167	2.80000e+01	
			         1.03333	2.90000e+01	
			         1.03500	3.00000e+01	
			         1.03667	3.10000e+01	
			         1.03833	3.20000e+01	
			         1.04000	3.30000e+01	
			         1.04167	3.30000e+01	
			         1.04333	3.20000e+01	
			         1.04500	3.20000e+01	
			         1.04667	3.10000e+01	
			         1.04833	2.90000e+01	
			         1.05000	2.70000e+01	
			         1.05167	2.50000e+01	
			         1.05333	2.30000e+01	
			         1.05500	2.10000e+01	
			         1.05667	1.90000e+01	
			         1.05833	1.70000e+01	
			         1.06000	1.50000e+01	
			         1.06167	1.30000e+01	
			         1.06333	1.10000e+01	
			         1.06500	9.00000e+00	
			         1.06667	7.00000e+00	
			         1.06833	5.00000e+00	
			         1.07000	3.00000e+00	
			         1.07167	1.00000e+00	
			         1.07333	-1.00000e+00	
			         1.07500	-3.00000e+00	
			         1.07667	-5.00000e+00	
			         1.07833	-7.00000e+00	
			         1.08000	-9.00000e+00	
			         1.08167	-1.00000e+01	
			         1.08333	-1.10000e+01	
			         1.08500	-1.30000e+01	
			         1.08667	-1.40000e+01	
			         1.08833	-1.40000e+01	
			         1.09000	-1.50000e+01	
			         1.09167	-1.50000e+01	
			         1.09333	-1.60000e+01	
			         1.09500	-1.60000e+01	
			         1.09667	-1.60000e+01	
			         1.09833	-1.60000e+01	
			         1.10000	-1.70000e+01	
			         1.10167	-1.70000e+01	
			         1.10333	-1.70000e+01	
			         1.10500	-1.70000e+01	
			         1.10667	-1.70000e+01	
			         1.10833	-1.70000e+01	
			         1.11000	-1.70000e+01	
			         1.11167	-1.70000e+01	
			         1.11333	-1.70000e+01	
			         1.11500	-1.70000e+01	
			         1.11667	-1.60000e+01	
			         1.11833	-1.60000e+01	
			         1.12000	-1.50000e+01	
			         1.12167	-1.50000e+01	
			         1.12333	-1.50000e+01	
			         1.12500	-1.50000e+01	
			         1.12667	-1.50000e+01	
			         1.12833	-1.50000e+01	
			         1.13000	-1.50000e+01	
			         1.13167	-1.60000e+01	
			         1.13333	-1.70000e+01	
			         1.13500	-1.90000e+01	
			         1.13667	-2.10000e+01	
			         1.13833	-2.30000e+01	
			         1.14000	-2.50000e+01	
			         1.14167	-2.70000e+01	
			         1.14333	-2.80000e+01	
			         1.14500	-2.80000e+01	
			         1.14667	-2.60000e+01	
			         1.14833	-2.30000e+01	
			         1.15000	-1.70000e+01	
			         1.15167	-8.00000e+00	
			         1.15333	4.00000e+00	
			         1.15500	1.90000e+01	
			         1.15667	3.70000e+01	
			         1.15833	5.70000e+01	
			         1.16000	8.10000e+01	
			         1.16167	1.06000e+02	
			         1.16333	1.32000e+02	
			         1.16500	1.58000e+02	
			         1.16667	1.83000e+02	
			         1.16833	2.06000e+02	
			         1.17000	2.27000e+02	
			         1.17167	2.43000e+02	
			         1.17333	2.55000e+02	
			         1.17500	2.61000e+02	
			         1.17667	2.63000e+02	
			         1.17833	2.59000e+02	
			         1.18000	2.50000e+02	
			         1.18167	2.37000e+02	
			         1.18333	2.19000e+02	
			         1.18500	1.99000e+02	
			         1.18667	1.75000e+02	
			         1.18833	1.51000e+02	
			         1.19000	1.25000e+02	
			         1.19167	1.00000e+02	
			         1.19333	7.50000e+01	
			         1.19500	5.20000e+01	
			         1.19667	3.00000e+01	
			         1.19833	1.10000e+01	
			         1.20000	-7.00000e+00	
			         1.20167	-2.20000e+01	
			         1.20333	-3.60000e+01	
			         1.20500	-4.70000e+01	
			         1.20667	-5.60000e+01	
			         1.20833	-6.40000e+01	
			         1.21000	-7.00000e+01	
			         1.21167	-7.40000e+01	
			         1.21333	-7.80000e+01	
			         1.21500	-8.00000e+01	
			         1.21667	-8.10000e+01	
			         1.21833	-8.20000e+01	
			         1.22000	-8.20000e+01	
			         1.22167	-8.20000e+01	
			         1.22333	-8.10000e+01	
			         1.22500	-8.00000e+01	
			         1.22667	-7.90000e+01	
			         1.22833	-7.80000e+01	
			         1.23000	-7.70000e+01	
			         1.23167	-7.60000e+01	
			         1.23333	-7.50000e+01	
			         1.23500	-7.30000e+01	
			         1.23667	-7.20000e+01	
			         1.23833	-7.10000e+01	
			         1.24000	-7.00000e+01	
			         1.24167	-6.90000e+01	
			         1.24333	-6.70000e+01	
			         1.24500	-6.60000e+01	
			         1.24667	-6.50000e+01	
			         1.24833	-6.40000e+01	
			         1.25000	-6.30000e+01	
			         1.25167	-6.20000e+01	
			         1.25333	-6.10000e+01	
			         1.25500	-6.00000e+01	
			         1.25667	-5.90000e+01	
			         1.25833	-5.80000e+01	
			         1.26000	-5.60000e+01	
			         1.26167	-5.50000e+01	
			         1.26333	-5.40000e+01	
			         1.26500	-5.20000e+01	
			         1.26667	-5.00000e+01	
			         1.26833	-4.90000e+01	
			         1.27000	-4.70000e+01	
			         1.27167	-4.50000e+01	
			         1.27333	-4.40000e+01	
			         1.27500	-4.20000e+01	
			         1.27667	-4.10000e+01	
			         1.27833	-3.90000e+01	
			         1.28000	-3.80000e+01	
			         1.28167	-3.60000e+01	
			         1.28333	-3.50000e+01	
			         1.28500	-3.40000e+01	
			         1.28667	-3.20000e+01	
			         1.28833	-3.10000e+01	
			         1.29000	-3.00000e+01	
			         1.29167	-2.80000e+01	
			         1.29333	-2.70000e+01	
			         1.29500	-2.60000e+01	
			         1.29667	-2.50000e+01	
			         1.29833	-2.40000e+01	
			         1.30000	-2.30000e+01	
			         1.30167	-2.20000e+01	
			         1.30333	-2.20000e+01	
			         1.30500	-2.10000e+01	
			         1.30667	-2.10000e+01	
			         1.30833	-2.00000e+01	
			         1.31000	-2.00000e+01	
			         1.31167	-1.90000e+01	
			         1.31333	-1.90000e+01	
			         1.31500	-1.80000e+01	
			         1.31667	-1.70000e+01	
			         1.31833	-1.70000e+01	
			         1.32000	-1.60000e+01	
			         1.32167	-1.50000e+01	
			         1.32333	-1.50000e+01	
			         1.32500	-1.40000e+01	
			         1.32667	-1.30000e+01	
			         1.32833	-1.30000e+01	
			         1.33000	-1.20000e+01	
			         1.33167	-1.10000e+01	
			         1.33333	-1.10000e+01	
			         1.33500	-1.00000e+01	
			         1.33667	-1.00000e+01	
			         1.33833	-9.00000e+00	
			         1.34000	-8.00000e+00	
			         1.34167	-8.00000e+00	
			         1.34333	-7.00000e+00	
			         1.34500	-6.00000e+00	
			         1.34667	-6.00000e+00	
			         1.34833	-5.00000e+00	
			         1.35000	-4.00000e+00	
			         1.35167	-4.00000e+00	
			         1.35333	-3.00000e+00	
			         1.35500	-3.00000e+00	
			         1.35667	-2.00000e+00	
			         1.35833	-1.00000e+00	
			         1.36000	-1.00000e+00	
			         1.36167	0.00000e+00	
			         1.36333	0.00000e+00	
			         1.36500	1.00000e+00	
			         1.36667	1.00000e+00	
			         1.36833	1.00000e+00	
			         1.37000	2.00000e+00	
			         1.37167	2.00000e+00	
			         1.37333	3.00000e+00	
			         1.37500	3.00000e+00	
			         1.37667	4.00000e+00	
			         1.37833	5.00000e+00	
			         1.38000	5.00000e+00	
			         1.38167	6.00000e+00	
			         1.38333	7.00000e+00	
			         1.38500	9.00000e+00	
			         1.38667	1.00000e+01	
			         1.38833	1.10000e+01	
			         1.39000	1.30000e+01	
			         1.39167	1.40000e+01	
			         1.39333	1.60000e+01	
			         1.39500	1.80000e+01	
			         1.39667	1.90000e+01	
			         1.39833	2.10000e+01	
			         1.40000	2.30000e+01	
			         1.40167	2.50000e+01	
			         1.40333	2.60000e+01	
			         1.40500	2.80000e+01	
			         1.40667	2.90000e+01	
			         1.40833	3.10000e+01	
			         1.41000	3.20000e+01	
			         1.41167	3.40000e+01	
			         1.41333	3.50000e+01	
			         1.41500	3.70000e+01	
			         1.41667	3.80000e+01	
			         1.41833	3.90000e+01	
			         1.42000	4.10000e+01	
			         1.42167	4.20000e+01	
			         1.42333	4.30000e+01	
			         1.42500	4.40000e+01	
			         1.42667	4.60000e+01	
			         1.42833	4.70000e+01	
			         1.43000	4.80000e+01	
			         1.43167	4.90000e+01	
			         1.43333	5.00000e+01	
			         1.43500	5.00000e+01	
			         1.43667	5.10000e+01	
			         1.43833	5.10000e+01	
			         1.44000	5.10000e+01	
			         1.44167	5.10000e+01	
			         1.44333	5.10000e+01	
			         1.44500	5.10000e+01	
			         1.44667	5.10000e+01	
			         1.44833	5.00000e+01	
			         1.45000	5.00000e+01	
			         1.45167	4.90000e+01	
			         1.45333	4.90000e+01	
			         1.45500	4.80000e+01	
			         1.45667	4.80000e+01	
			         1.45833	4.70000e+01	
			         1.46000	4.60000e+01	
			         1.46167	4.50000e+01	
			         1.46333	4.40000e+01	
			         1.46500	4.20000e+01	
			         1.46667	4.10000e+01	
			         1.46833	3.90000e+01	
			         1.47000	3.70000e+01	
			         1.47167	3.40000e+01	
			         1.47333	3.20000e+01	
			         1.47500	2.90000e+01	
			         1.47667	2.70000e+01	
			         1.47833	2.40000e+01	
			         1.48000	2.10000e+01	
			         1.48167	1.80000e+01	
			         1.48333	1.50000e+01	
			         1.48500	1.30000e+01	
			         1.48667	1.00000e+01	
			         1.48833	7.00000e+00	
			         1.49000	5.00000e+00	
			         1.49167	2.00000e+00	
			         1.49333	-1.00000e+00	
			         1.49500	-3.00000e+00	
			         1.49667	-6.00000e+00	
			         1.49833	-9.00000e+00	
			         1.50000	-1.20000e+01	
			         1.50167	-1.40000e+01	
			         1.50333	-1.70000e+01	
			         1.50500	-1.90000e+01	
			         1.50667	-2.10000e+01	
			         1.50833	-2.40000e+01	
			         1.51000	-2.60000e+01	
			         1.51167	-2.80000e+01	
			         1.51333	-2.90000e+01	
			         1.51500	-3.10000e+01	
			         1.51667	-3.20000e+01	
			         1.51833	-3.30000e+01	
			         1.52000	-3.40000e+01	
			         1.52167	-3.60000e+01	
			         1.52333	-3.70000e+01	
			         1.52500	-3.80000e+01	
			         1.52667	-3.90000e+01	
			         1.52833	-3.90000e+01	
			         1.53000	-4.00000e+01	
			         1.53167	-4.10000e+01	
			         1.53333	-4.10000e+01	
			         1.53500	-4.20000e+01	
			         1.53667	-4.20000e+01	
			         1.53833	-4.30000e+01	
			         1.54000	-4.30000e+01	
			         1.54167	-4.30000e+01	
			         1.54333	-4.30000e+01	
			         1.54500	-4.30000e+01	
			         1.54667	-4.30000e+01	
			         1.54833	-4.30000e+01	
			         1.55000	-4.20000e+01	
			         1.55167	-4.10000e+01	
			         1.55333	-4.10000e+01	
			         1.55500	-4.00000e+01	
			         1.55667	-3.90000e+01	
			         1.55833	-3.80000e+01	
			         1.56000	-3.70000e+01	
			         1.56167	-3.60000e+01	
			         1.56333	-3.50000e+01	
			         1.56500	-3.40000e+01	
			         1.56667	-3.30000e+01	
			         1.56833	-3.20000e+01	
			         1.57000	-3.10000e+01	
			         1.57167	-3.10000e+01	
			         1.57333	-3.00000e+01	
			         1.57500	-3.00000e+01	
			         1.57667	-2.90000e+01	
			         1.57833	-2.90000e+01	
			         1.58000	-2.80000e+01	
			         1.58167	-2.80000e+01	
			         1.58333	-2.80000e+01	
			         1.58500	-2.70000e+01	
			         1.58667	-2.70000e+01	
			         1.58833	-2.70000e+01	
			         1.59000	-2.70000e+01	
			         1.59167	-2.70000e+01	
			         1.59333	-2.70000e+01	
			         1.59500	-2.70000e+01	
			         1.59667	-2.60000e+01	
			         1.59833	-2.60000e+01	
			         1.60000	-2.60000e+01	
			         1.60167	-2.50000e+01	
			         1.60333	-2.50000e+01	
			         1.60500	-2.40000e+01	
			         1.60667	-2.30000e+01	
			         1.60833	-2.30000e+01	
			         1.61000	-2.20000e+01	
			         1.61167	-2.10000e+01	
			         1.61333	-1.90000e+01	
			         1.61500	-1.80000e+01	
			         1.61667	-1.70000e+01	
			         1.61833	-1.60000e+01	
			         1.62000	-1.40000e+01	
			         1.62167	-1.30000e+01	
			         1.62333	-1.20000e+01	
			         1.62500	-1.10000e+01	
			         1.62667	-1.10000e+01	
			         1.62833	-1.00000e+01	
			         1.63000	-1.00000e+01	
			         1.63167	-9.00000e+00	
			         1.63333	-9.00000e+00	
			         1.63500	-9.00000e+00	
			         1.63667	-9.00000e+00	
			         1.63833	-9.00000e+00	
			         1.64000	-9.00000e+00	
			         1.64167	-1.00000e+01	
			         1.64333	-1.00000e+01	
			         1.64500	-1.00000e+01	
			         1.64667	-9.00000e+00	
			         1.64833	-9.00000e+00	
			         1.65000	-9.00000e+00	
			         1.65167	-9.00000e+00	
			         1.65333	-8.00000e+00	
			         1.65500	-8.00000e+00	
			         1.65667	-8.00000e+00	
			         1.65833	-7.00000e+00	
			         1.66000	-7.00000e+00	
			         1.66167	-7.00000e+00	
			         1.66333	-6.00000e+00	
			         1.66500	-6.00000e+00	
			         1.66667	-5.00000e+00	
			         1.66833	-5.00000e+00	
			         1.67000	-4.00000e+00	
			         1.67167	-4.00000e+00	
			         1.67333	-3.00000e+00	
			         1.67500	-3.00000e+00	
			         1.67667	-2.00000e+00	
			         1.67833	-2.00000e+00	
			         1.68000	-2.00000e+00	
			         1.68167	-2.00000e+00	
			         1.68333	-2.00000e+00	
			         1.68500	-2.00000e+00	
			         1.68667	-2.00000e+00	
			         1.68833	-2.00000e+00	
			         1.69000	-2.00000e+00	
			         1.69167	-2.00000e+00	
			         1.69333	-2.00000e+00	
			         1.69500	-2.00000e+00	
			         1.69667	-2.00000e+00	
			         1.69833	-2.00000e+00	
			         1.70000	-2.00000e+00	
			         1.70167	-2.00000e+00	
			         1.70333	-2.00000e+00	
			         1.70500	-2.00000e+00	
			         1.70667	-2.00000e+00	
			         1.70833	-2.00000e+00	
			         1.71000	-2.00000e+00	
			         1.71167	-2.00000e+00	
			         1.71333	-2.00000e+00	
			         1.71500	-2.00000e+00	
			         1.71667	-2.00000e+00	
			         1.71833	-2.00000e+00	
			         1.72000	-2.00000e+00	
			         1.72167	-3.00000e+00	
			         1.72333	-3.00000e+00	
			         1.72500	-3.00000e+00	
			         1.72667	-3.00000e+00	
			         1.72833	-3.00000e+00	
			         1.73000	-3.00000e+00	
			         1.73167	-4.00000e+00	
			         1.73333	-4.00000e+00	
			         1.73500	-4.00000e+00	
			         1.73667	-5.00000e+00	
			         1.73833	-5.00000e+00	
			         1.74000	-6.00000e+00	
			         1.74167	-7.00000e+00	
			         1.74333	-7.00000e+00	
			         1.74500	-8.00000e+00	
			         1.74667	-9.00000e+00	
			         1.74833	-9.00000e+00	
			         1.75000	-1.00000e+01	
			         1.75167	-1.00000e+01	
			         1.75333	-1.10000e+01	
			         1.75500	-1.10000e+01	
			         1.75667	-1.10000e+01	
			         1.75833	-1.10000e+01	
			         1.76000	-1.20000e+01	
			         1.76167	-1.10000e+01	
			         1.76333	-1.10000e+01	
			         1.76500	-1.10000e+01	
			         1.76667	-1.00000e+01	
			         1.76833	-1.00000e+01	
			         1.77000	-9.00000e+00	
			         1.77167	-8.00000e+00	
			         1.77333	-7.00000e+00	
			         1.77500	-7.00000e+00	
			         1.77667	-6.00000e+00	
			         1.77833	-6.00000e+00	
			         1.78000	-5.00000e+00	
			         1.78167	-5.00000e+00	
			         1.78333	-5.00000e+00	
			         1.78500	-5.00000e+00	
			         1.78667	-5.00000e+00	
			         1.78833	-5.00000e+00	
			         1.79000	-6.00000e+00	
			         1.79167	-6.00000e+00	
			         1.79333	-6.00000e+00	
			         1.79500	-6.00000e+00	
			         1.79667	-6.00000e+00	
			         1.79833	-6.00000e+00	
			         1.80000	-6.00000e+00	
			         1.80167	-6.00000e+00	
			         1.80333	-6.00000e+00	
			         1.80500	-6.00000e+00	
			         1.80667	-6.00000e+00	
			         1.80833	-6.00000e+00	
			         1.81000	-6.00000e+00	
			         1.81167	-6.00000e+00	
			         1.81333	-6.00000e+00	
			         1.81500	-7.00000e+00	
			         1.81667	-7.00000e+00	
			         1.81833	-7.00000e+00	
			         1.82000	-7.00000e+00	
			         1.82167	-7.00000e+00	
			         1.82333	-7.00000e+00	
			         1.82500	-6.00000e+00	
			         1.82667	-6.00000e+00	
			         1.82833	-5.00000e+00	
			         1.83000	-5.00000e+00	
			         1.83167	-4.00000e+00	
			         1.83333	-4.00000e+00	
			         1.83500	-3.00000e+00	
			         1.83667	-3.00000e+00	
			         1.83833	-2.00000e+00	
			         1.84000	-2.00000e+00	
			         1.84167	-2.00000e+00	
			         1.84333	-1.00000e+00	
			         1.84500	-1.00000e+00	
			         1.84667	-1.00000e+00	
			         1.84833	-1.00000e+00	
			         1.85000	0.00000e+00	
			         1.85167	0.00000e+00	
			         1.85333	0.00000e+00	
			         1.85500	0.00000e+00	
			         1.85667	1.00000e+00	
			         1.85833	1.00000e+00	
			         1.86000	1.00000e+00	
			         1.86167	1.00000e+00	
			         1.86333	1.00000e+00	
			         1.86500	1.00000e+00	
			         1.86667	1.00000e+00	
			         1.86833	1.00000e+00	
			         1.87000	1.00000e+00	
			         1.87167	1.00000e+00	
			         1.87333	0.00000e+00	
			         1.87500	0.00000e+00	
			         1.87667	0.00000e+00	
			         1.87833	0.00000e+00	
			         1.88000	0.00000e+00	
			         1.88167	-1.00000e+00	
			         1.88333	-1.00000e+00	
			         1.88500	-1.00000e+00	
			         1.88667	-1.00000e+00	
			         1.88833	-1.00000e+00	
			         1.89000	-1.00000e+00	
			         1.89167	-1.00000e+00	
			         1.89333	-1.00000e+00	
			         1.89500	-1.00000e+00	
			         1.89667	-1.00000e+00	
			         1.89833	-1.00000e+00	
			         1.90000	-1.00000e+00	
			         1.90167	-1.00000e+00	
			         1.90333	-1.00000e+00	
			         1.90500	-1.00000e+00	
			         1.90667	-1.00000e+00	
			         1.90833	-1.00000e+00	
			         1.91000	-1.00000e+00	
			         1.91167	-1.00000e+00	
			         1.91333	-1.00000e+00	
			         1.91500	-1.00000e+00	
			         1.91667	0.00000e+00	
			         1.91833	0.00000e+00	
			         1.92000	0.00000e+00	
			         1.92167	0.00000e+00	
			         1.92333	0.00000e+00	
			         1.92500	0.00000e+00	
			         1.92667	0.00000e+00	
			         1.92833	0.00000e+00	
			         1.93000	0.00000e+00	
			         1.93167	0.00000e+00	
			         1.93333	0.00000e+00	
			         1.93500	0.00000e+00	
			         1.93667	0.00000e+00	
			         1.93833	-1.00000e+00	
			         1.94000	-1.00000e+00	
			         1.94167	-2.00000e+00	
			         1.94333	-2.00000e+00	
			         1.94500	-3.00000e+00	
			         1.94667	-3.00000e+00	
			         1.94833	-3.00000e+00	
			         1.95000	-3.00000e+00	
			         1.95167	-3.00000e+00	
			         1.95333	-3.00000e+00	
			         1.95500	-3.00000e+00	
			         1.95667	-3.00000e+00	
			         1.95833	-2.00000e+00	
			         1.96000	-2.00000e+00	
			         1.96167	-1.00000e+00	
			         1.96333	-1.00000e+00	
			         1.96500	0.00000e+00	
			         1.96667	0.00000e+00	
			         1.96833	1.00000e+00	
			         1.97000	1.00000e+00	
			         1.97167	2.00000e+00	
			         1.97333	2.00000e+00	
			         1.97500	2.00000e+00	
			         1.97667	2.00000e+00	
			         1.97833	2.00000e+00	
			         1.98000	2.00000e+00	
			         1.98167	2.00000e+00	
			         1.98333	2.00000e+00	
			         1.98500	2.00000e+00	
			         1.98667	2.00000e+00	
			         1.98833	2.00000e+00	
			         1.99000	2.00000e+00	
			         1.99167	1.00000e+00	
			         1.99333	1.00000e+00	
			         1.99500	1.00000e+00	
			         1.99667	1.00000e+00	
			         1.99833	1.00000e+00	
			         2.00000	1.00000e+00	
			         2.00167	1.00000e+00	
			         2.00333	1.00000e+00	
			         2.00500	1.00000e+00	
			         2.00667	1.00000e+00	
			         2.00833	1.00000e+00	
			         2.01000	1.00000e+00	
			         2.01167	1.00000e+00	
			         2.01333	1.00000e+00	
			         2.01500	1.00000e+00	
			         2.01667	1.00000e+00	
			         2.01833	2.00000e+00	
			         2.02000	2.00000e+00	
			         2.02167	2.00000e+00	
			         2.02333	3.00000e+00	
			         2.02500	3.00000e+00	
			         2.02667	3.00000e+00	
			         2.02833	4.00000e+00	
			         2.03000	4.00000e+00	
			         2.03167	4.00000e+00	
			         2.03333	4.00000e+00	
			         2.03500	5.00000e+00	
			         2.03667	4.00000e+00	
			         2.03833	4.00000e+00	
			         2.04000	4.00000e+00	
			         2.04167	4.00000e+00	
			         2.04333	3.00000e+00	
			         2.04500	3.00000e+00	
			         2.04667	3.00000e+00	
			         2.04833	2.00000e+00	
			         2.05000	2.00000e+00	
			         2.05167	2.00000e+00	
			         2.05333	1.00000e+00	
			         2.05500	1.00000e+00	
			         2.05667	1.00000e+00	
			         2.05833	1.00000e+00	
			         2.06000	0.00000e+00	
			         2.06167	0.00000e+00	
			         2.06333	0.00000e+00	
			         2.06500	0.00000e+00	
			         2.06667	0.00000e+00	
			         2.06833	0.00000e+00	
			         2.07000	0.00000e+00	
			         2.07167	0.00000e+00	
			         2.07333	0.00000e+00	
			         2.07500	0.00000e+00	
			         2.07667	0.00000e+00	
			         2.07833	1.00000e+00	
			         2.08000	1.00000e+00	
			         2.08167	1.00000e+00	
			         2.08333	2.00000e+00	
			         2.08500	2.00000e+00	
			         2.08667	3.00000e+00	
			         2.08833	3.00000e+00	
			         2.09000	3.00000e+00	
			         2.09167	4.00000e+00	
			         2.09333	4.00000e+00	
			         2.09500	4.00000e+00	
			         2.09667	4.00000e+00	
			         2.09833	4.00000e+00	
			         2.10000	4.00000e+00	
			         2.10167	4.00000e+00	
			         2.10333	4.00000e+00	
			         2.10500	4.00000e+00	
			         2.10667	4.00000e+00	
			         2.10833	3.00000e+00	
			         2.11000	3.00000e+00	
			         2.11167	3.00000e+00	
			         2.11333	2.00000e+00	
			         2.11500	1.00000e+00	
			         2.11667	1.00000e+00	
			         2.11833	0.00000e+00	
			         2.12000	-1.00000e+00	
			         2.12167	-1.00000e+00	
			         2.12333	-2.00000e+00	
			         2.12500	-2.00000e+00	
			         2.12667	-2.00000e+00	
			         2.12833	-2.00000e+00	
			         2.13000	-2.00000e+00	
			         2.13167	-2.00000e+00	
			         2.13333	-1.00000e+00	
			         2.13500	-1.00000e+00	
			         2.13667	0.00000e+00	
			         2.13833	1.00000e+00	
			         2.14000	3.00000e+00	
			         2.14167	4.00000e+00	
			         2.14333	5.00000e+00	
			         2.14500	7.00000e+00	
			         2.14667	8.00000e+00	
			         2.14833	9.00000e+00	
			         2.15000	1.10000e+01	
			         2.15167	1.20000e+01	
			         2.15333	1.30000e+01	
			         2.15500	1.40000e+01	
			         2.15667	1.50000e+01	
			         2.15833	1.60000e+01	
			         2.16000	1.70000e+01	
			         2.16167	1.80000e+01	
			         2.16333	1.90000e+01	
			         2.16500	2.00000e+01	
			         2.16667	2.20000e+01	
			         2.16833	2.30000e+01	
			         2.17000	2.50000e+01	
			         2.17167	2.60000e+01	
			         2.17333	2.70000e+01	
			         2.17500	2.80000e+01	
			         2.17667	2.90000e+01	
			         2.17833	2.90000e+01	
			         2.18000	2.90000e+01	
			         2.18167	2.80000e+01	
			         2.18333	2.70000e+01	
			         2.18500	2.50000e+01	
			         2.18667	2.40000e+01	
			         2.18833	2.20000e+01	
			         2.19000	1.90000e+01	
			         2.19167	1.70000e+01	
			         2.19333	1.40000e+01	
			         2.19500	1.20000e+01	
			         2.19667	9.00000e+00	
			         2.19833	7.00000e+00	
			         2.20000	5.00000e+00	
			         2.20167	3.00000e+00	
			         2.20333	1.00000e+00	
			         2.20500	-1.00000e+00	
			         2.20667	-3.00000e+00	
			         2.20833	-5.00000e+00	
			         2.21000	-7.00000e+00	
			         2.21167	-9.00000e+00	
			         2.21333	-1.10000e+01	
			         2.21500	-1.20000e+01	
			         2.21667	-1.40000e+01	
			         2.21833	-1.50000e+01	
			         2.22000	-1.60000e+01	
			         2.22167	-1.70000e+01	
			         2.22333	-1.80000e+01	
			         2.22500	-1.80000e+01	
			         2.22667	-1.90000e+01	
			         2.22833	-1.90000e+01	
			         2.23000	-1.90000e+01	
			         2.23167	-1.90000e+01	
			         2.23333	-1.90000e+01	
			         2.23500	-1.80000e+01	
			         2.23667	-1.80000e+01	
			         2.23833	-1.80000e+01	
			         2.24000	-1.70000e+01	
			         2.24167	-1.70000e+01	
			         2.24333	-1.70000e+01	
			         2.24500	-1.60000e+01	
			         2.24667	-1.60000e+01	
			         2.24833	-1.60000e+01	
			         2.25000	-1.60000e+01	
			         2.25167	-1.60000e+01	
			         2.25333	-1.60000e+01	
			         2.25500	-1.60000e+01	
			         2.25667	-1.60000e+01	
			         2.25833	-1.60000e+01	
			         2.26000	-1.60000e+01	
			         2.26167	-1.60000e+01	
			         2.26333	-1.70000e+01	
			         2.26500	-1.70000e+01	
			         2.26667	-1.80000e+01	
			         2.26833	-2.00000e+01	
			         2.27000	-2.10000e+01	
			         2.27167	-2.30000e+01	
			         2.27333	-2.60000e+01	
			         2.27500	-2.80000e+01	
			         2.27667	-3.00000e+01	
			         2.27833	-3.20000e+01	
			         2.28000	-3.40000e+01	
			         2.28167	-3.40000e+01	
			         2.28333	-3.20000e+01	
			         2.28500	-2.80000e+01	
			         2.28667	-2.20000e+01	
			         2.28833	-1.30000e+01	
			         2.29000	-1.00000e+00	
			         2.29167	1.40000e+01	
			         2.29333	3.30000e+01	
			         2.29500	5.40000e+01	
			         2.29667	7.80000e+01	
			         2.29833	1.04000e+02	
			         2.30000	1.30000e+02	
			         2.30167	1.57000e+02	
			         2.30333	1.83000e+02	
			         2.30500	2.07000e+02	
			         2.30667	2.27000e+02	
			         2.30833	2.44000e+02	
			         2.31000	2.56000e+02	
			         2.31167	2.63000e+02	
			         2.31333	2.65000e+02	
			         2.31500	2.62000e+02	
			         2.31667	2.53000e+02	
			         2.31833	2.40000e+02	
			         2.32000	2.23000e+02	
			         2.32167	2.02000e+02	
			         2.32333	1.79000e+02	
			         2.32500	1.54000e+02	
			         2.32667	1.29000e+02	
			         2.32833	1.03000e+02	
			         2.33000	7.70000e+01	
			         2.33167	5.30000e+01	
			         2.33333	3.00000e+01	
			         2.33500	1.00000e+01	
			         2.33667	-9.00000e+00	
			         2.33833	-2.50000e+01	
			         2.34000	-4.00000e+01	
			         2.34167	-5.20000e+01	
			         2.34333	-6.20000e+01	
			         2.34500	-7.00000e+01	
			         2.34667	-7.60000e+01	
			         2.34833	-8.10000e+01	
			         2.35000	-8.40000e+01	
			         2.35167	-8.60000e+01	
			         2.35333	-8.70000e+01	
			         2.35500	-8.70000e+01	
			         2.35667	-8.70000e+01	
			         2.35833	-8.60000e+01	
			         2.36000	-8.50000e+01	
			         2.36167	-8.40000e+01	
			         2.36333	-8.20000e+01	
			         2.36500	-8.00000e+01	
			         2.36667	-7.90000e+01	
			         2.36833	-7.70000e+01	
			         2.37000	-7.60000e+01	
			         2.37167	-7.50000e+01	
			         2.37333	-7.30000e+01	
			         2.37500	-7.20000e+01	
			         2.37667	-7.10000e+01	
			         2.37833	-6.90000e+01	
			         2.38000	-6.80000e+01	
			         2.38167	-6.70000e+01	
			         2.38333	-6.50000e+01	
			         2.38500	-6.30000e+01	
			         2.38667	-6.20000e+01	
			         2.38833	-6.00000e+01	
			         2.39000	-5.80000e+01	
			         2.39167	-5.70000e+01	
			         2.39333	-5.50000e+01	
			         2.39500	-5.30000e+01	
			         2.39667	-5.20000e+01	
			         2.39833	-5.00000e+01	
			         2.40000	-4.90000e+01	
			         2.40167	-4.80000e+01	
			         2.40333	-4.60000e+01	
			         2.40500	-4.50000e+01	
			         2.40667	-4.40000e+01	
			         2.40833	-4.20000e+01	
			         2.41000	-4.10000e+01	
			         2.41167	-3.90000e+01	
			         2.41333	-3.80000e+01	
			         2.41500	-3.70000e+01	
			         2.41667	-3.60000e+01	
			         2.41833	-3.50000e+01	
			         2.42000	-3.30000e+01	
			         2.42167	-3.20000e+01	
			         2.42333	-3.10000e+01	
			         2.42500	-3.10000e+01	
			         2.42667	-3.00000e+01	
			         2.42833	-2.90000e+01	
			         2.43000	-2.80000e+01	
			         2.43167	-2.80000e+01	
			         2.43333	-2.70000e+01	
			         2.43500	-2.60000e+01	
			         2.43667	-2.60000e+01	
			         2.43833	-2.50000e+01	
			         2.44000	-2.40000e+01	
			         2.44167	-2.40000e+01	
			         2.44333	-2.30000e+01	
			         2.44500	-2.20000e+01	
			         2.44667	-2.20000e+01	
			         2.44833	-2.10000e+01	
			         2.45000	-2.10000e+01	
			         2.45167	-2.00000e+01	
			         2.45333	-2.00000e+01	
			         2.45500	-1.90000e+01	
			         2.45667	-1.90000e+01	
			         2.45833	-1.80000e+01	
			         2.46000	-1.70000e+01	
			         2.46167	-1.70000e+01	
			         2.46333	-1.60000e+01	
			         2.46500	-1.50000e+01	
			         2.46667	-1.40000e+01	
			         2.46833	-1.30000e+01	
			         2.47000	-1.20000e+01	
			         2.47167	-1.10000e+01	
			         2.47333	-1.00000e+01	
			         2.47500	-9.00000e+00	
			         2.47667	-8.00000e+00	
			         2.47833	-8.00000e+00	
			         2.48000	-7.00000e+00	
			         2.48167	-6.00000e+00	
			         2.48333	-6.00000e+00	
			         2.48500	-5.00000e+00	
			         2.48667	-5.00000e+00	
			         2.48833	-5.00000e+00	
			         2.49000	-4.00000e+00	
			         2.49167	-4.00000e+00	
			         2.49333	-4.00000e+00	
			         2.49500	-3.00000e+00	
			         2.49667	-3.00000e+00	
			         2.49833	-2.00000e+00	
			         2.50000	-1.00000e+00	
			         2.50167	-1.00000e+00	
			         2.50333	0.00000e+00	
			         2.50500	1.00000e+00	
			         2.50667	2.00000e+00	
			         2.50833	3.00000e+00	
			         2.51000	4.00000e+00	
			         2.51167	4.00000e+00	
			         2.51333	5.00000e+00	
			         2.51500	6.00000e+00	
			         2.51667	7.00000e+00	
			         2.51833	7.00000e+00	
			         2.52000	8.00000e+00	
			         2.52167	9.00000e+00	
			         2.52333	1.00000e+01	
			         2.52500	1.10000e+01	
			         2.52667	1.20000e+01	
			         2.52833	1.30000e+01	
			         2.53000	1.40000e+01	
			         2.53167	1.50000e+01	
			         2.53333	1.70000e+01	
			         2.53500	1.80000e+01	
			         2.53667	2.00000e+01	
			         2.53833	2.10000e+01	
			         2.54000	2.20000e+01	
			         2.54167	2.40000e+01	
			         2.54333	2.50000e+01	
			         2.54500	2.70000e+01	
			         2.54667	2.80000e+01	
			         2.54833	3.00000e+01	
			         2.55000	3.10000e+01	
			         2.55167	3.20000e+01	
			         2.55333	3.40000e+01	
			         2.55500	3.50000e+01	
			         2.55667	3.70000e+01	
			         2.55833	3.80000e+01	
			         2.56000	4.00000e+01	
			         2.56167	4.10000e+01	
			         2.56333	4.30000e+01	
			         2.56500	4.40000e+01	
			         2.56667	4.60000e+01	
			         2.56833	4.70000e+01	
			         2.57000	4.80000e+01	
			         2.57167	4.90000e+01	
			         2.57333	5.00000e+01	
			         2.57500	5.10000e+01	
			         2.57667	5.20000e+01	
			         2.57833	5.20000e+01	
			         2.58000	5.20000e+01	
			         2.58167	5.20000e+01	
			         2.58333	5.20000e+01	
			         2.58500	5.20000e+01	
			         2.58667	5.20000e+01	
			         2.58833	5.20000e+01	
			         2.59000	5.20000e+01	
			         2.59167	5.20000e+01	
			         2.59333	5.20000e+01	
			         2.59500	5.10000e+01	
			         2.59667	5.00000e+01	
			         2.59833	4.90000e+01	
			         2.60000	4.80000e+01	
			         2.60167	4.70000e+01	
			         2.60333	4.50000e+01	
			         2.60500	4.30000e+01	
			         2.60667	4.10000e+01	
			         2.60833	3.90000e+01	
			         2.61000	3.70000e+01	
			         2.61167	3.40000e+01	
			         2.61333	3.20000e+01	
			         2.61500	2.90000e+01	
			         2.61667	2.60000e+01	
			         2.61833	2.40000e+01	
			         2.62000	2.10000e+01	
			         2.62167	1.80000e+01	
			         2.62333	1.50000e+01	
			         2.62500	1.20000e+01	
			         2.62667	9.00000e+00	
			         2.62833	6.00000e+00	
			         2.63000	3.00000e+00	
			         2.63167	0.00000e+00	
			         2.63333	-3.00000e+00	
			         2.63500	-6.00000e+00	
			         2.63667	-9.00000e+00	
			         2.63833	-1.20000e+01	
			         2.64000	-1.40000e+01	
			         2.64167	-1.70000e+01	
			         2.64333	-1.90000e+01	
			         2.64500	-2.10000e+01	
			         2.64667	-2.40000e+01	
			         2.64833	-2.60000e+01	
			         2.65000	-2.80000e+01	
			         2.65167	-2.90000e+01	
			         2.65333	-3.10000e+01	
			         2.65500	-3.30000e+01	
			         2.65667	-3.40000e+01	
			         2.65833	-3.60000e+01	
			         2.66000	-3.70000e+01	
			         2.66167	-3.80000e+01	
			         2.66333	-3.90000e+01	
			         2.66500	-4.00000e+01	
			         2.66667	-4.00000e+01	
			         2.66833	-4.10000e+01	
			         2.67000	-4.10000e+01	
			         2.67167	-4.10000e+01	
			         2.67333	-4.10000e+01	
			         2.67500	-4.10000e+01	
			         2.67667	-4.20000e+01	
			         2.67833	-4.20000e+01	
			         2.68000	-4.20000e+01	
			         2.68167	-4.10000e+01	
			         2.68333	-4.10000e+01	
			         2.68500	-4.10000e+01	
			         2.68667	-4.10000e+01	
			         2.68833	-4.00000e+01	
			         2.69000	-4.00000e+01	
			         2.69167	-3.90000e+01	
			         2.69333	-3.90000e+01	
			         2.69500	-3.80000e+01	
			         2.69667	-3.70000e+01	
			         2.69833	-3.60000e+01	
			         2.70000	-3.60000e+01	
			         2.70167	-3.50000e+01	
			         2.70333	-3.40000e+01	
			         2.70500	-3.30000e+01	
			         2.70667	-3.20000e+01	
			         2.70833	-3.10000e+01	
			         2.71000	-3.00000e+01	
			         2.71167	-3.00000e+01	
			         2.71333	-2.90000e+01	
			         2.71500	-2.80000e+01	
			         2.71667	-2.70000e+01	
			         2.71833	-2.70000e+01	
			         2.72000	-2.60000e+01	
			         2.72167	-2.50000e+01	
			         2.72333	-2.50000e+01	
			         2.72500	-2.40000e+01	
			         2.72667	-2.40000e+01	
			         2.72833	-2.30000e+01	
			         2.73000	-2.30000e+01	
			         2.73167	-2.20000e+01	
			         2.73333	-2.20000e+01	
			         2.73500	-2.10000e+01	
			         2.73667	-2.10000e+01	
			         2.73833	-2.00000e+01	
			         2.74000	-2.00000e+01	
			         2.74167	-1.90000e+01	
			         2.74333	-1.90000e+01	
			         2.74500	-1.80000e+01	
			         2.74667	-1.70000e+01	
			         2.74833	-1.70000e+01	
			         2.75000	-1.60000e+01	
			         2.75167	-1.50000e+01	
			         2.75333	-1.40000e+01	
			         2.75500	-1.40000e+01	
			         2.75667	-1.30000e+01	
			         2.75833	-1.30000e+01	
			         2.76000	-1.20000e+01	
			         2.76167	-1.20000e+01	
			         2.76333	-1.20000e+01	
			         2.76500	-1.10000e+01	
			         2.76667	-1.10000e+01	
			         2.76833	-1.00000e+01	
			         2.77000	-1.00000e+01	
			         2.77167	-9.00000e+00	
			         2.77333	-9.00000e+00	
			         2.77500	-8.00000e+00	
			         2.77667	-7.00000e+00	
			         2.77833	-7.00000e+00	
			         2.78000	-6.00000e+00	
			         2.78167	-6.00000e+00	
			         2.78333	-5.00000e+00	
			         2.78500	-5.00000e+00	
			         2.78667	-4.00000e+00	
			         2.78833	-4.00000e+00	
			         2.79000	-4.00000e+00	
			         2.79167	-4.00000e+00	
			         2.79333	-4.00000e+00	
			         2.79500	-4.00000e+00	
			         2.79667	-4.00000e+00	
			         2.79833	-4.00000e+00	
			         2.80000	-4.00000e+00	
			         2.80167	-4.00000e+00	
			         2.80333	-4.00000e+00	
			         2.80500	-4.00000e+00	
			         2.80667	-4.00000e+00	
			         2.80833	-5.00000e+00	
			         2.81000	-5.00000e+00	
			         2.81167	-5.00000e+00	
			         2.81333	-6.00000e+00	
			         2.81500	-6.00000e+00	
			         2.81667	-6.00000e+00	
			         2.81833	-6.00000e+00	
			         2.82000	-5.00000e+00	
			         2.82167	-5.00000e+00	
			         2.82333	-5.00000e+00	
			         2.82500	-4.00000e+00	
			         2.82667	-4.00000e+00	
			         2.82833	-3.00000e+00	
			         2.83000	-2.00000e+00	
			         2.83167	-2.00000e+00	
			         2.83333	-1.00000e+00	
			         2.83500	-1.00000e+00	
			         2.83667	-1.00000e+00	
			         2.83833	-1.00000e+00	
			         2.84000	-1.00000e+00	
			         2.84167	-1.00000e+00	
			         2.84333	-1.00000e+00	
			         2.84500	-1.00000e+00	
			         2.84667	-2.00000e+00	
			         2.84833	-2.00000e+00	
			         2.85000	-2.00000e+00	
			         2.85167	-3.00000e+00	
			         2.85333	-3.00000e+00	
			         2.85500	-4.00000e+00	
			         2.85667	-4.00000e+00	
			         2.85833	-5.00000e+00	
			         2.86000	-5.00000e+00	
			         2.86167	-5.00000e+00	
			         2.86333	-6.00000e+00	
			         2.86500	-6.00000e+00	
			         2.86667	-6.00000e+00	
			         2.86833	-6.00000e+00	
			         2.87000	-6.00000e+00	
			         2.87167	-6.00000e+00	
			         2.87333	-6.00000e+00	
			         2.87500	-6.00000e+00	
			         2.87667	-6.00000e+00	
			         2.87833	-5.00000e+00	
			         2.88000	-5.00000e+00	
			         2.88167	-4.00000e+00	
			         2.88333	-4.00000e+00	
			         2.88500	-3.00000e+00	
			         2.88667	-3.00000e+00	
			         2.88833	-2.00000e+00	
			         2.89000	-2.00000e+00	
			         2.89167	-2.00000e+00	
			         2.89333	-2.00000e+00	
			         2.89500	-1.00000e+00	
			         2.89667	-1.00000e+00	
			         2.89833	-2.00000e+00	
			         2.90000	-2.00000e+00	
			         2.90167	-2.00000e+00	
			         2.90333	-2.00000e+00	
			         2.90500	-3.00000e+00	
			         2.90667	-3.00000e+00	
			         2.90833	-3.00000e+00	
			         2.91000	-4.00000e+00	
			         2.91167	-4.00000e+00	
			         2.91333	-5.00000e+00	
			         2.91500	-5.00000e+00	
			         2.91667	-5.00000e+00	
			         2.91833	-5.00000e+00	
			         2.92000	-5.00000e+00	
			         2.92167	-5.00000e+00	
			         2.92333	-5.00000e+00	
			         2.92500	-5.00000e+00	
			         2.92667	-4.00000e+00	
			         2.92833	-4.00000e+00	
			         2.93000	-4.00000e+00	
			         2.93167	-3.00000e+00	
			         2.93333	-3.00000e+00	
			         2.93500	-3.00000e+00	
			         2.93667	-3.00000e+00	
			         2.93833	-3.00000e+00	
			         2.94000	-3.00000e+00	
			         2.94167	-3.00000e+00	
			         2.94333	-3.00000e+00	
			         2.94500	-3.00000e+00	
			         2.94667	-3.00000e+00	
			         2.94833	-3.00000e+00	
			         2.95000	-4.00000e+00	
			         2.95167	-4.00000e+00	
			         2.95333	-4.00000e+00	
			         2.95500	-4.00000e+00	
			         2.95667	-4.00000e+00	
			         2.95833	-4.00000e+00	
			         2.96000	-4.00000e+00	
			         2.96167	-4.00000e+00	
			         2.96333	-4.00000e+00	
			         2.96500	-4.00000e+00	
			         2.96667	-4.00000e+00	
			         2.96833	-4.00000e+00	
			         2.97000	-4.00000e+00	
			         2.97167	-4.00000e+00	
			         2.97333	-4.00000e+00	
			         2.97500	-5.00000e+00	
			         2.97667	-5.00000e+00	
			         2.97833	-5.00000e+00	
			         2.98000	-6.00000e+00	
			         2.98167	-6.00000e+00	
			         2.98333	-6.00000e+00	
			         2.98500	-6.00000e+00	
			         2.98667	-6.00000e+00	
			         2.98833	-5.00000e+00	
			         2.99000	-5.00000e+00	
			         2.99167	-5.00000e+00	
			         2.99333	-4.00000e+00	
			         2.99500	-4.00000e+00	
			         2.99667	-3.00000e+00	
			         2.99833	-3.00000e+00	
			         3.00000	-3.00000e+00	
			         3.00167	-2.00000e+00	
			         3.00333	-2.00000e+00	
			         3.00500	-2.00000e+00	
			         3.00667	-2.00000e+00	
			         3.00833	-2.00000e+00	
			         3.01000	-2.00000e+00	
			         3.01167	-3.00000e+00	
			         3.01333	-3.00000e+00	
			         3.01500	-3.00000e+00	
			         3.01667	-3.00000e+00	
			         3.01833	-2.00000e+00	
			         3.02000	-2.00000e+00	
			         3.02167	-2.00000e+00	
			         3.02333	-2.00000e+00	
			         3.02500	-2.00000e+00	
			         3.02667	-2.00000e+00	
			         3.02833	-2.00000e+00	
			         3.03000	-2.00000e+00	
			         3.03167	-2.00000e+00	
			         3.03333	-2.00000e+00	
			         3.03500	-3.00000e+00	
			         3.03667	-3.00000e+00	
			         3.03833	-3.00000e+00	
			         3.04000	-3.00000e+00	
			         3.04167	-3.00000e+00	
			         3.04333	-3.00000e+00	
			         3.04500	-4.00000e+00	
			         3.04667	-4.00000e+00	
			         3.04833	-4.00000e+00	
			         3.05000	-4.00000e+00	
			         3.05167	-3.00000e+00	
			         3.05333	-3.00000e+00	
			         3.05500	-3.00000e+00	
			         3.05667	-3.00000e+00	
			         3.05833	-3.00000e+00	
			         3.06000	-3.00000e+00	
			         3.06167	-3.00000e+00	
			         3.06333	-4.00000e+00	
			         3.06500	-4.00000e+00	
			         3.06667	-4.00000e+00	
			         3.06833	-4.00000e+00	
			         3.07000	-4.00000e+00	
			         3.07167	-5.00000e+00	
			         3.07333	-5.00000e+00	
			         3.07500	-5.00000e+00	
			         3.07667	-5.00000e+00	
			         3.07833	-5.00000e+00	
			         3.08000	-5.00000e+00	
			         3.08167	-4.00000e+00	
			         3.08333	-4.00000e+00	
			         3.08500	-4.00000e+00	
			         3.08667	-4.00000e+00	
			         3.08833	-4.00000e+00	
			         3.09000	-3.00000e+00	
			         3.09167	-3.00000e+00	
			         3.09333	-3.00000e+00	
			         3.09500	-3.00000e+00	
			         3.09667	-3.00000e+00	
			         3.09833	-3.00000e+00	
			         3.10000	-2.00000e+00	
			         3.10167	-2.00000e+00	
			         3.10333	-2.00000e+00	
			         3.10500	-2.00000e+00	
			         3.10667	-3.00000e+00	
			         3.10833	-3.00000e+00	
			         3.11000	-3.00000e+00	
			         3.11167	-3.00000e+00	
			         3.11333	-4.00000e+00	
			         3.11500	-4.00000e+00	
			         3.11667	-4.00000e+00	
			         3.11833	-5.00000e+00	
			         3.12000	-5.00000e+00	
			         3.12167	-5.00000e+00	
			         3.12333	-5.00000e+00	
			         3.12500	-5.00000e+00	
			         3.12667	-5.00000e+00	
			         3.12833	-5.00000e+00	
			         3.13000	-4.00000e+00	
			         3.13167	-4.00000e+00	
			         3.13333	-4.00000e+00	
			         3.13500	-3.00000e+00	
			         3.13667	-3.00000e+00	
			         3.13833	-3.00000e+00	
			         3.14000	-3.00000e+00	
			         3.14167	-3.00000e+00	
			         3.14333	-3.00000e+00	
			         3.14500	-3.00000e+00	
			         3.14667	-2.00000e+00	
			         3.14833	-2.00000e+00	
			         3.15000	-2.00000e+00	
			         3.15167	-2.00000e+00	
			         3.15333	-1.00000e+00	
			         3.15500	-1.00000e+00	
			         3.15667	-1.00000e+00	
			         3.15833	0.00000e+00	
			         3.16000	0.00000e+00	
			         3.16167	0.00000e+00	
			         3.16333	1.00000e+00	
			         3.16500	1.00000e+00	
			         3.16667	1.00000e+00	
			         3.16833	1.00000e+00	
			         3.17000	1.00000e+00	
			         3.17167	1.00000e+00	
			         3.17333	1.00000e+00	
			         3.17500	1.00000e+00	
			         3.17667	1.00000e+00	
			         3.17833	1.00000e+00	
			         3.18000	1.00000e+00	
			         3.18167	0.00000e+00	
			         3.18333	0.00000e+00	
			         3.18500	0.00000e+00	
			         3.18667	0.00000e+00	
			         3.18833	0.00000e+00	
			         3.19000	0.00000e+00	
			         3.19167	0.00000e+00	
			         3.19333	0.00000e+00	
			         3.19500	0.00000e+00	
			         3.19667	0.00000e+00	
			         3.19833	1.00000e+00	
			         3.20000	1.00000e+00	
			         3.20167	2.00000e+00	
			         3.20333	3.00000e+00	
			         3.20500	3.00000e+00	
			         3.20667	4.00000e+00	
			         3.20833	4.00000e+00	
			         3.21000	4.00000e+00	
			         3.21167	4.00000e+00	
			         3.21333	4.00000e+00	
			         3.21500	5.00000e+00	
			         3.21667	5.00000e+00	
			         3.21833	5.00000e+00	
			         3.22000	5.00000e+00	
			         3.22167	6.00000e+00	
			         3.22333	6.00000e+00	
			         3.22500	6.00000e+00	
			         3.22667	7.00000e+00	
			         3.22833	7.00000e+00	
			         3.23000	8.00000e+00	
			         3.23167	8.00000e+00	
			         3.23333	9.00000e+00	
			         3.23500	9.00000e+00	
			         3.23667	1.00000e+01	
			         3.23833	1.10000e+01	
			         3.24000	1.20000e+01	
			         3.24167	1.30000e+01	
			         3.24333	1.40000e+01	
			         3.24500	1.50000e+01	
			         3.24667	1.70000e+01	
			         3.24833	1.90000e+01	
			         3.25000	2.00000e+01	
			         3.25167	2.20000e+01	
			         3.25333	2.40000e+01	
			         3.25500	2.50000e+01	
			         3.25667	2.70000e+01	
			         3.25833	2.80000e+01	
			         3.26000	2.90000e+01	
			         3.26167	3.00000e+01	
			         3.26333	3.10000e+01	
			         3.26500	3.10000e+01	
			         3.26667	3.00000e+01	
			         3.26833	2.90000e+01	
			         3.27000	2.80000e+01	
			         3.27167	2.70000e+01	
			         3.27333	2.40000e+01	
			         3.27500	2.20000e+01	
			         3.27667	1.90000e+01	
			         3.27833	1.70000e+01	
			         3.28000	1.40000e+01	
			         3.28167	1.10000e+01	
			         3.28333	8.00000e+00	
			         3.28500	6.00000e+00	
			         3.28667	3.00000e+00	
			         3.28833	1.00000e+00	
			         3.29000	-1.00000e+00	
			         3.29167	-3.00000e+00	
			         3.29333	-5.00000e+00	
			         3.29500	-6.00000e+00	
			         3.29667	-7.00000e+00	
			         3.29833	-8.00000e+00	
			         3.30000	-1.00000e+01	
			         3.30167	-1.00000e+01	
			         3.30333	-1.10000e+01	
			         3.30500	-1.20000e+01	
			         3.30667	-1.30000e+01	
			         3.30833	-1.30000e+01	
			         3.31000	-1.40000e+01	
			         3.31167	-1.40000e+01	
			         3.31333	-1.40000e+01	
			         3.31500	-1.50000e+01	
			         3.31667	-1.50000e+01	
			         3.31833	-1.50000e+01	
			         3.32000	-1.60000e+01	
			         3.32167	-1.60000e+01	
			         3.32333	-1.70000e+01	
			         3.32500	-1.70000e+01	
			         3.32667	-1.70000e+01	
			         3.32833	-1.80000e+01	
			         3.33000	-1.80000e+01	
			         3.33167	-1.80000e+01	
			         3.33333	-1.80000e+01	
			         3.33500	-1.80000e+01	
			         3.33667	-1.80000e+01	
			         3.33833	-1.70000e+01	
			         3.34000	-1.70000e+01	
			         3.34167	-1.60000e+01	
			         3.34333	-1.60000e+01	
			         3.34500	-1.50000e+01	
			         3.34667	-1.50000e+01	
			         3.34833	-1.60000e+01	
			         3.35000	-1.60000e+01	
			         3.35167	-1.70000e+01	
			         3.35333	-1.90000e+01	
			         3.35500	-2.00000e+01	
			         3.35667	-2.20000e+01	
			         3.35833	-2.40000e+01	
			         3.36000	-2.60000e+01	
			         3.36167	-2.80000e+01	
			         3.36333	-2.90000e+01	
			         3.36500	-3.00000e+01	
			         3.36667	-2.80000e+01	
			         3.36833	-2.50000e+01	
			         3.37000	-2.00000e+01	
			         3.37167	-1.20000e+01	
			         3.37333	-1.00000e+00	
			         3.37500	1.30000e+01	
			         3.37667	2.90000e+01	
			         3.37833	4.90000e+01	
			         3.38000	7.20000e+01	
			         3.38167	9.60000e+01	
			         3.38333	1.22000e+02	
			         3.38500	1.49000e+02	
			         3.38667	1.75000e+02	
			         3.38833	2.00000e+02	
			         3.39000	2.23000e+02	
			         3.39167	2.42000e+02	
			         3.39333	2.57000e+02	
			         3.39500	2.67000e+02	
			         3.39667	2.72000e+02	
			         3.39833	2.71000e+02	
			         3.40000	2.66000e+02	
			         3.40167	2.55000e+02	
			         3.40333	2.40000e+02	
			         3.40500	2.20000e+02	
			         3.40667	1.98000e+02	
			         3.40833	1.73000e+02	
			         3.41000	1.47000e+02	
			         3.41167	1.21000e+02	
			         3.41333	9.40000e+01	
			         3.41500	6.90000e+01	
			         3.41667	4.50000e+01	
			         3.41833	2.30000e+01	
			         3.42000	3.00000e+00	
			         3.42167	-1.50000e+01	
			         3.42333	-3.10000e+01	
			         3.42500	-4.40000e+01	
			         3.42667	-5.50000e+01	
			         3.42833	-6.40000e+01	
			         3.43000	-7.10000e+01	
			         3.43167	-7.60000e+01	
			         3.43333	-8.00000e+01	
			         3.43500	-8.30000e+01	
			         3.43667	-8.50000e+01	
			         3.43833	-8.50000e+01	
			         3.44000	-8.60000e+01	
			         3.44167	-8.50000e+01	
			         3.44333	-8.50000e+01	
			         3.44500	-8.40000e+01	
			         3.44667	-8.30000e+01	
			         3.44833	-8.10000e+01	
			         3.45000	-8.00000e+01	
			         3.45167	-7.80000e+01	
			         3.45333	-7.70000e+01	
			         3.45500	-7.50000e+01	
