Velocity (TVI), in cm/s

Time (s) :	Trace 1 : 		Ecg : 		
0.01731   	2.26937e-01		         0.00000	-1.30000e+01	
0.02343   	3.67266e-01		         0.00167	-1.40000e+01	
0.02983   	8.09103e-01		         0.00333	-1.50000e+01	
0.03594   	1.56074e+00		         0.00500	-1.60000e+01	
0.04207   	1.97546e+00		         0.00667	-1.60000e+01	
0.04819   	2.28583e+00		         0.00833	-1.50000e+01	
0.05458   	2.09737e+00		         0.01000	-1.30000e+01	
0.06070   	1.17823e+00		         0.01167	-1.00000e+01	
0.06682   	1.07703e-01		         0.01333	-6.00000e+00	
0.07294   	-1.10191e+00		         0.01500	0.00000e+00	
0.07934   	-2.31517e+00		         0.01667	8.00000e+00	
0.08546   	-2.79030e+00		         0.01833	1.70000e+01	
0.09158   	-2.79283e+00		         0.02000	2.70000e+01	
0.09770   	-2.58643e+00		         0.02167	3.90000e+01	
0.10409   	-2.42644e+00		         0.02333	5.10000e+01	
0.11022   	-1.47620e+00		         0.02500	6.50000e+01	
0.11634   	-4.29207e-01		         0.02667	7.90000e+01	
0.12246   	6.13408e-01		         0.02833	9.30000e+01	
0.12885   	1.81970e+00		         0.03000	1.07000e+02	
0.13497   	3.14936e+00		         0.03167	1.20000e+02	
0.14110   	3.86464e+00		         0.03333	1.31000e+02	
0.14722   	4.35291e+00		         0.03500	1.41000e+02	
0.15361   	4.74632e+00		         0.03667	1.49000e+02	
0.15973   	4.92698e+00		         0.03833	1.55000e+02	
0.16585   	5.13236e+00		         0.04000	1.58000e+02	
0.17197   	5.22634e+00		         0.04167	1.60000e+02	
0.17837   	5.22977e+00		         0.04333	1.59000e+02	
0.18449   	5.20685e+00		         0.04500	1.57000e+02	
0.19061   	5.11554e+00		         0.04667	1.52000e+02	
0.19673   	4.91838e+00		         0.04833	1.45000e+02	
0.20312   	4.79365e+00		         0.05000	1.37000e+02	
0.20925   	4.60470e+00		         0.05167	1.29000e+02	
0.21537   	4.47954e+00		         0.05333	1.19000e+02	
0.22149   	4.43238e+00		         0.05500	1.09000e+02	
0.22789   	4.43124e+00		         0.05667	9.90000e+01	
0.23400   	4.42185e+00		         0.05833	8.90000e+01	
0.24013   	4.43819e+00		         0.06000	7.90000e+01	
0.24625   	4.38169e+00		         0.06167	7.00000e+01	
0.25264   	4.27311e+00		         0.06333	6.00000e+01	
0.25876   	4.13036e+00		         0.06500	5.10000e+01	
0.26489   	4.05232e+00		         0.06667	4.20000e+01	
0.27100   	3.80327e+00		         0.06833	3.30000e+01	
0.27740   	3.66702e+00		         0.07000	2.50000e+01	
0.28352   	3.54401e+00		         0.07167	1.70000e+01	
0.28964   	3.42905e+00		         0.07333	9.00000e+00	
0.29576   	3.23749e+00		         0.07500	2.00000e+00	
0.30215   	3.29152e+00		         0.07667	-5.00000e+00	
0.30827   	3.19719e+00		         0.07833	-1.10000e+01	
0.31440   	3.10104e+00		         0.08000	-1.70000e+01	
0.32052   	2.98737e+00		         0.08167	-2.30000e+01	
0.32691   	2.89844e+00		         0.08333	-2.80000e+01	
0.33303   	2.71682e+00		         0.08500	-3.30000e+01	
0.33915   	2.61281e+00		         0.08667	-3.70000e+01	
0.34528   	2.47056e+00		         0.08833	-4.10000e+01	
0.35169   	2.29310e+00		         0.09000	-4.40000e+01	
0.35779   	2.11223e+00		         0.09167	-4.60000e+01	
0.36391   	1.97777e+00		         0.09333	-4.80000e+01	
0.37004   	1.80347e+00		         0.09500	-4.90000e+01	
0.37643   	1.60524e+00		         0.09667	-5.10000e+01	
0.38255   	1.47085e+00		         0.09833	-5.10000e+01	
0.38867   	1.28830e+00		         0.10000	-5.20000e+01	
0.39479   	1.04833e+00		         0.10167	-5.20000e+01	
0.40141   	7.39951e-01		         0.10333	-5.20000e+01	
0.40731   	3.80224e-01		         0.10500	-5.10000e+01	
0.41343   	-6.88264e-02		         0.10667	-5.10000e+01	
0.41955   	-5.51711e-01		         0.10833	-5.00000e+01	
0.42594   	-1.05820e+00		         0.11000	-5.00000e+01	
0.43206   	-1.47093e+00		         0.11167	-4.90000e+01	
0.43818   	-1.56403e+00		         0.11333	-4.80000e+01	
0.44430   	-1.02190e+00		         0.11500	-4.70000e+01	
0.45070   	-3.39180e-01		         0.11667	-4.60000e+01	
0.45682   	2.85407e-01		         0.11833	-4.50000e+01	
0.46294   	1.04891e+00		         0.12000	-4.40000e+01	
0.46906   	1.71684e+00		         0.12167	-4.40000e+01	
0.47545   	1.81182e+00		         0.12333	-4.30000e+01	
0.48158   	1.89135e+00		         0.12500	-4.20000e+01	
0.48770   	2.17657e+00		         0.12667	-4.10000e+01	
0.49382   	2.34899e+00		         0.12833	-4.10000e+01	
0.50021   	2.43755e+00		         0.13000	-4.00000e+01	
0.50634   	2.52677e+00		         0.13167	-3.90000e+01	
0.51245   	2.46810e+00		         0.13333	-3.90000e+01	
0.51858   	2.20721e+00		         0.13500	-3.80000e+01	
0.52497   	1.90508e+00		         0.13667	-3.70000e+01	
0.53109   	1.49123e+00		         0.13833	-3.60000e+01	
0.53721   	1.02704e+00		         0.14000	-3.50000e+01	
0.54333   	6.03611e-01		         0.14167	-3.40000e+01	
0.54973   	1.70703e-01		         0.14333	-3.30000e+01	
0.55585   	-3.68243e-01		         0.14500	-3.20000e+01	
0.56197   	-7.90395e-01		         0.14667	-3.10000e+01	
0.56809   	-1.15926e+00		         0.14833	-3.00000e+01	
0.57448   	-1.56164e+00		         0.15000	-2.90000e+01	
0.58061   	-1.85341e+00		         0.15167	-2.70000e+01	
0.58673   	-1.99146e+00		         0.15333	-2.60000e+01	
0.59285   	-2.21820e+00		         0.15500	-2.60000e+01	
0.59924   	-2.35344e+00		         0.15667	-2.50000e+01	
0.60536   	-2.39814e+00		         0.15833	-2.40000e+01	
0.61148   	-2.36273e+00		         0.16000	-2.30000e+01	
0.61761   	-2.37306e+00		         0.16167	-2.20000e+01	
0.62400   	-2.26387e+00		         0.16333	-2.10000e+01	
0.63012   	-2.17027e+00		         0.16500	-2.00000e+01	
0.63624   	-2.02104e+00		         0.16667	-1.90000e+01	
0.64236   	-1.88352e+00		         0.16833	-1.80000e+01	
0.64875   	-1.68106e+00		         0.17000	-1.70000e+01	
0.65488   	-1.48273e+00		         0.17167	-1.60000e+01	
0.66100   	-1.31034e+00		         0.17333	-1.50000e+01	
0.66724   	-1.14470e+00		         0.17500	-1.40000e+01	
0.67351   	-9.90803e-01		         0.17667	-1.30000e+01	
0.67963   	-8.70865e-01		         0.17833	-1.20000e+01	
0.68575   	-7.67343e-01		         0.18000	-1.20000e+01	
0.69188   	-6.62383e-01		         0.18167	-1.10000e+01	
0.69827   	-6.03574e-01		         0.18333	-1.10000e+01	
0.70439   	-5.57702e-01		         0.18500	-1.00000e+01	
0.71051   	-5.21452e-01		         0.18667	-1.00000e+01	
0.71663   	-4.85585e-01		         0.18833	-1.00000e+01	
0.72303   	-4.75498e-01		         0.19000	-1.00000e+01	
0.72915   	-4.24244e-01		         0.19167	-1.00000e+01	
0.73527   	-3.65726e-01		         0.19333	-9.00000e+00	
0.74139   	-3.05239e-01		         0.19500	-9.00000e+00	
0.74779   	-2.67398e-01		         0.19667	-8.00000e+00	
0.75390   	-2.09536e-01		         0.19833	-8.00000e+00	
0.76003   	-1.78407e-01		         0.20000	-7.00000e+00	
0.76615   	-1.54103e-01		         0.20167	-6.00000e+00	
0.77254   	-1.07470e-01		         0.20333	-5.00000e+00	
0.77866   	-5.10206e-02		         0.20500	-4.00000e+00	
0.78478   	1.32159e-02		         0.20667	-3.00000e+00	
0.79091   	7.29244e-02		         0.20833	-2.00000e+00	
0.79730   	1.22654e-01		         0.21000	0.00000e+00	
0.80342   	1.47433e-01		         0.21167	1.00000e+00	
0.80954   	1.55207e-01		         0.21333	2.00000e+00	
0.81566   	1.58309e-01		         0.21500	3.00000e+00	
0.82205   	1.52473e-01		         0.21667	4.00000e+00	
0.82818   	1.44601e-01		         0.21833	5.00000e+00	
0.83430   	1.34977e-01		         0.22000	6.00000e+00	
0.84042   	9.69907e-02		         0.22167	6.00000e+00	
0.84681   	4.37692e-02		         0.22333	6.00000e+00	
0.85293   	-5.14932e-04		         0.22500	6.00000e+00	
0.85906   	-4.79123e-02		         0.22667	5.00000e+00	
0.86518   	-1.00695e-01		         0.22833	5.00000e+00	
0.87157   	-1.35734e-01		         0.23000	4.00000e+00	
0.87769   	-1.68724e-01		         0.23167	3.00000e+00	
0.88381   	-1.87221e-01		         0.23333	2.00000e+00	
0.88994   	-1.94336e-01		         0.23500	1.00000e+00	
0.89633   	-2.17098e-01		         0.23667	0.00000e+00	
0.90245   	-2.15768e-01		         0.23833	0.00000e+00	
0.90857   	-2.15411e-01		         0.24000	-1.00000e+00	
0.91469   	-2.29900e-01		         0.24167	0.00000e+00	
0.92109   	-2.42316e-01		         0.24333	0.00000e+00	
0.92721   	-2.07948e-01		         0.24500	1.00000e+00	
0.93333   	-1.86123e-01		         0.24667	2.00000e+00	
0.93945   	-1.88492e-01		         0.24833	3.00000e+00	
0.94584   	-1.64429e-01		         0.25000	4.00000e+00	
0.95196   	-1.48504e-01		         0.25167	5.00000e+00	
0.95809   	-1.58182e-01		         0.25333	7.00000e+00	
0.96421   	-1.57189e-01		         0.25500	8.00000e+00	
0.97060   	-1.43780e-01		         0.25667	9.00000e+00	
0.97672   	-1.36110e-01		         0.25833	1.10000e+01	
0.98284   	-1.42423e-01		         0.26000	1.20000e+01	
0.98897   	-1.22512e-01		         0.26167	1.20000e+01	
0.99536   	-1.19825e-01		         0.26333	1.30000e+01	
1.00148   	-1.10827e-01		         0.26500	1.40000e+01	
1.00760   	-9.53050e-02		         0.26667	1.40000e+01	
1.01372   	-7.85433e-02		         0.26833	1.40000e+01	
1.02012   	-6.65016e-02		         0.27000	1.50000e+01	
1.02624   	-5.95362e-02		         0.27167	1.50000e+01	
1.03274   	-9.47152e-02		         0.27333	1.50000e+01	
1.03848   	-2.00435e-01		         0.27500	1.60000e+01	
1.04488   	-3.33443e-01		         0.27667	1.60000e+01	
1.05099   	-6.01185e-01		         0.27833	1.70000e+01	
1.05711   	-8.96360e-01		         0.28000	1.70000e+01	
1.06324   	-1.38950e+00		         0.28167	1.80000e+01	
1.06963   	-2.11676e+00		         0.28333	1.90000e+01	
1.07575   	-3.10685e+00		         0.28500	1.90000e+01	
1.08223   	-4.26854e+00		         0.28667	2.00000e+01	
1.08799   	-5.55747e+00		         0.28833	2.10000e+01	
1.09439   	-6.75306e+00		         0.29000	2.20000e+01	
1.10051   	-7.82828e+00		         0.29167	2.40000e+01	
1.10663   	-8.75878e+00		         0.29333	2.50000e+01	
1.11275   	-9.43683e+00		         0.29500	2.60000e+01	
1.11914   	-9.95346e+00		         0.29667	2.70000e+01	
1.12527   	-1.02511e+01		         0.29833	2.80000e+01	
1.13139   	-1.02643e+01		         0.30000	3.00000e+01	
1.13751   	-9.92774e+00		         0.30167	3.10000e+01	
1.14390   	-9.24247e+00		         0.30333	3.20000e+01	
1.15002   	-8.28255e+00		         0.30500	3.30000e+01	
1.15615   	-7.05589e+00		         0.30667	3.40000e+01	
1.16227   	-5.84581e+00		         0.30833	3.50000e+01	
1.16866   	-4.42130e+00		         0.31000	3.60000e+01	
1.17478   	-3.25247e+00		         0.31167	3.70000e+01	
1.18090   	-2.14808e+00		         0.31333	3.70000e+01	
1.18702   	-1.06334e+00		         0.31500	3.80000e+01	
1.19342   	-5.94873e-02		         0.31667	3.80000e+01	
1.19953   	5.26120e-01		         0.31833	3.80000e+01	
1.20566   	1.28479e+00		         0.32000	3.90000e+01	
1.21178   	1.94534e+00		         0.32167	3.90000e+01	
1.21817   	2.18715e+00		         0.32333	3.90000e+01	
1.22429   	2.34800e+00		         0.32500	3.90000e+01	
1.23042   	2.00606e+00		         0.32667	3.90000e+01	
1.23654   	1.08415e+00		         0.32833	3.90000e+01	
1.24293   	-4.03675e-03		         0.33000	3.90000e+01	
1.24905   	-9.80702e-01		         0.33167	4.00000e+01	
1.25517   	-2.15959e+00		         0.33333	4.10000e+01	
1.26130   	-2.59282e+00		         0.33500	4.20000e+01	
1.26769   	-2.64538e+00		         0.33667	4.30000e+01	
1.27381   	-2.38233e+00		         0.33833	4.40000e+01	
1.27993   	-1.95247e+00		         0.34000	4.50000e+01	
1.28606   	-7.03936e-01		         0.34167	4.60000e+01	
1.29245   	3.24355e-01		         0.34333	4.70000e+01	
1.29877   	1.55384e+00		         0.34500	4.80000e+01	
1.30469   	2.79146e+00		         0.34667	4.80000e+01	
1.31081   	3.78189e+00		         0.34833	4.80000e+01	
1.31720   	4.24612e+00		         0.35000	4.80000e+01	
1.32332   	4.80896e+00		         0.35167	4.70000e+01	
1.32944   	5.11717e+00		         0.35333	4.50000e+01	
1.33557   	4.96156e+00		         0.35500	4.30000e+01	
1.34196   	5.06071e+00		         0.35667	4.00000e+01	
1.34808   	5.09220e+00		         0.35833	3.70000e+01	
1.35420   	5.03271e+00		         0.36000	3.40000e+01	
1.36032   	4.88769e+00		         0.36167	3.00000e+01	
1.36672   	4.94879e+00		         0.36333	2.60000e+01	
1.37284   	4.75843e+00		         0.36500	2.30000e+01	
1.37895   	4.57980e+00		         0.36667	2.00000e+01	
1.38509   	4.51704e+00		         0.36833	1.70000e+01	
1.39147   	4.50047e+00		         0.37000	1.40000e+01	
1.39771   	4.49461e+00		         0.37167	1.10000e+01	
1.40372   	4.56558e+00		         0.37333	9.00000e+00	
1.40984   	4.53173e+00		         0.37500	7.00000e+00	
1.41623   	4.50504e+00		         0.37667	5.00000e+00	
1.42236   	4.37560e+00		         0.37833	2.00000e+00	
1.42847   	4.26512e+00		         0.38000	0.00000e+00	
1.43460   	4.13551e+00		         0.38167	-1.00000e+00	
1.44099   	4.11050e+00		         0.38333	-3.00000e+00	
1.44747   	3.87755e+00		         0.38500	-6.00000e+00	
1.45323   	3.80870e+00		         0.38667	-8.00000e+00	
1.45935   	3.64595e+00		         0.38833	-1.00000e+01	
1.46575   	3.52433e+00		         0.39000	-1.20000e+01	
1.47187   	3.34198e+00		         0.39167	-1.40000e+01	
1.47799   	3.21004e+00		         0.39333	-1.60000e+01	
1.48411   	3.02997e+00		         0.39500	-1.70000e+01	
1.49050   	2.99765e+00		         0.39667	-1.90000e+01	
1.49662   	2.90656e+00		         0.39833	-2.00000e+01	
1.50275   	2.80842e+00		         0.40000	-2.20000e+01	
1.50887   	2.69485e+00		         0.40167	-2.30000e+01	
1.51526   	2.59165e+00		         0.40333	-2.40000e+01	
1.52138   	2.35450e+00		         0.40500	-2.50000e+01	
1.52750   	2.14320e+00		         0.40667	-2.60000e+01	
1.53362   	2.02886e+00		         0.40833	-2.70000e+01	
1.54002   	1.87640e+00		         0.41000	-2.80000e+01	
1.54614   	1.71279e+00		         0.41167	-2.90000e+01	
1.55226   	1.59077e+00		         0.41333	-3.00000e+01	
1.55838   	1.40484e+00		         0.41500	-3.10000e+01	
1.56477   	1.15787e+00		         0.41667	-3.20000e+01	
1.57089   	9.09142e-01		         0.41833	-3.20000e+01	
1.57702   	6.14947e-01		         0.42000	-3.30000e+01	
1.58314   	2.19174e-01		         0.42167	-3.40000e+01	
1.58953   	-2.30013e-01		         0.42333	-3.40000e+01	
1.59566   	-7.08767e-01		         0.42500	-3.40000e+01	
1.60178   	-1.13432e+00		         0.42667	-3.50000e+01	
1.60790   	-1.38867e+00		         0.42833	-3.50000e+01	
1.61429   	-1.14146e+00		         0.43000	-3.40000e+01	
1.62041   	-6.19736e-01		         0.43167	-3.40000e+01	
1.62653   	-3.58802e-02		         0.43333	-3.40000e+01	
1.63265   	5.51015e-01		         0.43500	-3.30000e+01	
1.63905   	1.11602e+00		         0.43667	-3.30000e+01	
1.64517   	1.48976e+00		         0.43833	-3.20000e+01	
1.65129   	1.84560e+00		         0.44000	-3.20000e+01	
1.65741   	2.09640e+00		         0.44167	-3.10000e+01	
1.66380   	2.42753e+00		         0.44333	-3.10000e+01	
1.66993   	2.71540e+00		         0.44500	-3.00000e+01	
1.67605   	2.82965e+00		         0.44667	-3.00000e+01	
1.68217   	2.70040e+00		         0.44833	-2.90000e+01	
1.68856   	2.57362e+00		         0.45000	-2.90000e+01	
1.69468   	2.35974e+00		         0.45167	-2.80000e+01	
1.70081   	2.00172e+00		         0.45333	-2.70000e+01	
1.70693   	1.53909e+00		         0.45500	-2.70000e+01	
1.71332   	1.11793e+00		         0.45667	-2.60000e+01	
1.71944   	7.57465e-01		         0.45833	-2.40000e+01	
1.72556   	2.82197e-01		         0.46000	-2.30000e+01	
1.73168   	-1.12667e-01		         0.46167	-2.20000e+01	
1.73808   	-5.34884e-01		         0.46333	-2.10000e+01	
1.74420   	-9.49664e-01		         0.46500	-2.00000e+01	
1.75032   	-1.35544e+00		         0.46667	-1.90000e+01	
1.75644   	-1.67611e+00		         0.46833	-1.70000e+01	
1.76290   	-2.00752e+00		         0.47000	-1.60000e+01	
1.76895   	-2.24726e+00		         0.47167	-1.50000e+01	
1.77508   	-2.42218e+00		         0.47333	-1.40000e+01	
1.78120   	-2.51433e+00		         0.47500	-1.30000e+01	
1.78759   	-2.56659e+00		         0.47667	-1.30000e+01	
1.79371   	-2.51748e+00		         0.47833	-1.20000e+01	
1.79984   	-2.43693e+00		         0.48000	-1.20000e+01	
1.80596   	-2.34755e+00		         0.48167	-1.20000e+01	
1.81267   	-2.22585e+00		         0.48333	-1.10000e+01	
1.81847   	-2.05545e+00		         0.48500	-1.10000e+01	
1.82459   	-1.84764e+00		         0.48667	-1.10000e+01	
1.83071   	-1.66310e+00		         0.48833	-1.10000e+01	
1.83711   	-1.41183e+00		         0.49000	-1.00000e+01	
1.84323   	-1.21218e+00		         0.49167	-1.00000e+01	
1.84935   	-1.01489e+00		         0.49333	-1.10000e+01	
1.85547   	-8.90152e-01		         0.49500	-1.10000e+01	
1.86186   	-7.45369e-01		         0.49667	-1.10000e+01	
1.86798   	-6.59909e-01		         0.49833	-1.20000e+01	
1.87410   	-5.85407e-01		         0.50000	-1.30000e+01	
1.88023   	-5.46039e-01		         0.50167	-1.30000e+01	
1.88662   	-5.00188e-01		         0.50333	-1.40000e+01	
1.89274   	-4.67977e-01		         0.50500	-1.50000e+01	
1.89886   	-4.10602e-01		         0.50667	-1.60000e+01	
1.90499   	-3.56587e-01		         0.50833	-1.60000e+01	
1.91138   	-2.91799e-01		         0.51000	-1.70000e+01	
1.91750   	-2.34408e-01		         0.51167	-1.70000e+01	
1.92362   	-1.68523e-01		         0.51333	-1.70000e+01	
1.92974   	-1.28779e-01		         0.51500	-1.60000e+01	
1.93614   	-7.44538e-02		         0.51667	-1.60000e+01	
1.94226   	-1.67011e-02		         0.51833	-1.50000e+01	
1.94838   	4.58330e-02		         0.52000	-1.40000e+01	
1.95450   	9.08155e-02		         0.52167	-1.30000e+01	
1.96089   	1.32767e-01		         0.52333	-1.20000e+01	
1.96701   	1.55437e-01		         0.52500	-1.10000e+01	
1.97314   	1.62843e-01		         0.52667	-1.00000e+01	
1.97926   	1.63220e-01		         0.52833	-9.00000e+00	
1.98565   	1.66665e-01		         0.53000	-8.00000e+00	
1.99177   	1.63635e-01		         0.53167	-7.00000e+00	
1.99789   	1.63160e-01		         0.53333	-7.00000e+00	
2.00401   	1.64880e-01		         0.53500	-6.00000e+00	
2.01041   	1.60065e-01		         0.53667	-5.00000e+00	
2.01653   	1.42238e-01		         0.53833	-5.00000e+00	
2.02265   	8.99515e-02		         0.54000	-5.00000e+00	
2.02877   	2.43716e-02		         0.54167	-4.00000e+00	
2.03516   	-4.13172e-02		         0.54333	-4.00000e+00	
2.04128   	-1.02448e-01		         0.54500	-3.00000e+00	
2.04741   	-1.50189e-01		         0.54667	-3.00000e+00	
2.05353   	-1.75871e-01		         0.54833	-3.00000e+00	
2.05992   	-1.88861e-01		         0.55000	-2.00000e+00	
2.06604   	-2.17922e-01		         0.55167	-2.00000e+00	
2.07216   	-2.62023e-01		         0.55333	-2.00000e+00	
2.07847   	-3.11593e-01		         0.55500	-2.00000e+00	
2.08468   	-3.46477e-01		         0.55667	-1.00000e+00	
2.09080   	-3.63913e-01		         0.55833	-1.00000e+00	
2.09692   	-3.57417e-01		         0.56000	-1.00000e+00	
2.10304   	-3.43742e-01		         0.56167	0.00000e+00	
2.10943   	-3.18102e-01		         0.56333	0.00000e+00	
2.11556   	-2.99300e-01		         0.56500	0.00000e+00	
2.12168   	-2.88030e-01		         0.56667	0.00000e+00	
2.12780   	-2.78352e-01		         0.56833	1.00000e+00	
2.13419   	-2.61259e-01		         0.57000	1.00000e+00	
2.14031   	-2.37352e-01		         0.57167	1.00000e+00	
2.14643   	-2.08977e-01		         0.57333	1.00000e+00	
2.15256   	-1.89820e-01		         0.57500	1.00000e+00	
2.15895   	-1.80695e-01		         0.57667	1.00000e+00	
2.16507   	-1.67362e-01		         0.57833	1.00000e+00	
2.17119   	-1.73149e-01		         0.58000	1.00000e+00	
2.17731   	-1.79277e-01		         0.58167	1.00000e+00	
2.18371   	-1.58218e-01		         0.58333	0.00000e+00	
2.18983   	-1.58190e-01		         0.58500	0.00000e+00	
2.19594   	-1.90563e-01		         0.58667	-1.00000e+00	
2.20207   	-2.62572e-01		         0.58833	-1.00000e+00	
2.20846   	-4.18992e-01		         0.59000	-2.00000e+00	
2.21459   	-6.59799e-01		         0.59167	-2.00000e+00	
2.22071   	-1.08179e+00		         0.59333	-2.00000e+00	
2.22683   	-1.71415e+00		         0.59500	-2.00000e+00	
2.23322   	-2.64464e+00		         0.59667	-2.00000e+00	
2.23934   	-3.68259e+00		         0.59833	-2.00000e+00	
2.24546   	-4.92083e+00		         0.60000	-2.00000e+00	
2.25159   	-6.14581e+00		         0.60167	-2.00000e+00	
2.25798   	-7.30374e+00		         0.60333	-1.00000e+00	
2.26410   	-8.21894e+00		         0.60500	-1.00000e+00	
2.27022   	-9.05794e+00		         0.60667	0.00000e+00	
2.27634   	-9.66395e+00		         0.60833	0.00000e+00	
2.28274   	-1.00007e+01		         0.61000	1.00000e+00	
2.28886   	-1.01195e+01		         0.61167	1.00000e+00	
2.29498   	-1.00416e+01		         0.61333	2.00000e+00	
2.30110   	-9.54759e+00		         0.61500	3.00000e+00	
2.30749   	-8.71437e+00		         0.61667	3.00000e+00	
2.31361   	-7.71983e+00		         0.61833	4.00000e+00	
2.31974   	-6.50423e+00		         0.62000	4.00000e+00	
2.32586   	-5.06938e+00		         0.62167	4.00000e+00	
2.33225   	-3.85659e+00		         0.62333	5.00000e+00	
2.33837   	-2.83028e+00		         0.62500	5.00000e+00	
2.34449   	-1.80246e+00		         0.62667	5.00000e+00	
2.35062   	-8.29222e-01		         0.62833	4.00000e+00	
2.35701   	-5.06011e-02		         0.63000	3.00000e+00	
2.36313   	7.81637e-01		         0.63167	2.00000e+00	
2.36925   	1.48154e+00		         0.63333	1.00000e+00	
2.37537   	2.17554e+00		         0.63500	-1.00000e+00	
2.38177   	2.44166e+00		         0.63667	-2.00000e+00	
2.38789   	2.06296e+00		         0.63833	-4.00000e+00	
2.39401   	1.15044e+00		         0.64000	-6.00000e+00	
2.40013   	1.80056e-01		         0.64167	-8.00000e+00	
2.40652   	-1.06185e+00		         0.64333	-1.00000e+01	
2.41264   	-1.90655e+00		         0.64500	-1.10000e+01	
2.41877   	-2.36472e+00		         0.64667	-1.30000e+01	
2.42489   	-2.29350e+00		         0.64833	-1.30000e+01	
2.43128   	-2.19341e+00		         0.65000	-1.40000e+01	
2.43740   	-1.35453e+00		         0.65167	-1.40000e+01	
2.44372   	-9.53083e-01		         0.65333	-1.40000e+01	
2.44965   	7.03219e-02		         0.65500	-1.40000e+01	
2.45604   	1.30288e+00		         0.65667	-1.40000e+01	
2.46216   	2.74174e+00		         0.65833	-1.30000e+01	
2.46828   	3.17919e+00		         0.66000	-1.30000e+01	
2.47440   	4.14067e+00		         0.66167	-1.20000e+01	
2.48080   	4.62575e+00		         0.66333	-1.20000e+01	
2.48692   	4.80402e+00		         0.66500	-1.10000e+01	
2.49304   	4.72135e+00		         0.66667	-1.10000e+01	
2.49916   	4.95704e+00		         0.66833	-1.00000e+01	
2.50555   	5.08420e+00		         0.67000	-9.00000e+00	
2.51167   	5.06785e+00		         0.67167	-9.00000e+00	
2.51780   	4.89749e+00		         0.67333	-8.00000e+00	
2.52392   	4.85142e+00		         0.67500	-8.00000e+00	
2.53031   	4.82985e+00		         0.67667	-7.00000e+00	
2.53643   	4.56614e+00		         0.67833	-7.00000e+00	
2.54255   	4.53648e+00		         0.68000	-7.00000e+00	
2.54868   	4.64035e+00		         0.68167	-7.00000e+00	
2.55507   	4.66254e+00		         0.68333	-6.00000e+00	
2.56119   	4.63945e+00		         0.68500	-6.00000e+00	
2.56731   	4.68334e+00		         0.68667	-6.00000e+00	
2.57343   	4.60648e+00		         0.68833	-6.00000e+00	
2.57983   	4.44278e+00		         0.69000	-6.00000e+00	
2.58595   	4.32370e+00		         0.69167	-6.00000e+00	
2.59206   	4.17688e+00		         0.69333	-5.00000e+00	
2.59819   	4.02561e+00		         0.69500	-5.00000e+00	
2.60458   	3.83974e+00		         0.69667	-5.00000e+00	
2.61070   	3.76050e+00		         0.69833	-4.00000e+00	
2.61683   	3.60257e+00		         0.70000	-4.00000e+00	
2.62295   	3.46671e+00		         0.70167	-3.00000e+00	
2.62934   	3.37784e+00		         0.70333	-3.00000e+00	
2.63546   	3.26029e+00		         0.70500	-3.00000e+00	
2.64158   	3.17391e+00		         0.70667	-2.00000e+00	
2.64770   	3.07459e+00		         0.70833	-2.00000e+00	
2.65410   	3.02498e+00		         0.71000	-2.00000e+00	
2.66038   	2.90016e+00		         0.71167	-2.00000e+00	
2.66634   	2.87185e+00		         0.71333	-2.00000e+00	
2.67246   	2.68187e+00		         0.71500	-3.00000e+00	
2.67885   	2.54158e+00		         0.71667	-3.00000e+00	
2.68497   	2.31907e+00		         0.71833	-4.00000e+00	
2.69110   	2.16285e+00		         0.72000	-5.00000e+00	
2.69722   	1.88991e+00		         0.72167	-5.00000e+00	
2.70361   	1.74004e+00		         0.72333	-6.00000e+00	
2.71004   	1.56894e+00		         0.72500	-7.00000e+00	
2.71585   	1.43775e+00		         0.72667	-7.00000e+00	
2.72198   	1.22683e+00		         0.72833	-8.00000e+00	
2.72837   	1.02762e+00		         0.73000	-8.00000e+00	
2.73449   	7.11775e-01		         0.73167	-9.00000e+00	
2.74061   	3.39075e-01		         0.73333	-9.00000e+00	
2.74674   	-1.13821e-01		         0.73500	-9.00000e+00	
2.75313   	-6.31707e-01		         0.73667	-8.00000e+00	
2.75937   	-1.14513e+00		         0.73833	-8.00000e+00	
2.76537   	-1.57859e+00		         0.74000	-8.00000e+00	
2.77149   	-1.57828e+00		         0.74167	-7.00000e+00	
2.77788   	-1.01493e+00		         0.74333	-7.00000e+00	
2.78401   	-2.65726e-01		         0.74500	-6.00000e+00	
2.79012   	4.31430e-01		         0.74667	-5.00000e+00	
2.79625   	1.15379e+00		         0.74833	-5.00000e+00	
2.80264   	1.80462e+00		         0.75000	-5.00000e+00	
2.80876   	1.91176e+00		         0.75167	-4.00000e+00	
2.81488   	1.99466e+00		         0.75333	-4.00000e+00	
2.82101   	2.30373e+00		         0.75500	-4.00000e+00	
2.82740   	2.55402e+00		         0.75667	-3.00000e+00	
2.83352   	2.53861e+00		         0.75833	-3.00000e+00	
2.83964   	2.56919e+00		         0.76000	-3.00000e+00	
2.84576   	2.46591e+00		         0.76167	-3.00000e+00	
2.85216   	2.17058e+00		         0.76333	-4.00000e+00	
2.85863   	1.87313e+00		         0.76500	-4.00000e+00	
2.86440   	1.47671e+00		         0.76667	-4.00000e+00	
2.87052   	1.02698e+00		         0.76833	-5.00000e+00	
2.87691   	5.97935e-01		         0.77000	-6.00000e+00	
2.88303   	1.91582e-01		         0.77167	-7.00000e+00	
2.88915   	-3.04733e-01		         0.77333	-8.00000e+00	
2.89528   	-6.95673e-01		         0.77500	-9.00000e+00	
2.90167   	-1.08725e+00		         0.77667	-1.00000e+01	
2.90779   	-1.54743e+00		         0.77833	-1.10000e+01	
2.91391   	-1.88717e+00		         0.78000	-1.20000e+01	
2.92003   	-2.14627e+00		         0.78167	-1.20000e+01	
2.92643   	-2.35979e+00		         0.78333	-1.30000e+01	
2.93255   	-2.52701e+00		         0.78500	-1.30000e+01	
2.93867   	-2.55996e+00		         0.78667	-1.30000e+01	
2.94479   	-2.58667e+00		         0.78833	-1.30000e+01	
2.95118   	-2.52841e+00		         0.79000	-1.30000e+01	
2.95730   	-2.47569e+00		         0.79167	-1.20000e+01	
2.96343   	-2.37489e+00		         0.79333	-1.20000e+01	
2.96955   	-2.23032e+00		         0.79500	-1.10000e+01	
2.97594   	-2.09510e+00		         0.79667	-1.00000e+01	
2.98206   	-1.94400e+00		         0.79833	-1.00000e+01	
2.98818   	-1.77639e+00		         0.80000	-9.00000e+00	
2.99430   	-1.57860e+00		         0.80167	-9.00000e+00	
3.00070   	-1.37298e+00		         0.80333	-8.00000e+00	
3.00682   	-1.17111e+00		         0.80500	-8.00000e+00	
3.01294   	-1.00495e+00		         0.80667	-8.00000e+00	
3.01906   	-8.35803e-01		         0.80833	-8.00000e+00	
3.02546   	-7.27450e-01		         0.81000	-7.00000e+00	
3.03158   	-6.42715e-01		         0.81167	-7.00000e+00	
3.03770   	-5.66736e-01		         0.81333	-7.00000e+00	
3.04382   	-5.09220e-01		         0.81500	-7.00000e+00	
3.05021   	-4.79458e-01		         0.81667	-7.00000e+00	
3.05633   	-4.58145e-01		         0.81833	-7.00000e+00	
3.06246   	-4.21882e-01		         0.82000	-7.00000e+00	
3.06858   	-3.82945e-01		         0.82167	-7.00000e+00	
3.07497   	-3.30241e-01		         0.82333	-7.00000e+00	
3.08109   	-2.81001e-01		         0.82500	-6.00000e+00	
3.08721   	-2.18027e-01		         0.82667	-6.00000e+00	
3.09333   	-1.82451e-01		         0.82833	-6.00000e+00	
3.09973   	-1.48616e-01		         0.83000	-6.00000e+00	
3.10585   	-1.07394e-01		         0.83167	-5.00000e+00	
3.11197   	-5.24565e-02		         0.83333	-5.00000e+00	
3.11809   	7.28607e-03		         0.83500	-5.00000e+00	
3.12448   	7.04629e-02		         0.83667	-5.00000e+00	
3.13061   	1.09491e-01		         0.83833	-5.00000e+00	
3.13673   	1.41074e-01		         0.84000	-5.00000e+00	
3.14285   	1.39953e-01		         0.84167	-5.00000e+00	
3.14924   	1.39598e-01		         0.84333	-5.00000e+00	
3.15536   	1.20374e-01		         0.84500	-5.00000e+00	
3.16148   	1.11662e-01		         0.84667	-5.00000e+00	
3.16761   	8.28253e-02		         0.84833	-6.00000e+00	
3.17399   	3.41572e-02		         0.85000	-6.00000e+00	
3.18012   	-2.55721e-02		         0.85167	-6.00000e+00	
3.18624   	-7.19160e-02		         0.85333	-6.00000e+00	
3.19236   	-1.28546e-01		         0.85500	-6.00000e+00	
3.19876   	-1.68365e-01		         0.85667	-6.00000e+00	
3.20488   	-1.91293e-01		         0.85833	-6.00000e+00	
3.21100   	-2.17921e-01		         0.86000	-6.00000e+00	
3.21712   	-2.56621e-01		         0.86167	-6.00000e+00	
3.22386   	-2.90808e-01		         0.86333	-6.00000e+00	
3.22964   	-3.15031e-01		         0.86500	-5.00000e+00	
3.23576   	-3.15715e-01		         0.86667	-5.00000e+00	
3.24188   	-3.28728e-01		         0.86833	-4.00000e+00	
3.24828   	-3.32078e-01		         0.87000	-4.00000e+00	
3.25439   	-3.25794e-01		         0.87167	-3.00000e+00	
3.26051   	-3.18452e-01		         0.87333	-3.00000e+00	
3.26664   	-3.36571e-01		         0.87500	-3.00000e+00	
3.27303   	-3.09461e-01		         0.87667	-2.00000e+00	
3.27915   	-2.82112e-01		         0.87833	-2.00000e+00	
3.28527   	-2.65476e-01		         0.88000	-2.00000e+00	
3.29139   	-2.42535e-01		         0.88167	-2.00000e+00	
3.29778   	-2.09374e-01		         0.88333	-1.00000e+00	
3.30391   	-1.96158e-01		         0.88500	-1.00000e+00	
3.31003   	-1.81458e-01		         0.88667	-1.00000e+00	
3.31615   	-1.67115e-01		         0.88833	-1.00000e+00	
3.32254   	-1.60818e-01		         0.89000	-1.00000e+00	
3.32867   	-1.29911e-01		         0.89167	-1.00000e+00	
3.33478   	-9.31795e-02		         0.89333	-1.00000e+00	
3.34091   	-1.19159e-01		         0.89500	-1.00000e+00	
3.34730   	-1.86093e-01		         0.89667	0.00000e+00	
3.35342   	-2.74652e-01		         0.89833	0.00000e+00	
3.35954   	-4.68066e-01		         0.90000	0.00000e+00	
3.36567   	-8.05100e-01		         0.90167	1.00000e+00	
3.37206   	-1.23863e+00		         0.90333	1.00000e+00	
3.37818   	-2.01102e+00		         0.90500	2.00000e+00	
3.38430   	-2.99161e+00		         0.90667	2.00000e+00	
3.39042   	-4.08151e+00		         0.90833	3.00000e+00	
3.39682   	-5.35140e+00		         0.91000	4.00000e+00	
3.40294   	-6.56851e+00		         0.91167	4.00000e+00	
3.40906   	-7.58895e+00		         0.91333	5.00000e+00	
3.41518   	-8.46280e+00		         0.91500	6.00000e+00	
3.42157   	-9.24382e+00		         0.91667	6.00000e+00	
3.42770   	-9.77392e+00		         0.91833	6.00000e+00	
3.43382   	-1.00691e+01		         0.92000	6.00000e+00	
3.43994   	-1.01179e+01		         0.92167	6.00000e+00	
3.44633   	-9.89409e+00		         0.92333	6.00000e+00	
3.45245   	-9.27437e+00		         0.92500	5.00000e+00	
3.45857   	-8.31515e+00		         0.92667	5.00000e+00	
3.46470   	-7.22390e+00		         0.92833	4.00000e+00	
3.47109   	-5.88353e+00		         0.93000	3.00000e+00	
3.47721   	-4.59653e+00		         0.93167	2.00000e+00	
3.48333   	-3.59985e+00		         0.93333	1.00000e+00	
3.48945   	-2.55045e+00		         0.93500	0.00000e+00	
3.49585   	-1.51001e+00		         0.93667	-1.00000e+00	
3.50197   	-5.76509e-01		         0.93833	-2.00000e+00	
3.50809   	6.62620e-02		         0.94000	-2.00000e+00	
3.51421   	1.12923e+00		         0.94167	-3.00000e+00	
3.52060   	1.70197e+00		         0.94333	-3.00000e+00	
3.52672   	2.49852e+00		         0.94500	-3.00000e+00	
3.53285   	2.70746e+00		         0.94667	-3.00000e+00	
3.53897   	3.30336e+00		         0.94833	-3.00000e+00	
			         0.95000	-3.00000e+00	
			         0.95167	-2.00000e+00	
			         0.95333	-1.00000e+00	
			         0.95500	0.00000e+00	
			         0.95667	1.00000e+00	
			         0.95833	2.00000e+00	
			         0.96000	3.00000e+00	
			         0.96167	4.00000e+00	
			         0.96333	5.00000e+00	
			         0.96500	7.00000e+00	
			         0.96667	8.00000e+00	
			         0.96833	9.00000e+00	
			         0.97000	9.00000e+00	
			         0.97167	1.00000e+01	
			         0.97333	1.00000e+01	
			         0.97500	1.00000e+01	
			         0.97667	9.00000e+00	
			         0.97833	9.00000e+00	
			         0.98000	9.00000e+00	
			         0.98167	8.00000e+00	
			         0.98333	7.00000e+00	
			         0.98500	7.00000e+00	
			         0.98667	6.00000e+00	
			         0.98833	6.00000e+00	
			         0.99000	6.00000e+00	
			         0.99167	6.00000e+00	
			         0.99333	7.00000e+00	
			         0.99500	7.00000e+00	
			         0.99667	8.00000e+00	
			         0.99833	9.00000e+00	
			         1.00000	1.00000e+01	
			         1.00167	1.10000e+01	
			         1.00333	1.20000e+01	
			         1.00500	1.20000e+01	
			         1.00667	1.30000e+01	
			         1.00833	1.40000e+01	
			         1.01000	1.40000e+01	
			         1.01167	1.50000e+01	
			         1.01333	1.50000e+01	
			         1.01500	1.50000e+01	
			         1.01667	1.50000e+01	
			         1.01833	1.60000e+01	
			         1.02000	1.60000e+01	
			         1.02167	1.60000e+01	
			         1.02333	1.60000e+01	
			         1.02500	1.70000e+01	
			         1.02667	1.80000e+01	
			         1.02833	1.80000e+01	
			         1.03000	1.90000e+01	
			         1.03167	1.90000e+01	
			         1.03333	2.00000e+01	
			         1.03500	2.10000e+01	
			         1.03667	2.10000e+01	
			         1.03833	2.20000e+01	
			         1.04000	2.20000e+01	
			         1.04167	2.20000e+01	
			         1.04333	2.20000e+01	
			         1.04500	2.20000e+01	
			         1.04667	2.10000e+01	
			         1.04833	2.10000e+01	
			         1.05000	2.00000e+01	
			         1.05167	1.90000e+01	
			         1.05333	1.90000e+01	
			         1.05500	1.80000e+01	
			         1.05667	1.70000e+01	
			         1.05833	1.70000e+01	
			         1.06000	1.60000e+01	
			         1.06167	1.60000e+01	
			         1.06333	1.50000e+01	
			         1.06500	1.50000e+01	
			         1.06667	1.40000e+01	
			         1.06833	1.40000e+01	
			         1.07000	1.30000e+01	
			         1.07167	1.20000e+01	
			         1.07333	1.00000e+01	
			         1.07500	9.00000e+00	
			         1.07667	6.00000e+00	
			         1.07833	4.00000e+00	
			         1.08000	1.00000e+00	
			         1.08167	-2.00000e+00	
			         1.08333	-5.00000e+00	
			         1.08500	-8.00000e+00	
			         1.08667	-1.10000e+01	
			         1.08833	-1.30000e+01	
			         1.09000	-1.50000e+01	
			         1.09167	-1.70000e+01	
			         1.09333	-1.80000e+01	
			         1.09500	-1.90000e+01	
			         1.09667	-1.90000e+01	
			         1.09833	-1.90000e+01	
			         1.10000	-1.90000e+01	
			         1.10167	-1.80000e+01	
			         1.10333	-1.80000e+01	
			         1.10500	-1.70000e+01	
			         1.10667	-1.70000e+01	
			         1.10833	-1.70000e+01	
			         1.11000	-1.70000e+01	
			         1.11167	-1.70000e+01	
			         1.11333	-1.70000e+01	
			         1.11500	-1.70000e+01	
			         1.11667	-1.70000e+01	
			         1.11833	-1.70000e+01	
			         1.12000	-1.70000e+01	
			         1.12167	-1.70000e+01	
			         1.12333	-1.70000e+01	
			         1.12500	-1.70000e+01	
			         1.12667	-1.70000e+01	
			         1.12833	-1.70000e+01	
			         1.13000	-1.60000e+01	
			         1.13167	-1.60000e+01	
			         1.13333	-1.50000e+01	
			         1.13500	-1.50000e+01	
			         1.13667	-1.40000e+01	
			         1.13833	-1.40000e+01	
			         1.14000	-1.30000e+01	
			         1.14167	-1.30000e+01	
			         1.14333	-1.20000e+01	
			         1.14500	-1.20000e+01	
			         1.14667	-1.20000e+01	
			         1.14833	-1.20000e+01	
			         1.15000	-1.10000e+01	
			         1.15167	-1.10000e+01	
			         1.15333	-1.10000e+01	
			         1.15500	-1.10000e+01	
			         1.15667	-1.00000e+01	
			         1.15833	-1.00000e+01	
			         1.16000	-1.00000e+01	
			         1.16167	-1.00000e+01	
			         1.16333	-1.00000e+01	
			         1.16500	-1.00000e+01	
			         1.16667	-1.00000e+01	
			         1.16833	-1.10000e+01	
			         1.17000	-1.20000e+01	
			         1.17167	-1.30000e+01	
			         1.17333	-1.40000e+01	
			         1.17500	-1.50000e+01	
			         1.17667	-1.60000e+01	
			         1.17833	-1.70000e+01	
			         1.18000	-1.80000e+01	
			         1.18167	-1.90000e+01	
			         1.18333	-1.80000e+01	
			         1.18500	-1.70000e+01	
			         1.18667	-1.40000e+01	
			         1.18833	-1.00000e+01	
			         1.19000	-4.00000e+00	
			         1.19167	3.00000e+00	
			         1.19333	1.20000e+01	
			         1.19500	2.30000e+01	
			         1.19667	3.50000e+01	
			         1.19833	4.90000e+01	
			         1.20000	6.40000e+01	
			         1.20167	7.90000e+01	
			         1.20333	9.50000e+01	
			         1.20500	1.10000e+02	
			         1.20667	1.24000e+02	
			         1.20833	1.37000e+02	
			         1.21000	1.47000e+02	
			         1.21167	1.55000e+02	
			         1.21333	1.60000e+02	
			         1.21500	1.62000e+02	
			         1.21667	1.62000e+02	
			         1.21833	1.59000e+02	
			         1.22000	1.53000e+02	
			         1.22167	1.46000e+02	
			         1.22333	1.37000e+02	
			         1.22500	1.26000e+02	
			         1.22667	1.15000e+02	
			         1.22833	1.04000e+02	
			         1.23000	9.20000e+01	
			         1.23167	8.10000e+01	
			         1.23333	7.10000e+01	
			         1.23500	6.10000e+01	
			         1.23667	5.10000e+01	
			         1.23833	4.20000e+01	
			         1.24000	3.40000e+01	
			         1.24167	2.60000e+01	
			         1.24333	1.90000e+01	
			         1.24500	1.20000e+01	
			         1.24667	5.00000e+00	
			         1.24833	-1.00000e+00	
			         1.25000	-7.00000e+00	
			         1.25167	-1.30000e+01	
			         1.25333	-1.80000e+01	
			         1.25500	-2.30000e+01	
			         1.25667	-2.80000e+01	
			         1.25833	-3.20000e+01	
			         1.26000	-3.60000e+01	
			         1.26167	-3.90000e+01	
			         1.26333	-4.20000e+01	
			         1.26500	-4.50000e+01	
			         1.26667	-4.70000e+01	
			         1.26833	-4.80000e+01	
			         1.27000	-4.90000e+01	
			         1.27167	-5.00000e+01	
			         1.27333	-5.10000e+01	
			         1.27500	-5.10000e+01	
			         1.27667	-5.20000e+01	
			         1.27833	-5.10000e+01	
			         1.28000	-5.10000e+01	
			         1.28167	-5.10000e+01	
			         1.28333	-5.00000e+01	
			         1.28500	-4.90000e+01	
			         1.28667	-4.90000e+01	
			         1.28833	-4.80000e+01	
			         1.29000	-4.80000e+01	
			         1.29167	-4.70000e+01	
			         1.29333	-4.60000e+01	
			         1.29500	-4.50000e+01	
			         1.29667	-4.50000e+01	
			         1.29833	-4.40000e+01	
			         1.30000	-4.30000e+01	
			         1.30167	-4.20000e+01	
			         1.30333	-4.20000e+01	
			         1.30500	-4.10000e+01	
			         1.30667	-4.00000e+01	
			         1.30833	-4.00000e+01	
			         1.31000	-3.90000e+01	
			         1.31167	-3.80000e+01	
			         1.31333	-3.80000e+01	
			         1.31500	-3.70000e+01	
			         1.31667	-3.60000e+01	
			         1.31833	-3.50000e+01	
			         1.32000	-3.40000e+01	
			         1.32167	-3.30000e+01	
			         1.32333	-3.20000e+01	
			         1.32500	-3.00000e+01	
			         1.32667	-2.90000e+01	
			         1.32833	-2.80000e+01	
			         1.33000	-2.60000e+01	
			         1.33167	-2.50000e+01	
			         1.33333	-2.30000e+01	
			         1.33500	-2.20000e+01	
			         1.33667	-2.10000e+01	
			         1.33833	-2.00000e+01	
			         1.34000	-2.00000e+01	
			         1.34167	-1.90000e+01	
			         1.34333	-1.90000e+01	
			         1.34500	-1.80000e+01	
			         1.34667	-1.80000e+01	
			         1.34833	-1.70000e+01	
			         1.35000	-1.70000e+01	
			         1.35167	-1.60000e+01	
			         1.35333	-1.60000e+01	
			         1.35500	-1.50000e+01	
			         1.35667	-1.50000e+01	
			         1.35833	-1.40000e+01	
			         1.36000	-1.40000e+01	
			         1.36167	-1.30000e+01	
			         1.36333	-1.30000e+01	
			         1.36500	-1.30000e+01	
			         1.36667	-1.30000e+01	
			         1.36833	-1.20000e+01	
			         1.37000	-1.20000e+01	
			         1.37167	-1.20000e+01	
			         1.37333	-1.20000e+01	
			         1.37500	-1.20000e+01	
			         1.37667	-1.20000e+01	
			         1.37833	-1.30000e+01	
			         1.38000	-1.30000e+01	
			         1.38167	-1.30000e+01	
			         1.38333	-1.30000e+01	
			         1.38500	-1.30000e+01	
			         1.38667	-1.30000e+01	
			         1.38833	-1.30000e+01	
			         1.39000	-1.30000e+01	
			         1.39167	-1.30000e+01	
			         1.39333	-1.20000e+01	
			         1.39500	-1.20000e+01	
			         1.39667	-1.10000e+01	
			         1.39833	-1.10000e+01	
			         1.40000	-1.00000e+01	
			         1.40167	-9.00000e+00	
			         1.40333	-9.00000e+00	
			         1.40500	-8.00000e+00	
			         1.40667	-8.00000e+00	
			         1.40833	-7.00000e+00	
			         1.41000	-6.00000e+00	
			         1.41167	-6.00000e+00	
			         1.41333	-5.00000e+00	
			         1.41500	-4.00000e+00	
			         1.41667	-4.00000e+00	
			         1.41833	-3.00000e+00	
			         1.42000	-2.00000e+00	
			         1.42167	-2.00000e+00	
			         1.42333	-1.00000e+00	
			         1.42500	0.00000e+00	
			         1.42667	1.00000e+00	
			         1.42833	1.00000e+00	
			         1.43000	2.00000e+00	
			         1.43167	3.00000e+00	
			         1.43333	4.00000e+00	
			         1.43500	5.00000e+00	
			         1.43667	6.00000e+00	
			         1.43833	7.00000e+00	
			         1.44000	8.00000e+00	
			         1.44167	9.00000e+00	
			         1.44333	1.00000e+01	
			         1.44500	1.10000e+01	
			         1.44667	1.20000e+01	
			         1.44833	1.30000e+01	
			         1.45000	1.40000e+01	
			         1.45167	1.50000e+01	
			         1.45333	1.60000e+01	
			         1.45500	1.70000e+01	
			         1.45667	1.80000e+01	
			         1.45833	1.90000e+01	
			         1.46000	2.00000e+01	
			         1.46167	2.10000e+01	
			         1.46333	2.30000e+01	
			         1.46500	2.40000e+01	
			         1.46667	2.50000e+01	
			         1.46833	2.70000e+01	
			         1.47000	2.80000e+01	
			         1.47167	2.90000e+01	
			         1.47333	3.00000e+01	
			         1.47500	3.10000e+01	
			         1.47667	3.20000e+01	
			         1.47833	3.30000e+01	
			         1.48000	3.40000e+01	
			         1.48167	3.50000e+01	
			         1.48333	3.60000e+01	
			         1.48500	3.70000e+01	
			         1.48667	3.90000e+01	
			         1.48833	4.00000e+01	
			         1.49000	4.10000e+01	
			         1.49167	4.20000e+01	
			         1.49333	4.30000e+01	
			         1.49500	4.40000e+01	
			         1.49667	4.50000e+01	
			         1.49833	4.50000e+01	
			         1.50000	4.60000e+01	
			         1.50167	4.60000e+01	
			         1.50333	4.60000e+01	
			         1.50500	4.60000e+01	
			         1.50667	4.60000e+01	
			         1.50833	4.50000e+01	
			         1.51000	4.50000e+01	
			         1.51167	4.40000e+01	
			         1.51333	4.30000e+01	
			         1.51500	4.30000e+01	
			         1.51667	4.20000e+01	
			         1.51833	4.20000e+01	
			         1.52000	4.20000e+01	
			         1.52167	4.10000e+01	
			         1.52333	4.10000e+01	
			         1.52500	4.00000e+01	
			         1.52667	4.00000e+01	
			         1.52833	3.90000e+01	
			         1.53000	3.80000e+01	
			         1.53167	3.70000e+01	
			         1.53333	3.60000e+01	
			         1.53500	3.40000e+01	
			         1.53667	3.20000e+01	
			         1.53833	3.00000e+01	
			         1.54000	2.80000e+01	
			         1.54167	2.50000e+01	
			         1.54333	2.20000e+01	
			         1.54500	2.00000e+01	
			         1.54667	1.70000e+01	
			         1.54833	1.40000e+01	
			         1.55000	1.10000e+01	
			         1.55167	8.00000e+00	
			         1.55333	6.00000e+00	
			         1.55500	3.00000e+00	
			         1.55667	1.00000e+00	
			         1.55833	-2.00000e+00	
			         1.56000	-4.00000e+00	
			         1.56167	-7.00000e+00	
			         1.56333	-9.00000e+00	
			         1.56500	-1.10000e+01	
			         1.56667	-1.30000e+01	
			         1.56833	-1.50000e+01	
			         1.57000	-1.70000e+01	
			         1.57167	-1.90000e+01	
			         1.57333	-2.00000e+01	
			         1.57500	-2.10000e+01	
			         1.57667	-2.30000e+01	
			         1.57833	-2.30000e+01	
			         1.58000	-2.40000e+01	
			         1.58167	-2.50000e+01	
			         1.58333	-2.50000e+01	
			         1.58500	-2.60000e+01	
			         1.58667	-2.60000e+01	
			         1.58833	-2.60000e+01	
			         1.59000	-2.60000e+01	
			         1.59167	-2.60000e+01	
			         1.59333	-2.70000e+01	
			         1.59500	-2.70000e+01	
			         1.59667	-2.80000e+01	
			         1.59833	-2.80000e+01	
			         1.60000	-2.90000e+01	
			         1.60167	-3.00000e+01	
			         1.60333	-3.00000e+01	
			         1.60500	-3.10000e+01	
			         1.60667	-3.10000e+01	
			         1.60833	-3.10000e+01	
			         1.61000	-3.20000e+01	
			         1.61167	-3.20000e+01	
			         1.61333	-3.10000e+01	
			         1.61500	-3.10000e+01	
			         1.61667	-3.10000e+01	
			         1.61833	-3.00000e+01	
			         1.62000	-2.90000e+01	
			         1.62167	-2.90000e+01	
			         1.62333	-2.80000e+01	
			         1.62500	-2.80000e+01	
			         1.62667	-2.70000e+01	
			         1.62833	-2.70000e+01	
			         1.63000	-2.70000e+01	
			         1.63167	-2.70000e+01	
			         1.63333	-2.70000e+01	
			         1.63500	-2.70000e+01	
			         1.63667	-2.80000e+01	
			         1.63833	-2.80000e+01	
			         1.64000	-2.90000e+01	
			         1.64167	-2.90000e+01	
			         1.64333	-3.00000e+01	
			         1.64500	-3.00000e+01	
			         1.64667	-3.00000e+01	
			         1.64833	-3.00000e+01	
			         1.65000	-3.00000e+01	
			         1.65167	-3.00000e+01	
			         1.65333	-2.90000e+01	
			         1.65500	-2.80000e+01	
			         1.65667	-2.70000e+01	
			         1.65833	-2.60000e+01	
			         1.66000	-2.50000e+01	
			         1.66167	-2.40000e+01	
			         1.66333	-2.20000e+01	
			         1.66500	-2.10000e+01	
			         1.66667	-2.00000e+01	
			         1.66833	-1.90000e+01	
			         1.67000	-1.80000e+01	
			         1.67167	-1.70000e+01	
			         1.67333	-1.70000e+01	
			         1.67500	-1.70000e+01	
			         1.67667	-1.70000e+01	
			         1.67833	-1.70000e+01	
			         1.68000	-1.80000e+01	
			         1.68167	-1.80000e+01	
			         1.68333	-1.80000e+01	
			         1.68500	-1.90000e+01	
			         1.68667	-1.90000e+01	
			         1.68833	-1.90000e+01	
			         1.69000	-1.90000e+01	
			         1.69167	-1.90000e+01	
			         1.69333	-1.80000e+01	
			         1.69500	-1.80000e+01	
			         1.69667	-1.70000e+01	
			         1.69833	-1.70000e+01	
			         1.70000	-1.60000e+01	
			         1.70167	-1.60000e+01	
			         1.70333	-1.60000e+01	
			         1.70500	-1.50000e+01	
			         1.70667	-1.50000e+01	
			         1.70833	-1.50000e+01	
			         1.71000	-1.40000e+01	
			         1.71167	-1.40000e+01	
			         1.71333	-1.40000e+01	
			         1.71500	-1.30000e+01	
			         1.71667	-1.30000e+01	
			         1.71833	-1.20000e+01	
			         1.72000	-1.10000e+01	
			         1.72167	-1.10000e+01	
			         1.72333	-1.00000e+01	
			         1.72500	-1.00000e+01	
			         1.72667	-1.00000e+01	
			         1.72833	-9.00000e+00	
			         1.73000	-9.00000e+00	
			         1.73167	-1.00000e+01	
			         1.73333	-1.00000e+01	
			         1.73500	-1.00000e+01	
			         1.73667	-1.00000e+01	
			         1.73833	-1.00000e+01	
			         1.74000	-1.10000e+01	
			         1.74167	-1.00000e+01	
			         1.74333	-1.00000e+01	
			         1.74500	-9.00000e+00	
			         1.74667	-9.00000e+00	
			         1.74833	-8.00000e+00	
			         1.75000	-7.00000e+00	
			         1.75167	-6.00000e+00	
			         1.75333	-5.00000e+00	
			         1.75500	-5.00000e+00	
			         1.75667	-4.00000e+00	
			         1.75833	-4.00000e+00	
			         1.76000	-4.00000e+00	
			         1.76167	-4.00000e+00	
			         1.76333	-4.00000e+00	
			         1.76500	-4.00000e+00	
			         1.76667	-4.00000e+00	
			         1.76833	-4.00000e+00	
			         1.77000	-4.00000e+00	
			         1.77167	-4.00000e+00	
			         1.77333	-4.00000e+00	
			         1.77500	-4.00000e+00	
			         1.77667	-4.00000e+00	
			         1.77833	-4.00000e+00	
			         1.78000	-4.00000e+00	
			         1.78167	-4.00000e+00	
			         1.78333	-4.00000e+00	
			         1.78500	-4.00000e+00	
			         1.78667	-4.00000e+00	
			         1.78833	-4.00000e+00	
			         1.79000	-4.00000e+00	
			         1.79167	-4.00000e+00	
			         1.79333	-4.00000e+00	
			         1.79500	-5.00000e+00	
			         1.79667	-5.00000e+00	
			         1.79833	-5.00000e+00	
			         1.80000	-5.00000e+00	
			         1.80167	-5.00000e+00	
			         1.80333	-5.00000e+00	
			         1.80500	-5.00000e+00	
			         1.80667	-5.00000e+00	
			         1.80833	-6.00000e+00	
			         1.81000	-6.00000e+00	
			         1.81167	-6.00000e+00	
			         1.81333	-6.00000e+00	
			         1.81500	-6.00000e+00	
			         1.81667	-6.00000e+00	
			         1.81833	-6.00000e+00	
			         1.82000	-6.00000e+00	
			         1.82167	-5.00000e+00	
			         1.82333	-5.00000e+00	
			         1.82500	-5.00000e+00	
			         1.82667	-4.00000e+00	
			         1.82833	-4.00000e+00	
			         1.83000	-4.00000e+00	
			         1.83167	-4.00000e+00	
			         1.83333	-4.00000e+00	
			         1.83500	-4.00000e+00	
			         1.83667	-4.00000e+00	
			         1.83833	-4.00000e+00	
			         1.84000	-4.00000e+00	
			         1.84167	-5.00000e+00	
			         1.84333	-5.00000e+00	
			         1.84500	-6.00000e+00	
			         1.84667	-6.00000e+00	
			         1.84833	-7.00000e+00	
			         1.85000	-8.00000e+00	
			         1.85167	-8.00000e+00	
			         1.85333	-9.00000e+00	
			         1.85500	-9.00000e+00	
			         1.85667	-9.00000e+00	
			         1.85833	-9.00000e+00	
			         1.86000	-9.00000e+00	
			         1.86167	-9.00000e+00	
			         1.86333	-9.00000e+00	
			         1.86500	-9.00000e+00	
			         1.86667	-8.00000e+00	
			         1.86833	-8.00000e+00	
			         1.87000	-7.00000e+00	
			         1.87167	-6.00000e+00	
			         1.87333	-6.00000e+00	
			         1.87500	-5.00000e+00	
			         1.87667	-5.00000e+00	
			         1.87833	-5.00000e+00	
			         1.88000	-4.00000e+00	
			         1.88167	-4.00000e+00	
			         1.88333	-4.00000e+00	
			         1.88500	-3.00000e+00	
			         1.88667	-3.00000e+00	
			         1.88833	-3.00000e+00	
			         1.89000	-3.00000e+00	
			         1.89167	-3.00000e+00	
			         1.89333	-3.00000e+00	
			         1.89500	-4.00000e+00	
			         1.89667	-4.00000e+00	
			         1.89833	-4.00000e+00	
			         1.90000	-5.00000e+00	
			         1.90167	-5.00000e+00	
			         1.90333	-6.00000e+00	
			         1.90500	-6.00000e+00	
			         1.90667	-7.00000e+00	
			         1.90833	-7.00000e+00	
			         1.91000	-7.00000e+00	
			         1.91167	-7.00000e+00	
			         1.91333	-7.00000e+00	
			         1.91500	-7.00000e+00	
			         1.91667	-7.00000e+00	
			         1.91833	-7.00000e+00	
			         1.92000	-7.00000e+00	
			         1.92167	-6.00000e+00	
			         1.92333	-6.00000e+00	
			         1.92500	-6.00000e+00	
			         1.92667	-5.00000e+00	
			         1.92833	-5.00000e+00	
			         1.93000	-5.00000e+00	
			         1.93167	-5.00000e+00	
			         1.93333	-5.00000e+00	
			         1.93500	-5.00000e+00	
			         1.93667	-5.00000e+00	
			         1.93833	-5.00000e+00	
			         1.94000	-4.00000e+00	
			         1.94167	-4.00000e+00	
			         1.94333	-4.00000e+00	
			         1.94500	-4.00000e+00	
			         1.94667	-3.00000e+00	
			         1.94833	-2.00000e+00	
			         1.95000	-2.00000e+00	
			         1.95167	-1.00000e+00	
			         1.95333	0.00000e+00	
			         1.95500	0.00000e+00	
			         1.95667	1.00000e+00	
			         1.95833	1.00000e+00	
			         1.96000	2.00000e+00	
			         1.96167	2.00000e+00	
			         1.96333	2.00000e+00	
			         1.96500	1.00000e+00	
			         1.96667	0.00000e+00	
			         1.96833	-1.00000e+00	
			         1.97000	-2.00000e+00	
			         1.97167	-3.00000e+00	
			         1.97333	-5.00000e+00	
			         1.97500	-6.00000e+00	
			         1.97667	-7.00000e+00	
			         1.97833	-8.00000e+00	
			         1.98000	-9.00000e+00	
			         1.98167	-9.00000e+00	
			         1.98333	-9.00000e+00	
			         1.98500	-9.00000e+00	
			         1.98667	-9.00000e+00	
			         1.98833	-9.00000e+00	
			         1.99000	-9.00000e+00	
			         1.99167	-9.00000e+00	
			         1.99333	-9.00000e+00	
			         1.99500	-9.00000e+00	
			         1.99667	-9.00000e+00	
			         1.99833	-9.00000e+00	
			         2.00000	-9.00000e+00	
			         2.00167	-1.00000e+01	
			         2.00333	-1.00000e+01	
			         2.00500	-1.00000e+01	
			         2.00667	-1.00000e+01	
			         2.00833	-1.00000e+01	
			         2.01000	-1.00000e+01	
			         2.01167	-9.00000e+00	
			         2.01333	-9.00000e+00	
			         2.01500	-9.00000e+00	
			         2.01667	-9.00000e+00	
			         2.01833	-8.00000e+00	
			         2.02000	-8.00000e+00	
			         2.02167	-8.00000e+00	
			         2.02333	-7.00000e+00	
			         2.02500	-7.00000e+00	
			         2.02667	-7.00000e+00	
			         2.02833	-7.00000e+00	
			         2.03000	-7.00000e+00	
			         2.03167	-6.00000e+00	
			         2.03333	-6.00000e+00	
			         2.03500	-6.00000e+00	
			         2.03667	-6.00000e+00	
			         2.03833	-6.00000e+00	
			         2.04000	-6.00000e+00	
			         2.04167	-5.00000e+00	
			         2.04333	-5.00000e+00	
			         2.04500	-5.00000e+00	
			         2.04667	-5.00000e+00	
			         2.04833	-5.00000e+00	
			         2.05000	-4.00000e+00	
			         2.05167	-4.00000e+00	
			         2.05333	-4.00000e+00	
			         2.05500	-4.00000e+00	
			         2.05667	-4.00000e+00	
			         2.05833	-3.00000e+00	
			         2.06000	-3.00000e+00	
			         2.06167	-3.00000e+00	
			         2.06333	-3.00000e+00	
			         2.06500	-3.00000e+00	
			         2.06667	-3.00000e+00	
			         2.06833	-3.00000e+00	
			         2.07000	-4.00000e+00	
			         2.07167	-4.00000e+00	
			         2.07333	-5.00000e+00	
			         2.07500	-6.00000e+00	
			         2.07667	-6.00000e+00	
			         2.07833	-7.00000e+00	
			         2.08000	-7.00000e+00	
			         2.08167	-7.00000e+00	
			         2.08333	-7.00000e+00	
			         2.08500	-6.00000e+00	
			         2.08667	-6.00000e+00	
			         2.08833	-5.00000e+00	
			         2.09000	-4.00000e+00	
			         2.09167	-3.00000e+00	
			         2.09333	-2.00000e+00	
			         2.09500	-1.00000e+00	
			         2.09667	0.00000e+00	
			         2.09833	0.00000e+00	
			         2.10000	0.00000e+00	
			         2.10167	1.00000e+00	
			         2.10333	1.00000e+00	
			         2.10500	1.00000e+00	
			         2.10667	1.00000e+00	
			         2.10833	2.00000e+00	
			         2.11000	2.00000e+00	
			         2.11167	2.00000e+00	
			         2.11333	3.00000e+00	
			         2.11500	4.00000e+00	
			         2.11667	5.00000e+00	
			         2.11833	6.00000e+00	
			         2.12000	6.00000e+00	
			         2.12167	7.00000e+00	
			         2.12333	7.00000e+00	
			         2.12500	8.00000e+00	
			         2.12667	7.00000e+00	
			         2.12833	7.00000e+00	
			         2.13000	6.00000e+00	
			         2.13167	5.00000e+00	
			         2.13333	4.00000e+00	
			         2.13500	3.00000e+00	
			         2.13667	1.00000e+00	
			         2.13833	0.00000e+00	
			         2.14000	-1.00000e+00	
			         2.14167	-2.00000e+00	
			         2.14333	-2.00000e+00	
			         2.14500	-3.00000e+00	
			         2.14667	-2.00000e+00	
			         2.14833	-2.00000e+00	
			         2.15000	-1.00000e+00	
			         2.15167	0.00000e+00	
			         2.15333	1.00000e+00	
			         2.15500	2.00000e+00	
			         2.15667	3.00000e+00	
			         2.15833	4.00000e+00	
			         2.16000	5.00000e+00	
			         2.16167	6.00000e+00	
			         2.16333	7.00000e+00	
			         2.16500	7.00000e+00	
			         2.16667	7.00000e+00	
			         2.16833	8.00000e+00	
			         2.17000	8.00000e+00	
			         2.17167	8.00000e+00	
			         2.17333	8.00000e+00	
			         2.17500	8.00000e+00	
			         2.17667	7.00000e+00	
			         2.17833	7.00000e+00	
			         2.18000	7.00000e+00	
			         2.18167	7.00000e+00	
			         2.18333	8.00000e+00	
			         2.18500	8.00000e+00	
			         2.18667	9.00000e+00	
			         2.18833	9.00000e+00	
			         2.19000	1.00000e+01	
			         2.19167	1.10000e+01	
			         2.19333	1.20000e+01	
			         2.19500	1.20000e+01	
			         2.19667	1.30000e+01	
			         2.19833	1.40000e+01	
			         2.20000	1.40000e+01	
			         2.20167	1.40000e+01	
			         2.20333	1.40000e+01	
			         2.20500	1.40000e+01	
			         2.20667	1.30000e+01	
			         2.20833	1.30000e+01	
			         2.21000	1.20000e+01	
			         2.21167	1.10000e+01	
			         2.21333	1.10000e+01	
			         2.21500	1.00000e+01	
			         2.21667	1.00000e+01	
			         2.21833	9.00000e+00	
			         2.22000	9.00000e+00	
			         2.22167	9.00000e+00	
			         2.22333	8.00000e+00	
			         2.22500	8.00000e+00	
			         2.22667	8.00000e+00	
			         2.22833	7.00000e+00	
			         2.23000	6.00000e+00	
			         2.23167	5.00000e+00	
			         2.23333	3.00000e+00	
			         2.23500	2.00000e+00	
			         2.23667	0.00000e+00	
			         2.23833	-2.00000e+00	
			         2.24000	-4.00000e+00	
			         2.24167	-6.00000e+00	
			         2.24333	-9.00000e+00	
			         2.24500	-1.00000e+01	
			         2.24667	-1.20000e+01	
			         2.24833	-1.40000e+01	
			         2.25000	-1.50000e+01	
			         2.25167	-1.60000e+01	
			         2.25333	-1.70000e+01	
			         2.25500	-1.80000e+01	
			         2.25667	-1.80000e+01	
			         2.25833	-1.80000e+01	
			         2.26000	-1.90000e+01	
			         2.26167	-1.80000e+01	
			         2.26333	-1.80000e+01	
			         2.26500	-1.70000e+01	
			         2.26667	-1.70000e+01	
			         2.26833	-1.60000e+01	
			         2.27000	-1.50000e+01	
			         2.27167	-1.40000e+01	
			         2.27333	-1.30000e+01	
			         2.27500	-1.20000e+01	
			         2.27667	-1.20000e+01	
			         2.27833	-1.10000e+01	
			         2.28000	-1.10000e+01	
			         2.28167	-1.10000e+01	
			         2.28333	-1.20000e+01	
			         2.28500	-1.20000e+01	
			         2.28667	-1.20000e+01	
			         2.28833	-1.30000e+01	
			         2.29000	-1.30000e+01	
			         2.29167	-1.40000e+01	
			         2.29333	-1.40000e+01	
			         2.29500	-1.40000e+01	
			         2.29667	-1.30000e+01	
			         2.29833	-1.30000e+01	
			         2.30000	-1.30000e+01	
			         2.30167	-1.20000e+01	
			         2.30333	-1.20000e+01	
			         2.30500	-1.10000e+01	
			         2.30667	-1.10000e+01	
			         2.30833	-1.00000e+01	
			         2.31000	-1.00000e+01	
			         2.31167	-9.00000e+00	
			         2.31333	-9.00000e+00	
			         2.31500	-9.00000e+00	
			         2.31667	-9.00000e+00	
			         2.31833	-8.00000e+00	
			         2.32000	-8.00000e+00	
			         2.32167	-9.00000e+00	
			         2.32333	-9.00000e+00	
			         2.32500	-1.00000e+01	
			         2.32667	-1.10000e+01	
			         2.32833	-1.20000e+01	
			         2.33000	-1.30000e+01	
			         2.33167	-1.50000e+01	
			         2.33333	-1.70000e+01	
			         2.33500	-1.80000e+01	
			         2.33667	-1.90000e+01	
			         2.33833	-2.00000e+01	
			         2.34000	-2.00000e+01	
			         2.34167	-2.00000e+01	
			         2.34333	-1.80000e+01	
			         2.34500	-1.50000e+01	
			         2.34667	-1.10000e+01	
			         2.34833	-5.00000e+00	
			         2.35000	3.00000e+00	
			         2.35167	1.30000e+01	
			         2.35333	2.40000e+01	
			         2.35500	3.70000e+01	
			         2.35667	5.00000e+01	
			         2.35833	6.50000e+01	
			         2.36000	8.10000e+01	
			         2.36167	9.60000e+01	
			         2.36333	1.11000e+02	
			         2.36500	1.25000e+02	
			         2.36667	1.38000e+02	
			         2.36833	1.48000e+02	
			         2.37000	1.56000e+02	
			         2.37167	1.62000e+02	
			         2.37333	1.65000e+02	
			         2.37500	1.66000e+02	
			         2.37667	1.64000e+02	
			         2.37833	1.60000e+02	
			         2.38000	1.54000e+02	
			         2.38167	1.47000e+02	
			         2.38333	1.38000e+02	
			         2.38500	1.28000e+02	
			         2.38667	1.18000e+02	
			         2.38833	1.08000e+02	
			         2.39000	9.80000e+01	
			         2.39167	8.70000e+01	
			         2.39333	7.80000e+01	
			         2.39500	6.80000e+01	
			         2.39667	5.90000e+01	
			         2.39833	4.90000e+01	
			         2.40000	4.10000e+01	
			         2.40167	3.20000e+01	
			         2.40333	2.40000e+01	
			         2.40500	1.60000e+01	
			         2.40667	8.00000e+00	
			         2.40833	1.00000e+00	
			         2.41000	-6.00000e+00	
			         2.41167	-1.30000e+01	
			         2.41333	-1.90000e+01	
			         2.41500	-2.40000e+01	
			         2.41667	-2.90000e+01	
			         2.41833	-3.30000e+01	
			         2.42000	-3.70000e+01	
			         2.42167	-4.00000e+01	
			         2.42333	-4.20000e+01	
			         2.42500	-4.40000e+01	
			         2.42667	-4.50000e+01	
			         2.42833	-4.50000e+01	
			         2.43000	-4.50000e+01	
			         2.43167	-4.50000e+01	
			         2.43333	-4.50000e+01	
			         2.43500	-4.50000e+01	
			         2.43667	-4.50000e+01	
			         2.43833	-4.50000e+01	
			         2.44000	-4.40000e+01	
			         2.44167	-4.40000e+01	
			         2.44333	-4.40000e+01	
			         2.44500	-4.40000e+01	
			         2.44667	-4.30000e+01	
			         2.44833	-4.20000e+01	
			         2.45000	-4.20000e+01	
			         2.45167	-4.10000e+01	
			         2.45333	-4.00000e+01	
			         2.45500	-3.90000e+01	
			         2.45667	-3.80000e+01	
			         2.45833	-3.70000e+01	
			         2.46000	-3.60000e+01	
			         2.46167	-3.50000e+01	
			         2.46333	-3.40000e+01	
			         2.46500	-3.40000e+01	
			         2.46667	-3.40000e+01	
			         2.46833	-3.40000e+01	
			         2.47000	-3.30000e+01	
			         2.47167	-3.30000e+01	
			         2.47333	-3.30000e+01	
			         2.47500	-3.20000e+01	
			         2.47667	-3.10000e+01	
			         2.47833	-3.00000e+01	
			         2.48000	-2.90000e+01	
			         2.48167	-2.70000e+01	
			         2.48333	-2.60000e+01	
			         2.48500	-2.50000e+01	
			         2.48667	-2.30000e+01	
			         2.48833	-2.20000e+01	
			         2.49000	-2.10000e+01	
			         2.49167	-2.00000e+01	
			         2.49333	-1.90000e+01	
			         2.49500	-1.80000e+01	
			         2.49667	-1.70000e+01	
			         2.49833	-1.60000e+01	
			         2.50000	-1.60000e+01	
			         2.50167	-1.50000e+01	
			         2.50333	-1.50000e+01	
			         2.50500	-1.40000e+01	
			         2.50667	-1.40000e+01	
			         2.50833	-1.30000e+01	
			         2.51000	-1.30000e+01	
			         2.51167	-1.30000e+01	
			         2.51333	-1.20000e+01	
			         2.51500	-1.20000e+01	
			         2.51667	-1.20000e+01	
			         2.51833	-1.20000e+01	
			         2.52000	-1.20000e+01	
			         2.52167	-1.20000e+01	
			         2.52333	-1.20000e+01	
			         2.52500	-1.20000e+01	
			         2.52667	-1.10000e+01	
			         2.52833	-1.10000e+01	
			         2.53000	-1.10000e+01	
			         2.53167	-1.00000e+01	
			         2.53333	-1.00000e+01	
			         2.53500	-9.00000e+00	
			         2.53667	-9.00000e+00	
			         2.53833	-8.00000e+00	
			         2.54000	-7.00000e+00	
			         2.54167	-7.00000e+00	
			         2.54333	-6.00000e+00	
			         2.54500	-5.00000e+00	
			         2.54667	-4.00000e+00	
			         2.54833	-3.00000e+00	
			         2.55000	-2.00000e+00	
			         2.55167	-2.00000e+00	
			         2.55333	-1.00000e+00	
			         2.55500	0.00000e+00	
			         2.55667	1.00000e+00	
			         2.55833	2.00000e+00	
			         2.56000	3.00000e+00	
			         2.56167	3.00000e+00	
			         2.56333	3.00000e+00	
			         2.56500	2.00000e+00	
			         2.56667	2.00000e+00	
			         2.56833	1.00000e+00	
			         2.57000	0.00000e+00	
			         2.57167	-1.00000e+00	
			         2.57333	-2.00000e+00	
			         2.57500	-3.00000e+00	
			         2.57667	-4.00000e+00	
			         2.57833	-5.00000e+00	
			         2.58000	-5.00000e+00	
			         2.58167	-6.00000e+00	
			         2.58333	-5.00000e+00	
			         2.58500	-5.00000e+00	
			         2.58667	-4.00000e+00	
			         2.58833	-3.00000e+00	
			         2.59000	-1.00000e+00	
			         2.59167	0.00000e+00	
			         2.59333	2.00000e+00	
			         2.59500	3.00000e+00	
			         2.59667	5.00000e+00	
			         2.59833	6.00000e+00	
			         2.60000	8.00000e+00	
			         2.60167	9.00000e+00	
			         2.60333	1.10000e+01	
			         2.60500	1.20000e+01	
			         2.60667	1.30000e+01	
			         2.60833	1.40000e+01	
			         2.61000	1.50000e+01	
			         2.61167	1.50000e+01	
			         2.61333	1.60000e+01	
			         2.61500	1.60000e+01	
			         2.61667	1.60000e+01	
			         2.61833	1.60000e+01	
			         2.62000	1.60000e+01	
			         2.62167	1.60000e+01	
			         2.62333	1.60000e+01	
			         2.62500	1.60000e+01	
			         2.62667	1.70000e+01	
			         2.62833	1.70000e+01	
			         2.63000	1.80000e+01	
			         2.63167	1.90000e+01	
			         2.63333	2.10000e+01	
			         2.63500	2.30000e+01	
			         2.63667	2.50000e+01	
			         2.63833	2.70000e+01	
			         2.64000	2.90000e+01	
			         2.64167	3.10000e+01	
			         2.64333	3.30000e+01	
			         2.64500	3.50000e+01	
			         2.64667	3.70000e+01	
			         2.64833	3.90000e+01	
			         2.65000	4.00000e+01	
			         2.65167	4.20000e+01	
			         2.65333	4.30000e+01	
			         2.65500	4.40000e+01	
			         2.65667	4.50000e+01	
			         2.65833	4.50000e+01	
			         2.66000	4.60000e+01	
			         2.66167	4.60000e+01	
			         2.66333	4.60000e+01	
			         2.66500	4.60000e+01	
			         2.66667	4.50000e+01	
			         2.66833	4.50000e+01	
			         2.67000	4.40000e+01	
			         2.67167	4.30000e+01	
			         2.67333	4.30000e+01	
			         2.67500	4.20000e+01	
			         2.67667	4.10000e+01	
			         2.67833	4.00000e+01	
			         2.68000	4.00000e+01	
			         2.68167	3.90000e+01	
			         2.68333	3.80000e+01	
			         2.68500	3.70000e+01	
			         2.68667	3.60000e+01	
			         2.68833	3.40000e+01	
			         2.69000	3.30000e+01	
			         2.69167	3.10000e+01	
			         2.69333	3.00000e+01	
			         2.69500	2.80000e+01	
			         2.69667	2.60000e+01	
			         2.69833	2.40000e+01	
			         2.70000	2.30000e+01	
			         2.70167	2.00000e+01	
			         2.70333	1.80000e+01	
			         2.70500	1.60000e+01	
			         2.70667	1.30000e+01	
			         2.70833	1.00000e+01	
			         2.71000	8.00000e+00	
			         2.71167	5.00000e+00	
			         2.71333	2.00000e+00	
			         2.71500	-1.00000e+00	
			         2.71667	-4.00000e+00	
			         2.71833	-7.00000e+00	
			         2.72000	-1.00000e+01	
			         2.72167	-1.30000e+01	
			         2.72333	-1.50000e+01	
			         2.72500	-1.80000e+01	
			         2.72667	-2.00000e+01	
			         2.72833	-2.20000e+01	
			         2.73000	-2.40000e+01	
			         2.73167	-2.60000e+01	
			         2.73333	-2.80000e+01	
			         2.73500	-3.00000e+01	
			         2.73667	-3.10000e+01	
			         2.73833	-3.20000e+01	
			         2.74000	-3.30000e+01	
			         2.74167	-3.40000e+01	
			         2.74333	-3.50000e+01	
			         2.74500	-3.50000e+01	
			         2.74667	-3.60000e+01	
			         2.74833	-3.60000e+01	
			         2.75000	-3.60000e+01	
			         2.75167	-3.60000e+01	
			         2.75333	-3.50000e+01	
			         2.75500	-3.50000e+01	
			         2.75667	-3.40000e+01	
			         2.75833	-3.40000e+01	
			         2.76000	-3.30000e+01	
			         2.76167	-3.20000e+01	
			         2.76333	-3.20000e+01	
			         2.76500	-3.10000e+01	
			         2.76667	-3.10000e+01	
			         2.76833	-3.00000e+01	
			         2.77000	-3.00000e+01	
			         2.77167	-3.00000e+01	
			         2.77333	-2.90000e+01	
			         2.77500	-2.90000e+01	
			         2.77667	-2.90000e+01	
			         2.77833	-3.00000e+01	
			         2.78000	-3.00000e+01	
			         2.78167	-3.00000e+01	
			         2.78333	-3.00000e+01	
			         2.78500	-3.00000e+01	
			         2.78667	-3.10000e+01	
			         2.78833	-3.10000e+01	
			         2.79000	-3.20000e+01	
			         2.79167	-3.20000e+01	
			         2.79333	-3.30000e+01	
			         2.79500	-3.30000e+01	
			         2.79667	-3.40000e+01	
			         2.79833	-3.40000e+01	
			         2.80000	-3.40000e+01	
			         2.80167	-3.40000e+01	
			         2.80333	-3.40000e+01	
			         2.80500	-3.40000e+01	
			         2.80667	-3.30000e+01	
			         2.80833	-3.30000e+01	
			         2.81000	-3.20000e+01	
			         2.81167	-3.10000e+01	
			         2.81333	-3.00000e+01	
			         2.81500	-2.90000e+01	
			         2.81667	-2.70000e+01	
			         2.81833	-2.60000e+01	
			         2.82000	-2.50000e+01	
			         2.82167	-2.40000e+01	
			         2.82333	-2.30000e+01	
			         2.82500	-2.30000e+01	
			         2.82667	-2.20000e+01	
			         2.82833	-2.10000e+01	
			         2.83000	-2.10000e+01	
			         2.83167	-2.00000e+01	
			         2.83333	-2.00000e+01	
			         2.83500	-1.90000e+01	
			         2.83667	-1.90000e+01	
			         2.83833	-1.90000e+01	
			         2.84000	-1.80000e+01	
			         2.84167	-1.80000e+01	
			         2.84333	-1.70000e+01	
			         2.84500	-1.60000e+01	
			         2.84667	-1.60000e+01	
			         2.84833	-1.50000e+01	
			         2.85000	-1.50000e+01	
			         2.85167	-1.40000e+01	
			         2.85333	-1.40000e+01	
			         2.85500	-1.30000e+01	
			         2.85667	-1.30000e+01	
			         2.85833	-1.20000e+01	
			         2.86000	-1.20000e+01	
			         2.86167	-1.10000e+01	
			         2.86333	-1.10000e+01	
			         2.86500	-1.00000e+01	
			         2.86667	-1.00000e+01	
			         2.86833	-1.00000e+01	
			         2.87000	-9.00000e+00	
			         2.87167	-9.00000e+00	
			         2.87333	-8.00000e+00	
			         2.87500	-7.00000e+00	
			         2.87667	-7.00000e+00	
			         2.87833	-6.00000e+00	
			         2.88000	-6.00000e+00	
			         2.88167	-5.00000e+00	
			         2.88333	-5.00000e+00	
			         2.88500	-4.00000e+00	
			         2.88667	-4.00000e+00	
			         2.88833	-4.00000e+00	
			         2.89000	-3.00000e+00	
			         2.89167	-3.00000e+00	
			         2.89333	-3.00000e+00	
			         2.89500	-2.00000e+00	
			         2.89667	-2.00000e+00	
			         2.89833	-2.00000e+00	
			         2.90000	-2.00000e+00	
			         2.90167	-1.00000e+00	
			         2.90333	-1.00000e+00	
			         2.90500	-1.00000e+00	
			         2.90667	0.00000e+00	
			         2.90833	0.00000e+00	
			         2.91000	0.00000e+00	
			         2.91167	0.00000e+00	
			         2.91333	1.00000e+00	
			         2.91500	1.00000e+00	
			         2.91667	1.00000e+00	
			         2.91833	0.00000e+00	
			         2.92000	0.00000e+00	
			         2.92167	0.00000e+00	
			         2.92333	0.00000e+00	
			         2.92500	0.00000e+00	
			         2.92667	0.00000e+00	
			         2.92833	0.00000e+00	
			         2.93000	0.00000e+00	
			         2.93167	0.00000e+00	
			         2.93333	0.00000e+00	
			         2.93500	0.00000e+00	
			         2.93667	0.00000e+00	
			         2.93833	1.00000e+00	
			         2.94000	1.00000e+00	
			         2.94167	2.00000e+00	
			         2.94333	3.00000e+00	
			         2.94500	3.00000e+00	
			         2.94667	4.00000e+00	
			         2.94833	4.00000e+00	
			         2.95000	4.00000e+00	
			         2.95167	5.00000e+00	
			         2.95333	5.00000e+00	
			         2.95500	5.00000e+00	
			         2.95667	5.00000e+00	
			         2.95833	4.00000e+00	
			         2.96000	4.00000e+00	
			         2.96167	3.00000e+00	
			         2.96333	2.00000e+00	
			         2.96500	1.00000e+00	
			         2.96667	0.00000e+00	
			         2.96833	-1.00000e+00	
			         2.97000	-2.00000e+00	
			         2.97167	-2.00000e+00	
			         2.97333	-3.00000e+00	
			         2.97500	-3.00000e+00	
			         2.97667	-3.00000e+00	
			         2.97833	-3.00000e+00	
			         2.98000	-3.00000e+00	
			         2.98167	-3.00000e+00	
			         2.98333	-2.00000e+00	
			         2.98500	-2.00000e+00	
			         2.98667	-2.00000e+00	
			         2.98833	-2.00000e+00	
			         2.99000	-2.00000e+00	
			         2.99167	-3.00000e+00	
			         2.99333	-3.00000e+00	
			         2.99500	-4.00000e+00	
			         2.99667	-4.00000e+00	
			         2.99833	-5.00000e+00	
			         3.00000	-5.00000e+00	
			         3.00167	-6.00000e+00	
			         3.00333	-6.00000e+00	
			         3.00500	-7.00000e+00	
			         3.00667	-7.00000e+00	
			         3.00833	-7.00000e+00	
			         3.01000	-7.00000e+00	
			         3.01167	-6.00000e+00	
			         3.01333	-6.00000e+00	
			         3.01500	-6.00000e+00	
			         3.01667	-5.00000e+00	
			         3.01833	-4.00000e+00	
			         3.02000	-4.00000e+00	
			         3.02167	-3.00000e+00	
			         3.02333	-3.00000e+00	
			         3.02500	-2.00000e+00	
			         3.02667	-2.00000e+00	
			         3.02833	-1.00000e+00	
			         3.03000	-1.00000e+00	
			         3.03167	-1.00000e+00	
			         3.03333	0.00000e+00	
			         3.03500	0.00000e+00	
			         3.03667	0.00000e+00	
			         3.03833	0.00000e+00	
			         3.04000	0.00000e+00	
			         3.04167	0.00000e+00	
			         3.04333	0.00000e+00	
			         3.04500	0.00000e+00	
			         3.04667	0.00000e+00	
			         3.04833	0.00000e+00	
			         3.05000	0.00000e+00	
			         3.05167	0.00000e+00	
			         3.05333	0.00000e+00	
			         3.05500	-1.00000e+00	
			         3.05667	-1.00000e+00	
			         3.05833	-1.00000e+00	
			         3.06000	-1.00000e+00	
			         3.06167	-1.00000e+00	
			         3.06333	-1.00000e+00	
			         3.06500	0.00000e+00	
			         3.06667	0.00000e+00	
			         3.06833	1.00000e+00	
			         3.07000	1.00000e+00	
			         3.07167	2.00000e+00	
			         3.07333	3.00000e+00	
			         3.07500	3.00000e+00	
			         3.07667	4.00000e+00	
			         3.07833	4.00000e+00	
			         3.08000	4.00000e+00	
			         3.08167	4.00000e+00	
			         3.08333	4.00000e+00	
			         3.08500	3.00000e+00	
			         3.08667	3.00000e+00	
			         3.08833	2.00000e+00	
			         3.09000	0.00000e+00	
			         3.09167	-1.00000e+00	
			         3.09333	-2.00000e+00	
			         3.09500	-3.00000e+00	
			         3.09667	-4.00000e+00	
			         3.09833	-4.00000e+00	
			         3.10000	-5.00000e+00	
			         3.10167	-5.00000e+00	
			         3.10333	-5.00000e+00	
			         3.10500	-4.00000e+00	
			         3.10667	-4.00000e+00	
			         3.10833	-3.00000e+00	
			         3.11000	-2.00000e+00	
			         3.11167	-1.00000e+00	
			         3.11333	-1.00000e+00	
			         3.11500	-1.00000e+00	
			         3.11667	0.00000e+00	
			         3.11833	0.00000e+00	
			         3.12000	0.00000e+00	
			         3.12167	-1.00000e+00	
			         3.12333	-1.00000e+00	
			         3.12500	-2.00000e+00	
			         3.12667	-3.00000e+00	
			         3.12833	-4.00000e+00	
			         3.13000	-4.00000e+00	
			         3.13167	-5.00000e+00	
			         3.13333	-5.00000e+00	
			         3.13500	-5.00000e+00	
			         3.13667	-5.00000e+00	
			         3.13833	-5.00000e+00	
			         3.14000	-5.00000e+00	
			         3.14167	-5.00000e+00	
			         3.14333	-4.00000e+00	
			         3.14500	-4.00000e+00	
			         3.14667	-4.00000e+00	
			         3.14833	-4.00000e+00	
			         3.15000	-3.00000e+00	
			         3.15167	-3.00000e+00	
			         3.15333	-3.00000e+00	
			         3.15500	-3.00000e+00	
			         3.15667	-3.00000e+00	
			         3.15833	-2.00000e+00	
			         3.16000	-2.00000e+00	
			         3.16167	-1.00000e+00	
			         3.16333	-1.00000e+00	
			         3.16500	0.00000e+00	
			         3.16667	0.00000e+00	
			         3.16833	0.00000e+00	
			         3.17000	1.00000e+00	
			         3.17167	1.00000e+00	
			         3.17333	2.00000e+00	
			         3.17500	2.00000e+00	
			         3.17667	3.00000e+00	
			         3.17833	3.00000e+00	
			         3.18000	3.00000e+00	
			         3.18167	3.00000e+00	
			         3.18333	3.00000e+00	
			         3.18500	4.00000e+00	
			         3.18667	4.00000e+00	
			         3.18833	4.00000e+00	
			         3.19000	4.00000e+00	
			         3.19167	4.00000e+00	
			         3.19333	4.00000e+00	
			         3.19500	4.00000e+00	
			         3.19667	4.00000e+00	
			         3.19833	4.00000e+00	
			         3.20000	5.00000e+00	
			         3.20167	5.00000e+00	
			         3.20333	5.00000e+00	
			         3.20500	5.00000e+00	
			         3.20667	5.00000e+00	
			         3.20833	5.00000e+00	
			         3.21000	6.00000e+00	
			         3.21167	6.00000e+00	
			         3.21333	6.00000e+00	
			         3.21500	6.00000e+00	
			         3.21667	6.00000e+00	
			         3.21833	5.00000e+00	
			         3.22000	5.00000e+00	
			         3.22167	4.00000e+00	
			         3.22333	3.00000e+00	
			         3.22500	2.00000e+00	
			         3.22667	1.00000e+00	
			         3.22833	-1.00000e+00	
			         3.23000	-2.00000e+00	
			         3.23167	-3.00000e+00	
			         3.23333	-4.00000e+00	
			         3.23500	-4.00000e+00	
			         3.23667	-5.00000e+00	
			         3.23833	-5.00000e+00	
			         3.24000	-5.00000e+00	
			         3.24167	-5.00000e+00	
			         3.24333	-4.00000e+00	
			         3.24500	-4.00000e+00	
			         3.24667	-4.00000e+00	
			         3.24833	-3.00000e+00	
			         3.25000	-3.00000e+00	
			         3.25167	-2.00000e+00	
			         3.25333	-2.00000e+00	
			         3.25500	-2.00000e+00	
			         3.25667	-1.00000e+00	
			         3.25833	-1.00000e+00	
			         3.26000	-2.00000e+00	
			         3.26167	-2.00000e+00	
			         3.26333	-2.00000e+00	
			         3.26500	-2.00000e+00	
			         3.26667	-2.00000e+00	
			         3.26833	-3.00000e+00	
			         3.27000	-3.00000e+00	
			         3.27167	-3.00000e+00	
			         3.27333	-3.00000e+00	
			         3.27500	-3.00000e+00	
			         3.27667	-3.00000e+00	
			         3.27833	-3.00000e+00	
			         3.28000	-3.00000e+00	
			         3.28167	-3.00000e+00	
			         3.28333	-3.00000e+00	
			         3.28500	-2.00000e+00	
			         3.28667	-2.00000e+00	
			         3.28833	-1.00000e+00	
			         3.29000	-1.00000e+00	
			         3.29167	0.00000e+00	
			         3.29333	1.00000e+00	
			         3.29500	2.00000e+00	
			         3.29667	3.00000e+00	
			         3.29833	4.00000e+00	
			         3.30000	4.00000e+00	
			         3.30167	5.00000e+00	
			         3.30333	6.00000e+00	
			         3.30500	6.00000e+00	
			         3.30667	7.00000e+00	
			         3.30833	7.00000e+00	
			         3.31000	8.00000e+00	
			         3.31167	8.00000e+00	
			         3.31333	9.00000e+00	
			         3.31500	9.00000e+00	
			         3.31667	9.00000e+00	
			         3.31833	1.00000e+01	
			         3.32000	1.00000e+01	
			         3.32167	1.10000e+01	
			         3.32333	1.10000e+01	
			         3.32500	1.20000e+01	
			         3.32667	1.30000e+01	
			         3.32833	1.30000e+01	
			         3.33000	1.40000e+01	
			         3.33167	1.50000e+01	
			         3.33333	1.70000e+01	
			         3.33500	1.80000e+01	
			         3.33667	1.90000e+01	
			         3.33833	2.10000e+01	
			         3.34000	2.20000e+01	
			         3.34167	2.40000e+01	
			         3.34333	2.50000e+01	
			         3.34500	2.60000e+01	
			         3.34667	2.60000e+01	
			         3.34833	2.70000e+01	
			         3.35000	2.60000e+01	
			         3.35167	2.60000e+01	
			         3.35333	2.50000e+01	
			         3.35500	2.40000e+01	
			         3.35667	2.20000e+01	
			         3.35833	2.10000e+01	
			         3.36000	1.90000e+01	
			         3.36167	1.80000e+01	
			         3.36333	1.60000e+01	
			         3.36500	1.50000e+01	
			         3.36667	1.30000e+01	
			         3.36833	1.20000e+01	
			         3.37000	1.10000e+01	
			         3.37167	1.00000e+01	
			         3.37333	9.00000e+00	
			         3.37500	8.00000e+00	
			         3.37667	7.00000e+00	
			         3.37833	6.00000e+00	
			         3.38000	5.00000e+00	
			         3.38167	3.00000e+00	
			         3.38333	2.00000e+00	
			         3.38500	0.00000e+00	
			         3.38667	-2.00000e+00	
			         3.38833	-3.00000e+00	
			         3.39000	-5.00000e+00	
			         3.39167	-6.00000e+00	
			         3.39333	-8.00000e+00	
			         3.39500	-9.00000e+00	
			         3.39667	-1.00000e+01	
			         3.39833	-1.00000e+01	
			         3.40000	-1.10000e+01	
			         3.40167	-1.10000e+01	
			         3.40333	-1.10000e+01	
			         3.40500	-1.10000e+01	
			         3.40667	-1.00000e+01	
			         3.40833	-1.00000e+01	
			         3.41000	-1.10000e+01	
			         3.41167	-1.10000e+01	
			         3.41333	-1.10000e+01	
			         3.41500	-1.20000e+01	
			         3.41667	-1.20000e+01	
			         3.41833	-1.30000e+01	
			         3.42000	-1.30000e+01	
			         3.42167	-1.40000e+01	
			         3.42333	-1.40000e+01	
			         3.42500	-1.40000e+01	
			         3.42667	-1.40000e+01	
			         3.42833	-1.30000e+01	
			         3.43000	-1.30000e+01	
			         3.43167	-1.20000e+01	
			         3.43333	-1.10000e+01	
			         3.43500	-1.10000e+01	
			         3.43667	-1.00000e+01	
			         3.43833	-1.00000e+01	
			         3.44000	-9.00000e+00	
			         3.44167	-9.00000e+00	
			         3.44333	-8.00000e+00	
			         3.44500	-8.00000e+00	
			         3.44667	-7.00000e+00	
			         3.44833	-7.00000e+00	
			         3.45000	-6.00000e+00	
			         3.45167	-6.00000e+00	
			         3.45333	-6.00000e+00	
			         3.45500	-5.00000e+00	
			         3.45667	-5.00000e+00	
			         3.45833	-6.00000e+00	
			         3.46000	-6.00000e+00	
			         3.46167	-6.00000e+00	
			         3.46333	-7.00000e+00	
			         3.46500	-8.00000e+00	
			         3.46667	-9.00000e+00	
			         3.46833	-1.00000e+01	
			         3.47000	-1.10000e+01	
			         3.47167	-1.20000e+01	
			         3.47333	-1.30000e+01	
			         3.47500	-1.40000e+01	
			         3.47667	-1.50000e+01	
			         3.47833	-1.70000e+01	
			         3.48000	-1.80000e+01	
			         3.48167	-1.90000e+01	
			         3.48333	-1.90000e+01	
			         3.48500	-2.00000e+01	
			         3.48667	-2.00000e+01	
			         3.48833	-1.90000e+01	
			         3.49000	-1.80000e+01	
			         3.49167	-1.60000e+01	
			         3.49333	-1.30000e+01	
			         3.49500	-9.00000e+00	
			         3.49667	-3.00000e+00	
			         3.49833	4.00000e+00	
			         3.50000	1.30000e+01	
			         3.50167	2.30000e+01	
			         3.50333	3.40000e+01	
			         3.50500	4.70000e+01	
			         3.50667	6.10000e+01	
			         3.50833	7.60000e+01	
			         3.51000	9.00000e+01	
			         3.51167	1.05000e+02	
			         3.51333	1.19000e+02	
			         3.51500	1.31000e+02	
			         3.51667	1.42000e+02	
			         3.51833	1.50000e+02	
			         3.52000	1.57000e+02	
			         3.52167	1.61000e+02	
			         3.52333	1.62000e+02	
			         3.52500	1.61000e+02	
			         3.52667	1.58000e+02	
			         3.52833	1.53000e+02	
			         3.53000	1.45000e+02	
			         3.53167	1.37000e+02	
			         3.53333	1.27000e+02	
			         3.53500	1.17000e+02	
			         3.53667	1.06000e+02	
			         3.53833	9.50000e+01	
			         3.54000	8.40000e+01	
			         3.54167	7.40000e+01	
			         3.54333	6.40000e+01	
			         3.54500	5.40000e+01	
			         3.54667	4.50000e+01	
			         3.54833	3.70000e+01	
			         3.55000	2.90000e+01	
			         3.55167	2.20000e+01	
			         3.55333	1.50000e+01	
			         3.55500	9.00000e+00	
			         3.55667	2.00000e+00	
			         3.55833	-4.00000e+00	
			         3.56000	-9.00000e+00	
			         3.56167	-1.50000e+01	
			         3.56333	-2.10000e+01	
			         3.56500	-2.60000e+01	
			         3.56667	-3.10000e+01	
