Velocity (TVI), in cm/s

Time (s) :	Trace 1 : 		Ecg : 		
0.01719   	-2.91719e+00		         0.00000	-1.00000e+01	
0.02306   	-2.76244e+00		         0.00167	-1.00000e+01	
0.02893   	-2.99068e+00		         0.00333	-1.00000e+01	
0.03480   	-2.65198e+00		         0.00500	-1.00000e+01	
0.04067   	-2.58072e+00		         0.00667	-9.00000e+00	
0.04653   	-2.56892e+00		         0.00833	-6.00000e+00	
0.05240   	-4.54866e+00		         0.01000	-3.00000e+00	
0.05827   	-3.98585e+00		         0.01167	2.00000e+00	
0.06414   	-3.91671e+00		         0.01333	9.00000e+00	
0.07001   	-4.12531e+00		         0.01500	1.70000e+01	
0.07588   	-4.06559e+00		         0.01667	2.80000e+01	
0.08174   	-2.04600e+00		         0.01833	4.10000e+01	
0.08761   	-1.74273e+00		         0.02000	5.50000e+01	
0.09348   	-1.27262e+00		         0.02167	7.10000e+01	
0.09935   	-2.61524e-01		         0.02333	8.80000e+01	
0.10522   	6.53439e-01		         0.02500	1.06000e+02	
0.11109   	1.77442e+00		         0.02667	1.24000e+02	
0.11696   	2.31965e+00		         0.02833	1.41000e+02	
0.12283   	2.68780e+00		         0.03000	1.57000e+02	
0.12869   	2.91713e+00		         0.03167	1.71000e+02	
0.13456   	3.15103e+00		         0.03333	1.82000e+02	
0.14043   	3.19745e+00		         0.03500	1.90000e+02	
0.14630   	3.33352e+00		         0.03667	1.95000e+02	
0.15217   	3.52977e+00		         0.03833	1.97000e+02	
0.15803   	3.69398e+00		         0.04000	1.95000e+02	
0.16391   	3.77455e+00		         0.04167	1.90000e+02	
0.16977   	3.76757e+00		         0.04333	1.81000e+02	
0.17564   	3.70680e+00		         0.04500	1.70000e+02	
0.18151   	3.71666e+00		         0.04667	1.57000e+02	
0.18738   	3.77484e+00		         0.04833	1.42000e+02	
0.19337   	3.81480e+00		         0.05000	1.26000e+02	
0.19912   	3.88797e+00		         0.05167	1.09000e+02	
0.20498   	3.95448e+00		         0.05333	9.30000e+01	
0.21085   	3.92167e+00		         0.05500	7.60000e+01	
0.21672   	3.88247e+00		         0.05667	6.00000e+01	
0.22259   	3.79974e+00		         0.05833	4.50000e+01	
0.22846   	3.72906e+00		         0.06000	3.10000e+01	
0.23433   	3.67057e+00		         0.06167	1.70000e+01	
0.24020   	3.66370e+00		         0.06333	5.00000e+00	
0.24606   	3.67953e+00		         0.06500	-6.00000e+00	
0.25193   	3.64063e+00		         0.06667	-1.60000e+01	
0.25780   	3.63027e+00		         0.06833	-2.50000e+01	
0.26367   	3.65402e+00		         0.07000	-3.30000e+01	
0.26954   	3.60878e+00		         0.07167	-3.90000e+01	
0.27540   	3.56865e+00		         0.07333	-4.50000e+01	
0.28128   	3.54309e+00		         0.07500	-4.90000e+01	
0.28715   	3.36643e+00		         0.07667	-5.30000e+01	
0.29301   	3.26167e+00		         0.07833	-5.50000e+01	
0.29888   	3.15580e+00		         0.08000	-5.70000e+01	
0.30475   	3.02254e+00		         0.08167	-5.80000e+01	
0.31062   	2.88840e+00		         0.08333	-5.90000e+01	
0.31649   	2.83090e+00		         0.08500	-6.00000e+01	
0.32236   	2.71079e+00		         0.08667	-6.00000e+01	
0.32822   	2.54910e+00		         0.08833	-5.90000e+01	
0.33410   	2.45777e+00		         0.09000	-5.90000e+01	
0.33996   	2.35292e+00		         0.09167	-5.80000e+01	
0.34583   	2.28933e+00		         0.09333	-5.70000e+01	
0.35170   	2.22524e+00		         0.09500	-5.60000e+01	
0.35757   	2.16076e+00		         0.09667	-5.50000e+01	
0.36344   	1.93925e+00		         0.09833	-5.40000e+01	
0.36931   	1.82765e+00		         0.10000	-5.30000e+01	
0.37517   	1.67260e+00		         0.10167	-5.20000e+01	
0.38104   	1.40907e+00		         0.10333	-5.10000e+01	
0.38691   	1.21736e+00		         0.10500	-5.00000e+01	
0.39282   	9.83156e-01		         0.10667	-4.80000e+01	
0.39865   	5.55720e-01		         0.10833	-4.70000e+01	
0.40452   	5.27916e-02		         0.11000	-4.60000e+01	
0.41038   	-3.82274e-01		         0.11167	-4.50000e+01	
0.41625   	-8.33797e-01		         0.11333	-4.40000e+01	
0.42212   	-1.38236e+00		         0.11500	-4.30000e+01	
0.42799   	-1.02444e+00		         0.11667	-4.20000e+01	
0.43386   	-5.91757e-01		         0.11833	-4.10000e+01	
0.43973   	-1.18695e-01		         0.12000	-4.10000e+01	
0.44560   	3.19361e-01		         0.12167	-4.00000e+01	
0.45147   	1.16826e+00		         0.12333	-3.90000e+01	
0.45733   	1.31643e+00		         0.12500	-3.90000e+01	
0.46321   	1.54650e+00		         0.12667	-3.80000e+01	
0.46907   	1.65395e+00		         0.12833	-3.80000e+01	
0.47494   	1.85111e+00		         0.13000	-3.70000e+01	
0.48081   	1.88263e+00		         0.13167	-3.70000e+01	
0.48668   	2.08529e+00		         0.13333	-3.60000e+01	
0.49254   	1.55767e+00		         0.13500	-3.50000e+01	
0.49842   	1.47040e+00		         0.13667	-3.40000e+01	
0.50428   	1.56832e-01		         0.13833	-3.40000e+01	
0.51015   	-1.02810e+00		         0.14000	-3.30000e+01	
0.51602   	-3.04564e+00		         0.14167	-3.20000e+01	
0.52189   	-3.81836e+00		         0.14333	-3.10000e+01	
0.52776   	-5.01657e+00		         0.14500	-3.00000e+01	
0.53363   	-5.10478e+00		         0.14667	-2.90000e+01	
0.53949   	-5.25947e+00		         0.14833	-2.80000e+01	
0.54537   	-4.80071e+00		         0.15000	-2.70000e+01	
0.55123   	-4.81337e+00		         0.15167	-2.70000e+01	
0.55710   	-4.74395e+00		         0.15333	-2.60000e+01	
0.56297   	-4.46913e+00		         0.15500	-2.50000e+01	
0.56884   	-4.32135e+00		         0.15667	-2.50000e+01	
0.57470   	-4.13479e+00		         0.15833	-2.40000e+01	
0.58057   	-3.85119e+00		         0.16000	-2.40000e+01	
0.58644   	-3.63172e+00		         0.16167	-2.40000e+01	
0.59231   	-3.43715e+00		         0.16333	-2.30000e+01	
0.59818   	-3.10889e+00		         0.16500	-2.30000e+01	
0.60405   	-2.80325e+00		         0.16667	-2.20000e+01	
0.60992   	-2.60309e+00		         0.16833	-2.10000e+01	
0.61579   	-2.33779e+00		         0.17000	-2.10000e+01	
0.62166   	-2.18728e+00		         0.17167	-2.00000e+01	
0.62752   	-2.03433e+00		         0.17333	-1.90000e+01	
0.63339   	-1.87211e+00		         0.17500	-1.80000e+01	
0.63926   	-1.78942e+00		         0.17667	-1.70000e+01	
0.64513   	-1.73506e+00		         0.17833	-1.60000e+01	
0.65100   	-1.77065e+00		         0.18000	-1.50000e+01	
0.65686   	-1.82862e+00		         0.18167	-1.40000e+01	
0.66273   	-1.85090e+00		         0.18333	-1.40000e+01	
0.66860   	-1.84519e+00		         0.18500	-1.30000e+01	
0.67447   	-1.79193e+00		         0.18667	-1.20000e+01	
0.68034   	-1.46937e+00		         0.18833	-1.10000e+01	
0.68621   	-1.19804e+00		         0.19000	-1.10000e+01	
0.69207   	-9.93668e-01		         0.19167	-1.00000e+01	
0.69794   	-8.17825e-01		         0.19333	-1.00000e+01	
0.70381   	-6.44355e-01		         0.19500	-9.00000e+00	
0.70968   	-5.62760e-01		         0.19667	-9.00000e+00	
0.71555   	-5.59437e-01		         0.19833	-8.00000e+00	
0.72142   	-5.55986e-01		         0.20000	-7.00000e+00	
0.72729   	-6.18423e-01		         0.20167	-7.00000e+00	
0.73316   	-7.01192e-01		         0.20333	-6.00000e+00	
0.73902   	-7.89234e-01		         0.20500	-6.00000e+00	
0.74490   	-9.10923e-01		         0.20667	-5.00000e+00	
0.75076   	-1.16773e+00		         0.20833	-5.00000e+00	
0.75663   	-1.93883e+00		         0.21000	-4.00000e+00	
0.76250   	-2.98826e+00		         0.21167	-4.00000e+00	
0.76837   	-4.40559e+00		         0.21333	-3.00000e+00	
0.77446   	-5.58045e+00		         0.21500	-3.00000e+00	
0.78010   	-6.54406e+00		         0.21667	-2.00000e+00	
0.78598   	-6.88371e+00		         0.21833	-2.00000e+00	
0.79184   	-7.01072e+00		         0.22000	-1.00000e+00	
0.79771   	-6.62485e+00		         0.22167	0.00000e+00	
0.80358   	-6.40635e+00		         0.22333	0.00000e+00	
0.80945   	-6.06980e+00		         0.22500	1.00000e+00	
0.81532   	-5.57826e+00		         0.22667	2.00000e+00	
0.82118   	-5.04086e+00		         0.22833	3.00000e+00	
0.82705   	-4.58575e+00		         0.23000	4.00000e+00	
0.83292   	-4.12699e+00		         0.23167	5.00000e+00	
0.83879   	-3.72940e+00		         0.23333	6.00000e+00	
0.84466   	-3.45446e+00		         0.23500	7.00000e+00	
0.85053   	-3.13690e+00		         0.23667	8.00000e+00	
0.85639   	-2.77452e+00		         0.23833	9.00000e+00	
0.86227   	-2.48441e+00		         0.24000	1.10000e+01	
0.86813   	-2.46943e+00		         0.24167	1.20000e+01	
0.87425   	-2.01733e+00		         0.24333	1.30000e+01	
0.87987   	-2.23215e+00		         0.24500	1.30000e+01	
0.88574   	-2.43674e+00		         0.24667	1.40000e+01	
0.89161   	-1.59730e+00		         0.24833	1.50000e+01	
0.89748   	-1.53643e+00		         0.25000	1.60000e+01	
0.90335   	-1.92977e+00		         0.25167	1.70000e+01	
0.90921   	-1.35745e+00		         0.25333	1.80000e+01	
0.91508   	-7.86280e-01		         0.25500	1.90000e+01	
0.92095   	-9.26243e-01		         0.25667	2.10000e+01	
0.92682   	-1.98164e-02		         0.25833	2.20000e+01	
0.93269   	1.01014e+00		         0.26000	2.30000e+01	
0.93856   	1.91934e+00		         0.26167	2.40000e+01	
0.94443   	2.66981e+00		         0.26333	2.60000e+01	
0.95029   	3.19290e+00		         0.26500	2.70000e+01	
0.95616   	3.58586e+00		         0.26667	2.80000e+01	
0.96203   	3.72534e+00		         0.26833	2.90000e+01	
0.96790   	3.85339e+00		         0.27000	3.00000e+01	
0.97395   	3.99698e+00		         0.27167	3.10000e+01	
0.97964   	3.98719e+00		         0.27333	3.10000e+01	
0.98551   	4.02122e+00		         0.27500	3.20000e+01	
0.99137   	4.17512e+00		         0.27667	3.20000e+01	
0.99725   	4.08857e+00		         0.27833	3.30000e+01	
1.00310   	4.11385e+00		         0.28000	3.30000e+01	
1.00898   	4.19410e+00		         0.28167	3.40000e+01	
1.01485   	4.23785e+00		         0.28333	3.40000e+01	
1.02072   	4.19537e+00		         0.28500	3.50000e+01	
1.02658   	4.27303e+00		         0.28667	3.50000e+01	
1.03246   	4.20124e+00		         0.28833	3.60000e+01	
1.03832   	4.22539e+00		         0.29000	3.60000e+01	
1.04419   	4.23006e+00		         0.29167	3.60000e+01	
1.05006   	4.19172e+00		         0.29333	3.60000e+01	
1.05593   	4.09349e+00		         0.29500	3.70000e+01	
1.06180   	4.01330e+00		         0.29667	3.70000e+01	
1.06766   	3.97865e+00		         0.29833	3.60000e+01	
1.07353   	3.89214e+00		         0.30000	3.60000e+01	
1.07941   	3.84633e+00		         0.30167	3.60000e+01	
1.08527   	3.89940e+00		         0.30333	3.50000e+01	
1.09114   	4.02468e+00		         0.30500	3.40000e+01	
1.09701   	4.01507e+00		         0.30667	3.30000e+01	
1.10288   	4.00717e+00		         0.30833	3.20000e+01	
1.10874   	4.02659e+00		         0.31000	3.20000e+01	
1.11462   	3.89972e+00		         0.31167	3.10000e+01	
1.12048   	3.75677e+00		         0.31333	2.90000e+01	
1.12635   	3.57896e+00		         0.31500	2.80000e+01	
1.13222   	3.49493e+00		         0.31667	2.70000e+01	
1.13809   	3.45654e+00		         0.31833	2.60000e+01	
1.14396   	3.40846e+00		         0.32000	2.40000e+01	
1.14983   	3.32855e+00		         0.32167	2.30000e+01	
1.15569   	3.23648e+00		         0.32333	2.10000e+01	
1.16156   	3.10352e+00		         0.32500	1.90000e+01	
1.16743   	2.87853e+00		         0.32667	1.80000e+01	
1.17330   	2.72699e+00		         0.32833	1.60000e+01	
1.17917   	2.56580e+00		         0.33000	1.40000e+01	
1.18504   	2.41786e+00		         0.33167	1.20000e+01	
1.19091   	2.33568e+00		         0.33333	9.00000e+00	
1.19677   	2.23597e+00		         0.33500	7.00000e+00	
1.20264   	2.05642e+00		         0.33667	5.00000e+00	
1.20851   	1.87040e+00		         0.33833	3.00000e+00	
1.21438   	1.72791e+00		         0.34000	1.00000e+00	
1.22025   	1.41988e+00		         0.34167	-2.00000e+00	
1.22612   	1.06167e+00		         0.34333	-4.00000e+00	
1.23199   	7.22537e-01		         0.34500	-6.00000e+00	
1.23785   	2.49499e-01		         0.34667	-8.00000e+00	
1.24372   	8.17599e-02		         0.34833	-1.00000e+01	
1.24959   	6.54343e-01		         0.35000	-1.20000e+01	
1.25582   	1.30843e+00		         0.35167	-1.40000e+01	
1.26133   	1.77874e+00		         0.35333	-1.50000e+01	
1.26720   	2.18496e+00		         0.35500	-1.60000e+01	
1.27307   	2.49839e+00		         0.35667	-1.80000e+01	
1.27894   	2.30630e+00		         0.35833	-1.90000e+01	
1.28480   	2.29636e+00		         0.36000	-2.00000e+01	
1.29067   	2.50813e+00		         0.36167	-2.10000e+01	
1.29654   	2.84924e+00		         0.36333	-2.10000e+01	
1.30241   	2.96861e+00		         0.36500	-2.20000e+01	
1.30828   	2.47063e+00		         0.36667	-2.30000e+01	
1.31415   	1.75309e+00		         0.36833	-2.30000e+01	
1.32001   	8.04081e-01		         0.37000	-2.40000e+01	
1.32589   	1.71985e-01		         0.37167	-2.40000e+01	
1.33175   	-1.72193e+00		         0.37333	-2.40000e+01	
1.33762   	-2.51059e+00		         0.37500	-2.40000e+01	
1.34349   	-3.38915e+00		         0.37667	-2.40000e+01	
1.34936   	-4.17819e+00		         0.37833	-2.40000e+01	
1.35554   	-4.96862e+00		         0.38000	-2.40000e+01	
1.36109   	-4.51032e+00		         0.38167	-2.30000e+01	
1.36697   	-4.72160e+00		         0.38333	-2.20000e+01	
1.37283   	-4.73541e+00		         0.38500	-2.20000e+01	
1.37870   	-4.53483e+00		         0.38667	-2.10000e+01	
1.38457   	-4.50037e+00		         0.38833	-2.10000e+01	
1.39044   	-4.42159e+00		         0.39000	-2.00000e+01	
1.39631   	-3.99990e+00		         0.39167	-1.90000e+01	
1.40217   	-3.66839e+00		         0.39333	-1.90000e+01	
1.40804   	-3.37713e+00		         0.39500	-1.80000e+01	
1.41391   	-3.14402e+00		         0.39667	-1.80000e+01	
1.41978   	-2.77896e+00		         0.39833	-1.70000e+01	
1.42565   	-2.73149e+00		         0.40000	-1.70000e+01	
1.43152   	-2.42401e+00		         0.40167	-1.70000e+01	
1.43738   	-2.20235e+00		         0.40333	-1.60000e+01	
1.44325   	-1.95513e+00		         0.40500	-1.60000e+01	
1.44912   	-1.80830e+00		         0.40667	-1.50000e+01	
1.45525   	-1.56176e+00		         0.40833	-1.50000e+01	
1.46086   	-1.50840e+00		         0.41000	-1.50000e+01	
1.46673   	-1.21815e+00		         0.41167	-1.40000e+01	
1.47260   	-1.06333e+00		         0.41333	-1.40000e+01	
1.47847   	-1.04293e+00		         0.41500	-1.40000e+01	
1.48434   	-9.58818e-01		         0.41667	-1.40000e+01	
1.49020   	-8.77560e-01		         0.41833	-1.30000e+01	
1.49607   	-8.77759e-01		         0.42000	-1.30000e+01	
1.50194   	-8.28950e-01		         0.42167	-1.30000e+01	
1.50781   	-6.93414e-01		         0.42333	-1.30000e+01	
1.51368   	-5.76073e-01		         0.42500	-1.30000e+01	
1.51954   	-4.39034e-01		         0.42667	-1.30000e+01	
1.52542   	-4.06963e-01		         0.42833	-1.20000e+01	
1.53128   	-3.45715e-01		         0.43000	-1.20000e+01	
1.53715   	-3.15291e-01		         0.43167	-1.20000e+01	
1.54302   	-3.96022e-01		         0.43333	-1.20000e+01	
1.54889   	-5.08268e-01		         0.43500	-1.20000e+01	
1.55476   	-6.18247e-01		         0.43667	-1.20000e+01	
1.56063   	-7.49707e-01		         0.43833	-1.10000e+01	
1.56650   	-8.22666e-01		         0.44000	-1.10000e+01	
1.57236   	-9.85329e-01		         0.44167	-1.10000e+01	
1.57823   	-1.33965e+00		         0.44333	-1.10000e+01	
1.58410   	-1.91173e+00		         0.44500	-1.10000e+01	
1.58997   	-2.97093e+00		         0.44667	-1.00000e+01	
1.59584   	-4.13703e+00		         0.44833	-1.00000e+01	
1.60171   	-5.06744e+00		         0.45000	-1.00000e+01	
1.60757   	-5.85077e+00		         0.45167	-1.00000e+01	
1.61344   	-6.54396e+00		         0.45333	-1.00000e+01	
1.61931   	-6.66672e+00		         0.45500	-1.00000e+01	
1.62518   	-6.65886e+00		         0.45667	-1.00000e+01	
1.63105   	-6.80076e+00		         0.45833	-1.00000e+01	
1.63692   	-6.74505e+00		         0.46000	-1.00000e+01	
1.64279   	-6.38612e+00		         0.46167	-9.00000e+00	
1.64866   	-5.98635e+00		         0.46333	-9.00000e+00	
1.65452   	-5.56620e+00		         0.46500	-9.00000e+00	
1.66039   	-5.03063e+00		         0.46667	-9.00000e+00	
1.66626   	-4.47563e+00		         0.46833	-9.00000e+00	
1.67213   	-4.10311e+00		         0.47000	-9.00000e+00	
1.67800   	-3.58352e+00		         0.47167	-8.00000e+00	
1.68387   	-3.11385e+00		         0.47333	-8.00000e+00	
1.68973   	-2.73166e+00		         0.47500	-8.00000e+00	
1.69560   	-2.48063e+00		         0.47667	-7.00000e+00	
1.70147   	-1.98574e+00		         0.47833	-7.00000e+00	
1.70734   	-1.55530e+00		         0.48000	-6.00000e+00	
1.71321   	-1.27120e+00		         0.48167	-6.00000e+00	
1.71908   	-2.18050e+00		         0.48333	-5.00000e+00	
1.72495   	-3.54295e+00		         0.48500	-5.00000e+00	
1.73081   	-3.24162e+00		         0.48667	-5.00000e+00	
1.73668   	-3.88566e+00		         0.48833	-5.00000e+00	
1.74255   	-4.18518e+00		         0.49000	-4.00000e+00	
1.74842   	-3.19346e+00		         0.49167	-4.00000e+00	
1.75429   	-1.25357e+00		         0.49333	-4.00000e+00	
1.76016   	-1.15040e+00		         0.49500	-4.00000e+00	
1.76603   	2.09391e-02		         0.49667	-4.00000e+00	
1.77189   	1.09621e+00		         0.49833	-4.00000e+00	
1.77776   	2.05216e+00		         0.50000	-4.00000e+00	
1.78363   	2.37997e+00		         0.50167	-4.00000e+00	
1.78950   	2.82727e+00		         0.50333	-4.00000e+00	
1.79537   	2.91104e+00		         0.50500	-5.00000e+00	
1.80124   	2.90620e+00		         0.50667	-5.00000e+00	
1.80710   	3.02038e+00		         0.50833	-6.00000e+00	
1.81298   	3.28824e+00		         0.51000	-6.00000e+00	
1.81884   	3.37951e+00		         0.51167	-7.00000e+00	
1.82471   	3.62310e+00		         0.51333	-7.00000e+00	
1.83058   	3.76745e+00		         0.51500	-7.00000e+00	
1.83645   	3.80342e+00		         0.51667	-8.00000e+00	
1.84232   	3.75974e+00		         0.51833	-8.00000e+00	
1.84819   	3.82494e+00		         0.52000	-8.00000e+00	
1.85405   	3.71338e+00		         0.52167	-8.00000e+00	
1.85993   	3.71995e+00		         0.52333	-8.00000e+00	
1.86579   	3.75220e+00		         0.52500	-8.00000e+00	
1.87166   	3.78924e+00		         0.52667	-8.00000e+00	
1.87753   	3.72731e+00		         0.52833	-8.00000e+00	
1.88340   	3.76930e+00		         0.53000	-8.00000e+00	
1.88926   	3.78487e+00		         0.53167	-7.00000e+00	
1.89514   	3.68284e+00		         0.53333	-7.00000e+00	
1.90101   	3.72766e+00		         0.53500	-6.00000e+00	
1.90688   	3.77415e+00		         0.53667	-6.00000e+00	
1.91274   	3.73960e+00		         0.53833	-5.00000e+00	
1.91861   	3.70770e+00		         0.54000	-5.00000e+00	
1.92448   	3.79629e+00		         0.54167	-5.00000e+00	
1.93035   	3.62859e+00		         0.54333	-4.00000e+00	
1.93647   	3.44854e+00		         0.54500	-4.00000e+00	
1.94208   	3.46034e+00		         0.54667	-3.00000e+00	
1.94795   	3.41454e+00		         0.54833	-3.00000e+00	
1.95382   	3.33418e+00		         0.55000	-2.00000e+00	
1.95969   	3.36569e+00		         0.55167	-2.00000e+00	
1.96556   	3.35146e+00		         0.55333	-1.00000e+00	
1.97143   	3.20505e+00		         0.55500	-1.00000e+00	
1.97730   	3.08168e+00		         0.55667	-1.00000e+00	
1.98316   	2.91337e+00		         0.55833	0.00000e+00	
1.98903   	2.71862e+00		         0.56000	0.00000e+00	
1.99490   	2.65637e+00		         0.56167	0.00000e+00	
2.00077   	2.43847e+00		         0.56333	0.00000e+00	
2.00664   	2.32715e+00		         0.56500	0.00000e+00	
2.01251   	2.22395e+00		         0.56667	0.00000e+00	
2.01837   	2.15304e+00		         0.56833	0.00000e+00	
2.02424   	1.98646e+00		         0.57000	0.00000e+00	
2.03012   	1.99351e+00		         0.57167	0.00000e+00	
2.03629   	1.84769e+00		         0.57333	0.00000e+00	
2.04185   	1.66056e+00		         0.57500	0.00000e+00	
2.04772   	1.50980e+00		         0.57667	0.00000e+00	
2.05359   	1.24154e+00		         0.57833	0.00000e+00	
2.05946   	8.99779e-01		         0.58000	0.00000e+00	
2.06532   	5.30863e-01		         0.58167	0.00000e+00	
2.07119   	1.37829e-01		         0.58333	0.00000e+00	
2.07706   	-4.22035e-01		         0.58500	0.00000e+00	
2.08293   	3.84547e-01		         0.58667	0.00000e+00	
2.08880   	8.79996e-01		         0.58833	1.00000e+00	
2.09467   	1.33696e+00		         0.59000	1.00000e+00	
2.10053   	1.84672e+00		         0.59167	1.00000e+00	
2.10640   	2.39116e+00		         0.59333	1.00000e+00	
2.11227   	1.99012e+00		         0.59500	1.00000e+00	
2.11814   	2.03509e+00		         0.59667	1.00000e+00	
2.12401   	2.22825e+00		         0.59833	1.00000e+00	
2.12988   	2.41665e+00		         0.60000	2.00000e+00	
2.13588   	2.68480e+00		         0.60167	2.00000e+00	
2.14162   	2.46002e+00		         0.60333	2.00000e+00	
2.14748   	1.98288e+00		         0.60500	2.00000e+00	
2.15335   	1.54492e+00		         0.60667	2.00000e+00	
2.15922   	7.73348e-01		         0.60833	2.00000e+00	
2.16509   	-4.21573e-01		         0.61000	3.00000e+00	
2.17096   	-1.19223e+00		         0.61167	3.00000e+00	
2.17683   	-1.96167e+00		         0.61333	3.00000e+00	
2.18269   	-2.99861e+00		         0.61500	3.00000e+00	
2.18856   	-3.62462e+00		         0.61667	3.00000e+00	
2.19444   	-3.81739e+00		         0.61833	3.00000e+00	
2.20030   	-4.33277e+00		         0.62000	3.00000e+00	
2.20617   	-4.57510e+00		         0.62167	3.00000e+00	
2.21204   	-4.75000e+00		         0.62333	3.00000e+00	
2.21790   	-4.70367e+00		         0.62500	3.00000e+00	
2.22378   	-4.71046e+00		         0.62667	3.00000e+00	
2.22964   	-4.44492e+00		         0.62833	3.00000e+00	
2.23553   	-4.33188e+00		         0.63000	3.00000e+00	
2.24138   	-3.84991e+00		         0.63167	3.00000e+00	
2.24725   	-3.63970e+00		         0.63333	3.00000e+00	
2.25312   	-3.24998e+00		         0.63500	3.00000e+00	
2.25899   	-2.99489e+00		         0.63667	3.00000e+00	
2.26486   	-2.60973e+00		         0.63833	3.00000e+00	
2.27072   	-2.36861e+00		         0.64000	3.00000e+00	
2.27659   	-2.08327e+00		         0.64167	2.00000e+00	
2.28246   	-1.77703e+00		         0.64333	2.00000e+00	
2.28833   	-1.58506e+00		         0.64500	2.00000e+00	
2.29420   	-1.36991e+00		         0.64667	2.00000e+00	
2.30006   	-1.20971e+00		         0.64833	2.00000e+00	
2.30594   	-1.11235e+00		         0.65000	1.00000e+00	
2.31181   	-1.05230e+00		         0.65167	1.00000e+00	
2.31767   	-8.74429e-01		         0.65333	1.00000e+00	
2.32354   	-9.24433e-01		         0.65500	0.00000e+00	
2.32941   	-9.50384e-01		         0.65667	0.00000e+00	
2.33528   	-8.58918e-01		         0.65833	0.00000e+00	
2.34115   	-8.54915e-01		         0.66000	0.00000e+00	
2.34701   	-8.54395e-01		         0.66167	0.00000e+00	
2.35288   	-6.47487e-01		         0.66333	0.00000e+00	
2.35875   	-5.10540e-01		         0.66500	0.00000e+00	
2.36462   	-4.50530e-01		         0.66667	0.00000e+00	
2.37049   	-4.05239e-01		         0.66833	0.00000e+00	
2.37636   	-3.85150e-01		         0.67000	1.00000e+00	
2.38223   	-4.30707e-01		         0.67167	1.00000e+00	
2.38810   	-4.68484e-01		         0.67333	1.00000e+00	
2.39397   	-4.94192e-01		         0.67500	2.00000e+00	
2.39983   	-5.46574e-01		         0.67667	2.00000e+00	
2.40570   	-6.58395e-01		         0.67833	3.00000e+00	
2.41157   	-8.77330e-01		         0.68000	3.00000e+00	
2.41744   	-1.20261e+00		         0.68167	3.00000e+00	
2.42331   	-1.66315e+00		         0.68333	4.00000e+00	
2.42918   	-2.30996e+00		         0.68500	4.00000e+00	
2.43504   	-3.14557e+00		         0.68667	5.00000e+00	
2.44091   	-3.93854e+00		         0.68833	5.00000e+00	
2.44678   	-4.78132e+00		         0.69000	6.00000e+00	
2.45265   	-5.60916e+00		         0.69167	6.00000e+00	
2.45852   	-6.13175e+00		         0.69333	6.00000e+00	
2.46439   	-6.39483e+00		         0.69500	6.00000e+00	
2.47025   	-6.59723e+00		         0.69667	7.00000e+00	
2.47613   	-6.48878e+00		         0.69833	7.00000e+00	
2.48199   	-6.30152e+00		         0.70000	7.00000e+00	
2.48786   	-6.08563e+00		         0.70167	7.00000e+00	
2.49373   	-5.90191e+00		         0.70333	6.00000e+00	
2.49960   	-5.49437e+00		         0.70500	6.00000e+00	
2.50547   	-5.09268e+00		         0.70667	6.00000e+00	
2.51134   	-4.51404e+00		         0.70833	6.00000e+00	
2.51720   	-3.93545e+00		         0.71000	5.00000e+00	
2.52308   	-3.24820e+00		         0.71167	5.00000e+00	
2.52895   	-2.83185e+00		         0.71333	5.00000e+00	
2.53481   	-2.45001e+00		         0.71500	6.00000e+00	
2.54068   	-2.09413e+00		         0.71667	6.00000e+00	
2.54655   	-1.83768e+00		         0.71833	7.00000e+00	
2.55241   	-1.42704e+00		         0.72000	8.00000e+00	
2.55828   	-1.18656e+00		         0.72167	8.00000e+00	
2.56416   	-9.37336e-01		         0.72333	9.00000e+00	
			         0.72500	1.00000e+01	
			         0.72667	1.10000e+01	
			         0.72833	1.20000e+01	
			         0.73000	1.30000e+01	
			         0.73167	1.40000e+01	
			         0.73333	1.50000e+01	
			         0.73500	1.50000e+01	
			         0.73667	1.50000e+01	
			         0.73833	1.50000e+01	
			         0.74000	1.40000e+01	
			         0.74167	1.40000e+01	
			         0.74333	1.40000e+01	
			         0.74500	1.30000e+01	
			         0.74667	1.30000e+01	
			         0.74833	1.20000e+01	
			         0.75000	1.20000e+01	
			         0.75167	1.10000e+01	
			         0.75333	1.10000e+01	
			         0.75500	1.00000e+01	
			         0.75667	1.00000e+01	
			         0.75833	9.00000e+00	
			         0.76000	8.00000e+00	
			         0.76167	7.00000e+00	
			         0.76333	6.00000e+00	
			         0.76500	4.00000e+00	
			         0.76667	3.00000e+00	
			         0.76833	1.00000e+00	
			         0.77000	-1.00000e+00	
			         0.77167	-2.00000e+00	
			         0.77333	-4.00000e+00	
			         0.77500	-5.00000e+00	
			         0.77667	-6.00000e+00	
			         0.77833	-7.00000e+00	
			         0.78000	-7.00000e+00	
			         0.78167	-8.00000e+00	
			         0.78333	-8.00000e+00	
			         0.78500	-8.00000e+00	
			         0.78667	-8.00000e+00	
			         0.78833	-8.00000e+00	
			         0.79000	-8.00000e+00	
			         0.79167	-7.00000e+00	
			         0.79333	-7.00000e+00	
			         0.79500	-7.00000e+00	
			         0.79667	-7.00000e+00	
			         0.79833	-7.00000e+00	
			         0.80000	-6.00000e+00	
			         0.80167	-6.00000e+00	
			         0.80333	-6.00000e+00	
			         0.80500	-6.00000e+00	
			         0.80667	-6.00000e+00	
			         0.80833	-6.00000e+00	
			         0.81000	-5.00000e+00	
			         0.81167	-5.00000e+00	
			         0.81333	-5.00000e+00	
			         0.81500	-5.00000e+00	
			         0.81667	-5.00000e+00	
			         0.81833	-6.00000e+00	
			         0.82000	-6.00000e+00	
			         0.82167	-6.00000e+00	
			         0.82333	-7.00000e+00	
			         0.82500	-7.00000e+00	
			         0.82667	-8.00000e+00	
			         0.82833	-9.00000e+00	
			         0.83000	-9.00000e+00	
			         0.83167	-9.00000e+00	
			         0.83333	-9.00000e+00	
			         0.83500	-8.00000e+00	
			         0.83667	-7.00000e+00	
			         0.83833	-4.00000e+00	
			         0.84000	1.00000e+00	
			         0.84167	7.00000e+00	
			         0.84333	1.40000e+01	
			         0.84500	2.40000e+01	
			         0.84667	3.60000e+01	
			         0.84833	5.00000e+01	
			         0.85000	6.60000e+01	
			         0.85167	8.30000e+01	
			         0.85333	1.01000e+02	
			         0.85500	1.19000e+02	
			         0.85667	1.37000e+02	
			         0.85833	1.54000e+02	
			         0.86000	1.69000e+02	
			         0.86167	1.82000e+02	
			         0.86333	1.92000e+02	
			         0.86500	1.98000e+02	
			         0.86667	2.01000e+02	
			         0.86833	2.01000e+02	
			         0.87000	1.97000e+02	
			         0.87167	1.90000e+02	
			         0.87333	1.80000e+02	
			         0.87500	1.68000e+02	
			         0.87667	1.53000e+02	
			         0.87833	1.37000e+02	
			         0.88000	1.20000e+02	
			         0.88167	1.03000e+02	
			         0.88333	8.50000e+01	
			         0.88500	6.80000e+01	
			         0.88667	5.20000e+01	
			         0.88833	3.60000e+01	
			         0.89000	2.20000e+01	
			         0.89167	9.00000e+00	
			         0.89333	-4.00000e+00	
			         0.89500	-1.50000e+01	
			         0.89667	-2.50000e+01	
			         0.89833	-3.30000e+01	
			         0.90000	-4.10000e+01	
			         0.90167	-4.70000e+01	
			         0.90333	-5.20000e+01	
			         0.90500	-5.60000e+01	
			         0.90667	-5.90000e+01	
			         0.90833	-6.10000e+01	
			         0.91000	-6.30000e+01	
			         0.91167	-6.30000e+01	
			         0.91333	-6.40000e+01	
			         0.91500	-6.40000e+01	
			         0.91667	-6.30000e+01	
			         0.91833	-6.30000e+01	
			         0.92000	-6.20000e+01	
			         0.92167	-6.10000e+01	
			         0.92333	-6.00000e+01	
			         0.92500	-5.90000e+01	
			         0.92667	-5.80000e+01	
			         0.92833	-5.70000e+01	
			         0.93000	-5.60000e+01	
			         0.93167	-5.50000e+01	
			         0.93333	-5.40000e+01	
			         0.93500	-5.30000e+01	
			         0.93667	-5.20000e+01	
			         0.93833	-5.10000e+01	
			         0.94000	-5.00000e+01	
			         0.94167	-5.00000e+01	
			         0.94333	-4.80000e+01	
			         0.94500	-4.70000e+01	
			         0.94667	-4.60000e+01	
			         0.94833	-4.50000e+01	
			         0.95000	-4.40000e+01	
			         0.95167	-4.20000e+01	
			         0.95333	-4.10000e+01	
			         0.95500	-3.90000e+01	
			         0.95667	-3.80000e+01	
			         0.95833	-3.60000e+01	
			         0.96000	-3.50000e+01	
			         0.96167	-3.30000e+01	
			         0.96333	-3.20000e+01	
			         0.96500	-3.10000e+01	
			         0.96667	-3.00000e+01	
			         0.96833	-2.90000e+01	
			         0.97000	-2.80000e+01	
			         0.97167	-2.70000e+01	
			         0.97333	-2.60000e+01	
			         0.97500	-2.60000e+01	
			         0.97667	-2.60000e+01	
			         0.97833	-2.50000e+01	
			         0.98000	-2.50000e+01	
			         0.98167	-2.40000e+01	
			         0.98333	-2.40000e+01	
			         0.98500	-2.40000e+01	
			         0.98667	-2.30000e+01	
			         0.98833	-2.30000e+01	
			         0.99000	-2.20000e+01	
			         0.99167	-2.20000e+01	
			         0.99333	-2.10000e+01	
			         0.99500	-2.00000e+01	
			         0.99667	-1.90000e+01	
			         0.99833	-1.90000e+01	
			         1.00000	-1.80000e+01	
			         1.00167	-1.70000e+01	
			         1.00333	-1.60000e+01	
			         1.00500	-1.50000e+01	
			         1.00667	-1.40000e+01	
			         1.00833	-1.30000e+01	
			         1.01000	-1.20000e+01	
			         1.01167	-1.10000e+01	
			         1.01333	-1.00000e+01	
			         1.01500	-9.00000e+00	
			         1.01667	-8.00000e+00	
			         1.01833	-7.00000e+00	
			         1.02000	-7.00000e+00	
			         1.02167	-6.00000e+00	
			         1.02333	-5.00000e+00	
			         1.02500	-5.00000e+00	
			         1.02667	-4.00000e+00	
			         1.02833	-3.00000e+00	
			         1.03000	-3.00000e+00	
			         1.03167	-2.00000e+00	
			         1.03333	-2.00000e+00	
			         1.03500	-1.00000e+00	
			         1.03667	-1.00000e+00	
			         1.03833	0.00000e+00	
			         1.04000	0.00000e+00	
			         1.04167	1.00000e+00	
			         1.04333	1.00000e+00	
			         1.04500	2.00000e+00	
			         1.04667	2.00000e+00	
			         1.04833	3.00000e+00	
			         1.05000	4.00000e+00	
			         1.05167	4.00000e+00	
			         1.05333	5.00000e+00	
			         1.05500	5.00000e+00	
			         1.05667	6.00000e+00	
			         1.05833	6.00000e+00	
			         1.06000	7.00000e+00	
			         1.06167	8.00000e+00	
			         1.06333	9.00000e+00	
			         1.06500	9.00000e+00	
			         1.06667	1.00000e+01	
			         1.06833	1.10000e+01	
			         1.07000	1.20000e+01	
			         1.07167	1.30000e+01	
			         1.07333	1.40000e+01	
			         1.07500	1.50000e+01	
			         1.07667	1.60000e+01	
			         1.07833	1.70000e+01	
			         1.08000	1.90000e+01	
			         1.08167	2.00000e+01	
			         1.08333	2.10000e+01	
			         1.08500	2.20000e+01	
			         1.08667	2.30000e+01	
			         1.08833	2.40000e+01	
			         1.09000	2.50000e+01	
			         1.09167	2.60000e+01	
			         1.09333	2.80000e+01	
			         1.09500	2.90000e+01	
			         1.09667	3.00000e+01	
			         1.09833	3.10000e+01	
			         1.10000	3.20000e+01	
			         1.10167	3.30000e+01	
			         1.10333	3.40000e+01	
			         1.10500	3.50000e+01	
			         1.10667	3.60000e+01	
			         1.10833	3.70000e+01	
			         1.11000	3.70000e+01	
			         1.11167	3.80000e+01	
			         1.11333	3.90000e+01	
			         1.11500	3.90000e+01	
			         1.11667	3.90000e+01	
			         1.11833	3.90000e+01	
			         1.12000	3.90000e+01	
			         1.12167	3.90000e+01	
			         1.12333	3.90000e+01	
			         1.12500	3.80000e+01	
			         1.12667	3.80000e+01	
			         1.12833	3.80000e+01	
			         1.13000	3.70000e+01	
			         1.13167	3.60000e+01	
			         1.13333	3.60000e+01	
			         1.13500	3.50000e+01	
			         1.13667	3.40000e+01	
			         1.13833	3.30000e+01	
			         1.14000	3.20000e+01	
			         1.14167	3.10000e+01	
			         1.14333	2.90000e+01	
			         1.14500	2.70000e+01	
			         1.14667	2.60000e+01	
			         1.14833	2.40000e+01	
			         1.15000	2.20000e+01	
			         1.15167	2.00000e+01	
			         1.15333	1.80000e+01	
			         1.15500	1.50000e+01	
			         1.15667	1.30000e+01	
			         1.15833	1.10000e+01	
			         1.16000	8.00000e+00	
			         1.16167	6.00000e+00	
			         1.16333	4.00000e+00	
			         1.16500	1.00000e+00	
			         1.16667	-1.00000e+00	
			         1.16833	-3.00000e+00	
			         1.17000	-5.00000e+00	
			         1.17167	-7.00000e+00	
			         1.17333	-9.00000e+00	
			         1.17500	-1.10000e+01	
			         1.17667	-1.20000e+01	
			         1.17833	-1.30000e+01	
			         1.18000	-1.40000e+01	
			         1.18167	-1.50000e+01	
			         1.18333	-1.60000e+01	
			         1.18500	-1.60000e+01	
			         1.18667	-1.70000e+01	
			         1.18833	-1.70000e+01	
			         1.19000	-1.80000e+01	
			         1.19167	-1.80000e+01	
			         1.19333	-1.90000e+01	
			         1.19500	-2.00000e+01	
			         1.19667	-2.00000e+01	
			         1.19833	-2.10000e+01	
			         1.20000	-2.20000e+01	
			         1.20167	-2.20000e+01	
			         1.20333	-2.30000e+01	
			         1.20500	-2.30000e+01	
			         1.20667	-2.30000e+01	
			         1.20833	-2.30000e+01	
			         1.21000	-2.30000e+01	
			         1.21167	-2.30000e+01	
			         1.21333	-2.30000e+01	
			         1.21500	-2.30000e+01	
			         1.21667	-2.20000e+01	
			         1.21833	-2.20000e+01	
			         1.22000	-2.10000e+01	
			         1.22167	-2.00000e+01	
			         1.22333	-1.90000e+01	
			         1.22500	-1.90000e+01	
			         1.22667	-1.80000e+01	
			         1.22833	-1.70000e+01	
			         1.23000	-1.70000e+01	
			         1.23167	-1.70000e+01	
			         1.23333	-1.60000e+01	
			         1.23500	-1.60000e+01	
			         1.23667	-1.60000e+01	
			         1.23833	-1.60000e+01	
			         1.24000	-1.60000e+01	
			         1.24167	-1.60000e+01	
			         1.24333	-1.60000e+01	
			         1.24500	-1.70000e+01	
			         1.24667	-1.70000e+01	
			         1.24833	-1.70000e+01	
			         1.25000	-1.70000e+01	
			         1.25167	-1.70000e+01	
			         1.25333	-1.60000e+01	
			         1.25500	-1.60000e+01	
			         1.25667	-1.60000e+01	
			         1.25833	-1.60000e+01	
			         1.26000	-1.50000e+01	
			         1.26167	-1.50000e+01	
			         1.26333	-1.40000e+01	
			         1.26500	-1.40000e+01	
			         1.26667	-1.30000e+01	
			         1.26833	-1.20000e+01	
			         1.27000	-1.20000e+01	
			         1.27167	-1.10000e+01	
			         1.27333	-1.10000e+01	
			         1.27500	-1.00000e+01	
			         1.27667	-1.00000e+01	
			         1.27833	-1.00000e+01	
			         1.28000	-1.00000e+01	
			         1.28167	-1.00000e+01	
			         1.28333	-1.00000e+01	
			         1.28500	-1.00000e+01	
			         1.28667	-1.10000e+01	
			         1.28833	-1.10000e+01	
			         1.29000	-1.10000e+01	
			         1.29167	-1.10000e+01	
			         1.29333	-1.10000e+01	
			         1.29500	-1.10000e+01	
			         1.29667	-1.10000e+01	
			         1.29833	-1.10000e+01	
			         1.30000	-1.10000e+01	
			         1.30167	-1.10000e+01	
			         1.30333	-1.10000e+01	
			         1.30500	-1.10000e+01	
			         1.30667	-1.00000e+01	
			         1.30833	-1.00000e+01	
			         1.31000	-1.00000e+01	
			         1.31167	-1.00000e+01	
			         1.31333	-9.00000e+00	
			         1.31500	-9.00000e+00	
			         1.31667	-8.00000e+00	
			         1.31833	-8.00000e+00	
			         1.32000	-8.00000e+00	
			         1.32167	-7.00000e+00	
			         1.32333	-7.00000e+00	
			         1.32500	-6.00000e+00	
			         1.32667	-6.00000e+00	
			         1.32833	-6.00000e+00	
			         1.33000	-5.00000e+00	
			         1.33167	-5.00000e+00	
			         1.33333	-4.00000e+00	
			         1.33500	-4.00000e+00	
			         1.33667	-3.00000e+00	
			         1.33833	-3.00000e+00	
			         1.34000	-2.00000e+00	
			         1.34167	-2.00000e+00	
			         1.34333	-1.00000e+00	
			         1.34500	0.00000e+00	
			         1.34667	0.00000e+00	
			         1.34833	0.00000e+00	
			         1.35000	0.00000e+00	
			         1.35167	0.00000e+00	
			         1.35333	0.00000e+00	
			         1.35500	0.00000e+00	
			         1.35667	-1.00000e+00	
			         1.35833	-2.00000e+00	
			         1.36000	-2.00000e+00	
			         1.36167	-3.00000e+00	
			         1.36333	-4.00000e+00	
			         1.36500	-5.00000e+00	
			         1.36667	-6.00000e+00	
			         1.36833	-7.00000e+00	
			         1.37000	-7.00000e+00	
			         1.37167	-8.00000e+00	
			         1.37333	-8.00000e+00	
			         1.37500	-9.00000e+00	
			         1.37667	-9.00000e+00	
			         1.37833	-9.00000e+00	
			         1.38000	-9.00000e+00	
			         1.38167	-1.00000e+01	
			         1.38333	-1.00000e+01	
			         1.38500	-1.00000e+01	
			         1.38667	-9.00000e+00	
			         1.38833	-9.00000e+00	
			         1.39000	-9.00000e+00	
			         1.39167	-9.00000e+00	
			         1.39333	-8.00000e+00	
			         1.39500	-8.00000e+00	
			         1.39667	-7.00000e+00	
			         1.39833	-7.00000e+00	
			         1.40000	-6.00000e+00	
			         1.40167	-6.00000e+00	
			         1.40333	-5.00000e+00	
			         1.40500	-5.00000e+00	
			         1.40667	-4.00000e+00	
			         1.40833	-4.00000e+00	
			         1.41000	-4.00000e+00	
			         1.41167	-4.00000e+00	
			         1.41333	-4.00000e+00	
			         1.41500	-4.00000e+00	
			         1.41667	-4.00000e+00	
			         1.41833	-4.00000e+00	
			         1.42000	-4.00000e+00	
			         1.42167	-4.00000e+00	
			         1.42333	-5.00000e+00	
			         1.42500	-5.00000e+00	
			         1.42667	-5.00000e+00	
			         1.42833	-5.00000e+00	
			         1.43000	-5.00000e+00	
			         1.43167	-5.00000e+00	
			         1.43333	-6.00000e+00	
			         1.43500	-6.00000e+00	
			         1.43667	-6.00000e+00	
			         1.43833	-6.00000e+00	
			         1.44000	-7.00000e+00	
			         1.44167	-7.00000e+00	
			         1.44333	-7.00000e+00	
			         1.44500	-7.00000e+00	
			         1.44667	-8.00000e+00	
			         1.44833	-8.00000e+00	
			         1.45000	-8.00000e+00	
			         1.45167	-8.00000e+00	
			         1.45333	-8.00000e+00	
			         1.45500	-8.00000e+00	
			         1.45667	-8.00000e+00	
			         1.45833	-8.00000e+00	
			         1.46000	-8.00000e+00	
			         1.46167	-8.00000e+00	
			         1.46333	-8.00000e+00	
			         1.46500	-7.00000e+00	
			         1.46667	-7.00000e+00	
			         1.46833	-7.00000e+00	
			         1.47000	-6.00000e+00	
			         1.47167	-6.00000e+00	
			         1.47333	-6.00000e+00	
			         1.47500	-6.00000e+00	
			         1.47667	-5.00000e+00	
			         1.47833	-5.00000e+00	
			         1.48000	-5.00000e+00	
			         1.48167	-5.00000e+00	
			         1.48333	-6.00000e+00	
			         1.48500	-6.00000e+00	
			         1.48667	-6.00000e+00	
			         1.48833	-6.00000e+00	
			         1.49000	-6.00000e+00	
			         1.49167	-7.00000e+00	
			         1.49333	-7.00000e+00	
			         1.49500	-7.00000e+00	
			         1.49667	-7.00000e+00	
			         1.49833	-7.00000e+00	
			         1.50000	-7.00000e+00	
			         1.50167	-7.00000e+00	
			         1.50333	-6.00000e+00	
			         1.50500	-6.00000e+00	
			         1.50667	-6.00000e+00	
			         1.50833	-5.00000e+00	
			         1.51000	-5.00000e+00	
			         1.51167	-4.00000e+00	
			         1.51333	-3.00000e+00	
			         1.51500	-3.00000e+00	
			         1.51667	-2.00000e+00	
			         1.51833	-1.00000e+00	
			         1.52000	0.00000e+00	
			         1.52167	0.00000e+00	
			         1.52333	1.00000e+00	
			         1.52500	2.00000e+00	
			         1.52667	3.00000e+00	
			         1.52833	3.00000e+00	
			         1.53000	3.00000e+00	
			         1.53167	4.00000e+00	
			         1.53333	4.00000e+00	
			         1.53500	3.00000e+00	
			         1.53667	3.00000e+00	
			         1.53833	2.00000e+00	
			         1.54000	2.00000e+00	
			         1.54167	1.00000e+00	
			         1.54333	0.00000e+00	
			         1.54500	0.00000e+00	
			         1.54667	-1.00000e+00	
			         1.54833	-1.00000e+00	
			         1.55000	-1.00000e+00	
			         1.55167	-1.00000e+00	
			         1.55333	-1.00000e+00	
			         1.55500	0.00000e+00	
			         1.55667	0.00000e+00	
			         1.55833	1.00000e+00	
			         1.56000	2.00000e+00	
			         1.56167	3.00000e+00	
			         1.56333	4.00000e+00	
			         1.56500	5.00000e+00	
			         1.56667	6.00000e+00	
			         1.56833	7.00000e+00	
			         1.57000	8.00000e+00	
			         1.57167	8.00000e+00	
			         1.57333	8.00000e+00	
			         1.57500	9.00000e+00	
			         1.57667	9.00000e+00	
			         1.57833	8.00000e+00	
			         1.58000	8.00000e+00	
			         1.58167	8.00000e+00	
			         1.58333	7.00000e+00	
			         1.58500	7.00000e+00	
			         1.58667	6.00000e+00	
			         1.58833	6.00000e+00	
			         1.59000	5.00000e+00	
			         1.59167	5.00000e+00	
			         1.59333	4.00000e+00	
			         1.59500	3.00000e+00	
			         1.59667	2.00000e+00	
			         1.59833	1.00000e+00	
			         1.60000	0.00000e+00	
			         1.60167	-2.00000e+00	
			         1.60333	-4.00000e+00	
			         1.60500	-5.00000e+00	
			         1.60667	-7.00000e+00	
			         1.60833	-9.00000e+00	
			         1.61000	-1.10000e+01	
			         1.61167	-1.30000e+01	
			         1.61333	-1.40000e+01	
			         1.61500	-1.60000e+01	
			         1.61667	-1.70000e+01	
			         1.61833	-1.70000e+01	
			         1.62000	-1.80000e+01	
			         1.62167	-1.80000e+01	
			         1.62333	-1.80000e+01	
			         1.62500	-1.80000e+01	
			         1.62667	-1.80000e+01	
			         1.62833	-1.70000e+01	
			         1.63000	-1.60000e+01	
			         1.63167	-1.60000e+01	
			         1.63333	-1.50000e+01	
			         1.63500	-1.40000e+01	
			         1.63667	-1.40000e+01	
			         1.63833	-1.30000e+01	
			         1.64000	-1.30000e+01	
			         1.64167	-1.20000e+01	
			         1.64333	-1.20000e+01	
			         1.64500	-1.20000e+01	
			         1.64667	-1.20000e+01	
			         1.64833	-1.10000e+01	
			         1.65000	-1.10000e+01	
			         1.65167	-1.10000e+01	
			         1.65333	-1.10000e+01	
			         1.65500	-1.10000e+01	
			         1.65667	-1.10000e+01	
			         1.65833	-1.10000e+01	
			         1.66000	-1.20000e+01	
			         1.66167	-1.30000e+01	
			         1.66333	-1.30000e+01	
			         1.66500	-1.50000e+01	
			         1.66667	-1.60000e+01	
			         1.66833	-1.60000e+01	
			         1.67000	-1.70000e+01	
			         1.67167	-1.70000e+01	
			         1.67333	-1.50000e+01	
			         1.67500	-1.30000e+01	
			         1.67667	-1.00000e+01	
			         1.67833	-5.00000e+00	
			         1.68000	2.00000e+00	
			         1.68167	1.10000e+01	
			         1.68333	2.20000e+01	
			         1.68500	3.50000e+01	
			         1.68667	5.00000e+01	
			         1.68833	6.60000e+01	
			         1.69000	8.40000e+01	
			         1.69167	1.01000e+02	
			         1.69333	1.19000e+02	
			         1.69500	1.36000e+02	
			         1.69667	1.51000e+02	
			         1.69833	1.64000e+02	
			         1.70000	1.75000e+02	
			         1.70167	1.82000e+02	
			         1.70333	1.87000e+02	
			         1.70500	1.87000e+02	
			         1.70667	1.85000e+02	
			         1.70833	1.79000e+02	
			         1.71000	1.71000e+02	
			         1.71167	1.60000e+02	
			         1.71333	1.46000e+02	
			         1.71500	1.32000e+02	
			         1.71667	1.16000e+02	
			         1.71833	9.90000e+01	
			         1.72000	8.30000e+01	
			         1.72167	6.70000e+01	
			         1.72333	5.20000e+01	
			         1.72500	3.70000e+01	
			         1.72667	2.40000e+01	
			         1.72833	1.10000e+01	
			         1.73000	0.00000e+00	
			         1.73167	-1.10000e+01	
			         1.73333	-2.00000e+01	
			         1.73500	-2.80000e+01	
			         1.73667	-3.50000e+01	
			         1.73833	-4.10000e+01	
			         1.74000	-4.60000e+01	
			         1.74167	-5.00000e+01	
			         1.74333	-5.30000e+01	
			         1.74500	-5.60000e+01	
			         1.74667	-5.80000e+01	
			         1.74833	-5.90000e+01	
			         1.75000	-6.00000e+01	
			         1.75167	-6.00000e+01	
			         1.75333	-6.00000e+01	
			         1.75500	-6.00000e+01	
			         1.75667	-5.90000e+01	
			         1.75833	-5.80000e+01	
			         1.76000	-5.80000e+01	
			         1.76167	-5.70000e+01	
			         1.76333	-5.60000e+01	
			         1.76500	-5.50000e+01	
			         1.76667	-5.40000e+01	
			         1.76833	-5.30000e+01	
			         1.77000	-5.20000e+01	
			         1.77167	-5.10000e+01	
			         1.77333	-5.00000e+01	
			         1.77500	-5.00000e+01	
			         1.77667	-4.90000e+01	
			         1.77833	-4.90000e+01	
			         1.78000	-4.80000e+01	
			         1.78167	-4.80000e+01	
			         1.78333	-4.70000e+01	
			         1.78500	-4.70000e+01	
			         1.78667	-4.60000e+01	
			         1.78833	-4.60000e+01	
			         1.79000	-4.50000e+01	
			         1.79167	-4.40000e+01	
			         1.79333	-4.30000e+01	
			         1.79500	-4.20000e+01	
			         1.79667	-4.10000e+01	
			         1.79833	-4.00000e+01	
			         1.80000	-3.90000e+01	
			         1.80167	-3.80000e+01	
			         1.80333	-3.70000e+01	
			         1.80500	-3.60000e+01	
			         1.80667	-3.40000e+01	
			         1.80833	-3.30000e+01	
			         1.81000	-3.20000e+01	
			         1.81167	-3.10000e+01	
			         1.81333	-3.00000e+01	
			         1.81500	-2.90000e+01	
			         1.81667	-2.80000e+01	
			         1.81833	-2.70000e+01	
			         1.82000	-2.60000e+01	
			         1.82167	-2.50000e+01	
			         1.82333	-2.40000e+01	
			         1.82500	-2.30000e+01	
			         1.82667	-2.20000e+01	
			         1.82833	-2.10000e+01	
			         1.83000	-2.00000e+01	
			         1.83167	-1.90000e+01	
			         1.83333	-1.90000e+01	
			         1.83500	-1.80000e+01	
			         1.83667	-1.80000e+01	
			         1.83833	-1.70000e+01	
			         1.84000	-1.70000e+01	
			         1.84167	-1.60000e+01	
			         1.84333	-1.60000e+01	
			         1.84500	-1.60000e+01	
			         1.84667	-1.50000e+01	
			         1.84833	-1.50000e+01	
			         1.85000	-1.40000e+01	
			         1.85167	-1.40000e+01	
			         1.85333	-1.30000e+01	
			         1.85500	-1.30000e+01	
			         1.85667	-1.20000e+01	
			         1.85833	-1.20000e+01	
			         1.86000	-1.10000e+01	
			         1.86167	-1.00000e+01	
			         1.86333	-9.00000e+00	
			         1.86500	-8.00000e+00	
			         1.86667	-8.00000e+00	
			         1.86833	-7.00000e+00	
			         1.87000	-6.00000e+00	
			         1.87167	-5.00000e+00	
			         1.87333	-5.00000e+00	
			         1.87500	-4.00000e+00	
			         1.87667	-3.00000e+00	
			         1.87833	-3.00000e+00	
			         1.88000	-2.00000e+00	
			         1.88167	-2.00000e+00	
			         1.88333	-1.00000e+00	
			         1.88500	-1.00000e+00	
			         1.88667	0.00000e+00	
			         1.88833	1.00000e+00	
			         1.89000	1.00000e+00	
			         1.89167	2.00000e+00	
			         1.89333	2.00000e+00	
			         1.89500	3.00000e+00	
			         1.89667	4.00000e+00	
			         1.89833	5.00000e+00	
			         1.90000	5.00000e+00	
			         1.90167	6.00000e+00	
			         1.90333	7.00000e+00	
			         1.90500	8.00000e+00	
			         1.90667	9.00000e+00	
			         1.90833	1.00000e+01	
			         1.91000	1.10000e+01	
			         1.91167	1.20000e+01	
			         1.91333	1.30000e+01	
			         1.91500	1.40000e+01	
			         1.91667	1.50000e+01	
			         1.91833	1.60000e+01	
			         1.92000	1.70000e+01	
			         1.92167	1.90000e+01	
			         1.92333	2.00000e+01	
			         1.92500	2.10000e+01	
			         1.92667	2.20000e+01	
			         1.92833	2.30000e+01	
			         1.93000	2.40000e+01	
			         1.93167	2.50000e+01	
			         1.93333	2.60000e+01	
			         1.93500	2.70000e+01	
			         1.93667	2.80000e+01	
			         1.93833	2.90000e+01	
			         1.94000	3.00000e+01	
			         1.94167	3.10000e+01	
			         1.94333	3.10000e+01	
			         1.94500	3.20000e+01	
			         1.94667	3.30000e+01	
			         1.94833	3.40000e+01	
			         1.95000	3.40000e+01	
			         1.95167	3.50000e+01	
			         1.95333	3.60000e+01	
			         1.95500	3.60000e+01	
			         1.95667	3.70000e+01	
			         1.95833	3.70000e+01	
			         1.96000	3.70000e+01	
			         1.96167	3.70000e+01	
			         1.96333	3.60000e+01	
			         1.96500	3.60000e+01	
			         1.96667	3.50000e+01	
			         1.96833	3.40000e+01	
			         1.97000	3.30000e+01	
			         1.97167	3.10000e+01	
			         1.97333	3.00000e+01	
			         1.97500	2.80000e+01	
			         1.97667	2.70000e+01	
			         1.97833	2.60000e+01	
			         1.98000	2.40000e+01	
			         1.98167	2.30000e+01	
			         1.98333	2.20000e+01	
			         1.98500	2.00000e+01	
			         1.98667	1.90000e+01	
			         1.98833	1.80000e+01	
			         1.99000	1.60000e+01	
			         1.99167	1.50000e+01	
			         1.99333	1.30000e+01	
			         1.99500	1.20000e+01	
			         1.99667	1.00000e+01	
			         1.99833	8.00000e+00	
			         2.00000	6.00000e+00	
			         2.00167	4.00000e+00	
			         2.00333	2.00000e+00	
			         2.00500	0.00000e+00	
			         2.00667	-2.00000e+00	
			         2.00833	-5.00000e+00	
			         2.01000	-7.00000e+00	
			         2.01167	-9.00000e+00	
			         2.01333	-1.10000e+01	
			         2.01500	-1.20000e+01	
			         2.01667	-1.40000e+01	
			         2.01833	-1.50000e+01	
			         2.02000	-1.60000e+01	
			         2.02167	-1.70000e+01	
			         2.02333	-1.80000e+01	
			         2.02500	-1.90000e+01	
			         2.02667	-2.00000e+01	
			         2.02833	-2.10000e+01	
			         2.03000	-2.10000e+01	
			         2.03167	-2.10000e+01	
			         2.03333	-2.20000e+01	
			         2.03500	-2.20000e+01	
			         2.03667	-2.20000e+01	
			         2.03833	-2.20000e+01	
			         2.04000	-2.30000e+01	
			         2.04167	-2.30000e+01	
			         2.04333	-2.30000e+01	
			         2.04500	-2.20000e+01	
			         2.04667	-2.20000e+01	
			         2.04833	-2.20000e+01	
			         2.05000	-2.10000e+01	
			         2.05167	-2.10000e+01	
			         2.05333	-2.10000e+01	
			         2.05500	-2.00000e+01	
			         2.05667	-2.00000e+01	
			         2.05833	-2.00000e+01	
			         2.06000	-1.90000e+01	
			         2.06167	-1.90000e+01	
			         2.06333	-1.90000e+01	
			         2.06500	-1.90000e+01	
			         2.06667	-1.90000e+01	
			         2.06833	-1.90000e+01	
			         2.07000	-1.90000e+01	
			         2.07167	-1.90000e+01	
			         2.07333	-1.90000e+01	
			         2.07500	-1.90000e+01	
			         2.07667	-1.80000e+01	
			         2.07833	-1.80000e+01	
			         2.08000	-1.80000e+01	
			         2.08167	-1.80000e+01	
			         2.08333	-1.70000e+01	
			         2.08500	-1.70000e+01	
			         2.08667	-1.60000e+01	
			         2.08833	-1.60000e+01	
			         2.09000	-1.50000e+01	
			         2.09167	-1.50000e+01	
			         2.09333	-1.40000e+01	
			         2.09500	-1.40000e+01	
			         2.09667	-1.30000e+01	
			         2.09833	-1.30000e+01	
			         2.10000	-1.30000e+01	
			         2.10167	-1.30000e+01	
			         2.10333	-1.30000e+01	
			         2.10500	-1.40000e+01	
			         2.10667	-1.40000e+01	
			         2.10833	-1.40000e+01	
			         2.11000	-1.50000e+01	
			         2.11167	-1.50000e+01	
			         2.11333	-1.50000e+01	
			         2.11500	-1.50000e+01	
			         2.11667	-1.50000e+01	
			         2.11833	-1.50000e+01	
			         2.12000	-1.50000e+01	
			         2.12167	-1.40000e+01	
			         2.12333	-1.40000e+01	
			         2.12500	-1.30000e+01	
			         2.12667	-1.20000e+01	
			         2.12833	-1.20000e+01	
			         2.13000	-1.10000e+01	
			         2.13167	-1.00000e+01	
			         2.13333	-1.00000e+01	
			         2.13500	-9.00000e+00	
			         2.13667	-9.00000e+00	
			         2.13833	-8.00000e+00	
			         2.14000	-8.00000e+00	
			         2.14167	-8.00000e+00	
			         2.14333	-8.00000e+00	
			         2.14500	-8.00000e+00	
			         2.14667	-8.00000e+00	
			         2.14833	-8.00000e+00	
			         2.15000	-8.00000e+00	
			         2.15167	-8.00000e+00	
			         2.15333	-8.00000e+00	
			         2.15500	-8.00000e+00	
			         2.15667	-8.00000e+00	
			         2.15833	-8.00000e+00	
			         2.16000	-8.00000e+00	
			         2.16167	-8.00000e+00	
			         2.16333	-8.00000e+00	
			         2.16500	-7.00000e+00	
			         2.16667	-7.00000e+00	
			         2.16833	-7.00000e+00	
			         2.17000	-7.00000e+00	
			         2.17167	-7.00000e+00	
			         2.17333	-7.00000e+00	
			         2.17500	-7.00000e+00	
			         2.17667	-7.00000e+00	
			         2.17833	-7.00000e+00	
			         2.18000	-7.00000e+00	
			         2.18167	-7.00000e+00	
			         2.18333	-7.00000e+00	
			         2.18500	-7.00000e+00	
			         2.18667	-7.00000e+00	
			         2.18833	-8.00000e+00	
			         2.19000	-8.00000e+00	
			         2.19167	-8.00000e+00	
			         2.19333	-8.00000e+00	
			         2.19500	-8.00000e+00	
			         2.19667	-8.00000e+00	
			         2.19833	-8.00000e+00	
			         2.20000	-8.00000e+00	
			         2.20167	-8.00000e+00	
			         2.20333	-8.00000e+00	
			         2.20500	-8.00000e+00	
			         2.20667	-8.00000e+00	
			         2.20833	-8.00000e+00	
			         2.21000	-8.00000e+00	
			         2.21167	-8.00000e+00	
			         2.21333	-7.00000e+00	
			         2.21500	-7.00000e+00	
			         2.21667	-6.00000e+00	
			         2.21833	-6.00000e+00	
			         2.22000	-5.00000e+00	
			         2.22167	-5.00000e+00	
			         2.22333	-4.00000e+00	
			         2.22500	-4.00000e+00	
			         2.22667	-4.00000e+00	
			         2.22833	-3.00000e+00	
			         2.23000	-3.00000e+00	
			         2.23167	-3.00000e+00	
			         2.23333	-3.00000e+00	
			         2.23500	-3.00000e+00	
			         2.23667	-3.00000e+00	
			         2.23833	-3.00000e+00	
			         2.24000	-3.00000e+00	
			         2.24167	-3.00000e+00	
			         2.24333	-4.00000e+00	
			         2.24500	-4.00000e+00	
			         2.24667	-4.00000e+00	
			         2.24833	-4.00000e+00	
			         2.25000	-5.00000e+00	
			         2.25167	-5.00000e+00	
			         2.25333	-5.00000e+00	
			         2.25500	-5.00000e+00	
			         2.25667	-5.00000e+00	
			         2.25833	-5.00000e+00	
			         2.26000	-5.00000e+00	
			         2.26167	-5.00000e+00	
			         2.26333	-5.00000e+00	
			         2.26500	-5.00000e+00	
			         2.26667	-5.00000e+00	
			         2.26833	-5.00000e+00	
			         2.27000	-4.00000e+00	
			         2.27167	-4.00000e+00	
			         2.27333	-4.00000e+00	
			         2.27500	-3.00000e+00	
			         2.27667	-3.00000e+00	
			         2.27833	-3.00000e+00	
			         2.28000	-3.00000e+00	
			         2.28167	-3.00000e+00	
			         2.28333	-3.00000e+00	
			         2.28500	-3.00000e+00	
			         2.28667	-3.00000e+00	
			         2.28833	-4.00000e+00	
			         2.29000	-4.00000e+00	
			         2.29167	-4.00000e+00	
			         2.29333	-4.00000e+00	
			         2.29500	-4.00000e+00	
			         2.29667	-4.00000e+00	
			         2.29833	-4.00000e+00	
			         2.30000	-4.00000e+00	
			         2.30167	-4.00000e+00	
			         2.30333	-3.00000e+00	
			         2.30500	-3.00000e+00	
			         2.30667	-3.00000e+00	
			         2.30833	-3.00000e+00	
			         2.31000	-3.00000e+00	
			         2.31167	-3.00000e+00	
			         2.31333	-3.00000e+00	
			         2.31500	-2.00000e+00	
			         2.31667	-2.00000e+00	
			         2.31833	-2.00000e+00	
			         2.32000	-2.00000e+00	
			         2.32167	-2.00000e+00	
			         2.32333	-2.00000e+00	
			         2.32500	-2.00000e+00	
			         2.32667	-2.00000e+00	
			         2.32833	-2.00000e+00	
			         2.33000	-3.00000e+00	
			         2.33167	-3.00000e+00	
			         2.33333	-3.00000e+00	
			         2.33500	-3.00000e+00	
			         2.33667	-4.00000e+00	
			         2.33833	-4.00000e+00	
			         2.34000	-4.00000e+00	
			         2.34167	-5.00000e+00	
			         2.34333	-5.00000e+00	
			         2.34500	-5.00000e+00	
			         2.34667	-5.00000e+00	
			         2.34833	-5.00000e+00	
			         2.35000	-4.00000e+00	
			         2.35167	-4.00000e+00	
			         2.35333	-3.00000e+00	
			         2.35500	-2.00000e+00	
			         2.35667	-2.00000e+00	
			         2.35833	-1.00000e+00	
			         2.36000	0.00000e+00	
			         2.36167	0.00000e+00	
			         2.36333	1.00000e+00	
			         2.36500	1.00000e+00	
			         2.36667	2.00000e+00	
			         2.36833	2.00000e+00	
			         2.37000	3.00000e+00	
			         2.37167	3.00000e+00	
			         2.37333	3.00000e+00	
			         2.37500	3.00000e+00	
			         2.37667	3.00000e+00	
			         2.37833	3.00000e+00	
			         2.38000	3.00000e+00	
			         2.38167	3.00000e+00	
			         2.38333	3.00000e+00	
			         2.38500	3.00000e+00	
			         2.38667	3.00000e+00	
			         2.38833	2.00000e+00	
			         2.39000	2.00000e+00	
			         2.39167	2.00000e+00	
			         2.39333	2.00000e+00	
			         2.39500	3.00000e+00	
			         2.39667	3.00000e+00	
			         2.39833	4.00000e+00	
			         2.40000	4.00000e+00	
			         2.40167	5.00000e+00	
			         2.40333	6.00000e+00	
			         2.40500	7.00000e+00	
			         2.40667	8.00000e+00	
			         2.40833	1.00000e+01	
			         2.41000	1.10000e+01	
			         2.41167	1.20000e+01	
			         2.41333	1.30000e+01	
			         2.41500	1.30000e+01	
			         2.41667	1.40000e+01	
			         2.41833	1.40000e+01	
			         2.42000	1.40000e+01	
			         2.42167	1.40000e+01	
			         2.42333	1.30000e+01	
			         2.42500	1.30000e+01	
			         2.42667	1.20000e+01	
			         2.42833	1.10000e+01	
			         2.43000	1.00000e+01	
			         2.43167	1.00000e+01	
			         2.43333	9.00000e+00	
			         2.43500	8.00000e+00	
			         2.43667	8.00000e+00	
			         2.43833	7.00000e+00	
			         2.44000	6.00000e+00	
			         2.44167	6.00000e+00	
			         2.44333	5.00000e+00	
			         2.44500	4.00000e+00	
			         2.44667	3.00000e+00	
			         2.44833	2.00000e+00	
			         2.45000	1.00000e+00	
			         2.45167	0.00000e+00	
			         2.45333	-1.00000e+00	
			         2.45500	-3.00000e+00	
			         2.45667	-4.00000e+00	
			         2.45833	-5.00000e+00	
			         2.46000	-6.00000e+00	
			         2.46167	-7.00000e+00	
			         2.46333	-8.00000e+00	
			         2.46500	-8.00000e+00	
			         2.46667	-9.00000e+00	
			         2.46833	-9.00000e+00	
			         2.47000	-9.00000e+00	
			         2.47167	-1.00000e+01	
			         2.47333	-1.00000e+01	
			         2.47500	-1.00000e+01	
			         2.47667	-1.00000e+01	
			         2.47833	-1.00000e+01	
			         2.48000	-1.00000e+01	
			         2.48167	-1.00000e+01	
			         2.48333	-1.00000e+01	
			         2.48500	-1.00000e+01	
			         2.48667	-1.00000e+01	
			         2.48833	-1.00000e+01	
			         2.49000	-1.00000e+01	
			         2.49167	-1.00000e+01	
			         2.49333	-9.00000e+00	
			         2.49500	-9.00000e+00	
			         2.49667	-9.00000e+00	
			         2.49833	-9.00000e+00	
			         2.50000	-9.00000e+00	
			         2.50167	-9.00000e+00	
			         2.50333	-9.00000e+00	
			         2.50500	-9.00000e+00	
			         2.50667	-1.00000e+01	
			         2.50833	-1.10000e+01	
			         2.51000	-1.20000e+01	
			         2.51167	-1.20000e+01	
			         2.51333	-1.30000e+01	
			         2.51500	-1.30000e+01	
			         2.51667	-1.30000e+01	
			         2.51833	-1.10000e+01	
			         2.52000	-9.00000e+00	
			         2.52167	-5.00000e+00	
			         2.52333	0.00000e+00	
			         2.52500	7.00000e+00	
			         2.52667	1.50000e+01	
			         2.52833	2.60000e+01	
			         2.53000	3.80000e+01	
			         2.53167	5.20000e+01	
			         2.53333	6.80000e+01	
			         2.53500	8.40000e+01	
			         2.53667	1.01000e+02	
			         2.53833	1.17000e+02	
			         2.54000	1.34000e+02	
			         2.54167	1.48000e+02	
			         2.54333	1.61000e+02	
			         2.54500	1.71000e+02	
			         2.54667	1.78000e+02	
			         2.54833	1.82000e+02	
			         2.55000	1.83000e+02	
			         2.55167	1.80000e+02	
			         2.55333	1.75000e+02	
			         2.55500	1.67000e+02	
			         2.55667	1.56000e+02	
			         2.55833	1.43000e+02	
			         2.56000	1.29000e+02	
			         2.56167	1.13000e+02	
			         2.56333	9.70000e+01	
			         2.56500	8.20000e+01	
			         2.56667	6.60000e+01	
			         2.56833	5.10000e+01	
			         2.57000	3.70000e+01	
			         2.57167	2.30000e+01	
			         2.57333	1.10000e+01	
			         2.57500	-1.00000e+00	
			         2.57667	-1.10000e+01	
			         2.57833	-2.00000e+01	
			         2.58000	-2.90000e+01	
			         2.58167	-3.60000e+01	
			         2.58333	-4.20000e+01	
			         2.58500	-4.70000e+01	
			         2.58667	-5.10000e+01	
			         2.58833	-5.40000e+01	
			         2.59000	-5.60000e+01	
			         2.59167	-5.70000e+01	
			         2.59333	-5.80000e+01	
			         2.59500	-5.80000e+01	
			         2.59667	-5.80000e+01	
			         2.59833	-5.80000e+01	
			         2.60000	-5.70000e+01	
			         2.60167	-5.60000e+01	
			         2.60333	-5.50000e+01	
			         2.60500	-5.40000e+01	
			         2.60667	-5.30000e+01	
			         2.60833	-5.20000e+01	
