Velocity (TVI), in cm/s

Time (s) :	Trace 1 : 		Ecg : 		
0.00611   	-3.53138e+00		         0.00000	0.00000e+00	
0.01198   	-2.43863e+00		         0.00167	-2.00000e+00	
0.01787   	-1.42767e+00		         0.00333	-4.00000e+00	
0.02376   	-3.22667e-01		         0.00500	-7.00000e+00	
0.02998   	1.70391e+00		         0.00667	-1.00000e+01	
0.03585   	3.45958e+00		         0.00833	-1.40000e+01	
0.04174   	4.16618e+00		         0.01000	-1.80000e+01	
0.04763   	4.10816e+00		         0.01167	-2.20000e+01	
0.05385   	2.89127e+00		         0.01333	-2.70000e+01	
0.05972   	1.43420e+00		         0.01500	-3.10000e+01	
0.06561   	3.29921e-01		         0.01667	-3.50000e+01	
0.07150   	-3.38818e-01		         0.01833	-3.80000e+01	
0.07773   	-5.19063e-01		         0.02000	-4.10000e+01	
0.08359   	3.65700e-01		         0.02167	-4.30000e+01	
0.08948   	1.21359e+00		         0.02333	-4.40000e+01	
0.09537   	1.86047e+00		         0.02500	-4.50000e+01	
0.10159   	2.41780e+00		         0.02667	-4.50000e+01	
0.10746   	2.87113e+00		         0.02833	-4.40000e+01	
0.11335   	3.35241e+00		         0.03000	-4.20000e+01	
0.11924   	3.77994e+00		         0.03167	-4.00000e+01	
0.12547   	4.04077e+00		         0.03333	-3.80000e+01	
0.13133   	4.10020e+00		         0.03500	-3.50000e+01	
0.13722   	4.25843e+00		         0.03667	-3.20000e+01	
0.14311   	4.29311e+00		         0.03833	-2.90000e+01	
0.14932   	4.29318e+00		         0.04000	-2.50000e+01	
0.15520   	4.25368e+00		         0.04167	-2.20000e+01	
0.16109   	4.25331e+00		         0.04333	-1.90000e+01	
0.16698   	4.16673e+00		         0.04500	-1.60000e+01	
0.17320   	4.07630e+00		         0.04667	-1.30000e+01	
0.17907   	3.98211e+00		         0.04833	-1.00000e+01	
0.18496   	3.91335e+00		         0.05000	-7.00000e+00	
0.19085   	3.84981e+00		         0.05167	-4.00000e+00	
0.19708   	3.83471e+00		         0.05333	-2.00000e+00	
0.20294   	3.79633e+00		         0.05500	1.00000e+00	
0.20884   	3.78631e+00		         0.05667	3.00000e+00	
0.21472   	3.77163e+00		         0.05833	5.00000e+00	
0.22094   	3.67754e+00		         0.06000	7.00000e+00	
0.22681   	3.51637e+00		         0.06167	9.00000e+00	
0.23270   	3.42875e+00		         0.06333	1.10000e+01	
0.23859   	3.24355e+00		         0.06500	1.30000e+01	
0.24482   	3.08662e+00		         0.06667	1.40000e+01	
0.25068   	2.92833e+00		         0.06833	1.50000e+01	
0.25657   	2.82091e+00		         0.07000	1.60000e+01	
0.26246   	2.65543e+00		         0.07167	1.70000e+01	
0.26868   	2.53715e+00		         0.07333	1.70000e+01	
0.27455   	2.39882e+00		         0.07500	1.70000e+01	
0.28082   	2.27954e+00		         0.07667	1.70000e+01	
0.28634   	2.12026e+00		         0.07833	1.70000e+01	
0.29254   	1.99104e+00		         0.08000	1.70000e+01	
0.29842   	1.87591e+00		         0.08167	1.60000e+01	
0.30432   	1.70234e+00		         0.08333	1.60000e+01	
0.31021   	1.63750e+00		         0.08500	1.60000e+01	
0.31642   	1.55574e+00		         0.08667	1.60000e+01	
0.32229   	1.45362e+00		         0.08833	1.60000e+01	
0.32818   	1.38224e+00		         0.09000	1.60000e+01	
0.33408   	1.34434e+00		         0.09167	1.60000e+01	
0.34030   	1.20790e+00		         0.09333	1.60000e+01	
0.34616   	1.05450e+00		         0.09500	1.60000e+01	
0.35206   	8.78979e-01		         0.09667	1.60000e+01	
0.35795   	6.17583e-01		         0.09833	1.60000e+01	
0.36415   	2.74919e-01		         0.10000	1.60000e+01	
0.37004   	-3.33982e-02		         0.10167	1.60000e+01	
0.37593   	-4.82679e-01		         0.10333	1.60000e+01	
0.38182   	-9.35133e-01		         0.10500	1.60000e+01	
0.38804   	-1.37814e+00		         0.10667	1.60000e+01	
0.39390   	-1.73546e+00		         0.10833	1.70000e+01	
0.39980   	-1.40414e+00		         0.11000	1.80000e+01	
0.40569   	-9.18041e-01		         0.11167	1.80000e+01	
0.41191   	-3.04738e-01		         0.11333	1.90000e+01	
0.41778   	3.36829e-01		         0.11500	1.90000e+01	
0.42367   	9.03828e-01		         0.11667	1.90000e+01	
0.42956   	7.38613e-01		         0.11833	1.90000e+01	
0.43576   	5.63470e-01		         0.12000	1.90000e+01	
0.44165   	1.90747e-01		         0.12167	1.80000e+01	
0.44753   	-2.29629e-01		         0.12333	1.60000e+01	
0.45343   	-6.18787e-01		         0.12500	1.50000e+01	
0.45964   	-1.18185e+00		         0.12667	1.30000e+01	
0.46551   	-1.90108e+00		         0.12833	1.10000e+01	
0.47141   	-2.61247e+00		         0.13000	9.00000e+00	
0.47730   	-3.40571e+00		         0.13167	8.00000e+00	
0.48352   	-4.28246e+00		         0.13333	6.00000e+00	
0.48939   	-4.94974e+00		         0.13500	5.00000e+00	
0.49527   	-5.39993e+00		         0.13667	4.00000e+00	
0.50117   	-5.63647e+00		         0.13833	4.00000e+00	
0.50737   	-5.78209e+00		         0.14000	3.00000e+00	
0.51325   	-5.78478e+00		         0.14167	3.00000e+00	
0.51915   	-5.60782e+00		         0.14333	3.00000e+00	
0.52504   	-5.34061e+00		         0.14500	3.00000e+00	
0.53124   	-5.13419e+00		         0.14667	3.00000e+00	
0.53713   	-4.79876e+00		         0.14833	4.00000e+00	
0.54302   	-4.32573e+00		         0.15000	4.00000e+00	
0.54891   	-3.99164e+00		         0.15167	4.00000e+00	
0.55513   	-3.74190e+00		         0.15333	4.00000e+00	
0.56100   	-3.39909e+00		         0.15500	4.00000e+00	
0.56689   	-2.98689e+00		         0.15667	4.00000e+00	
0.57278   	-2.62314e+00		         0.15833	4.00000e+00	
0.57898   	-2.19530e+00		         0.16000	5.00000e+00	
0.58487   	-1.76365e+00		         0.16167	5.00000e+00	
0.59076   	-1.42864e+00		         0.16333	5.00000e+00	
0.59665   	-1.10382e+00		         0.16500	5.00000e+00	
0.60286   	-8.79859e-01		         0.16667	5.00000e+00	
0.60874   	-6.99915e-01		         0.16833	5.00000e+00	
0.61463   	-5.23969e-01		         0.17000	5.00000e+00	
0.62052   	-3.07855e-01		         0.17167	5.00000e+00	
0.62674   	-1.83973e-01		         0.17333	5.00000e+00	
0.63261   	-4.18996e-02		         0.17500	4.00000e+00	
0.63850   	6.07785e-02		         0.17667	4.00000e+00	
0.64439   	1.44327e-01		         0.17833	3.00000e+00	
0.65060   	1.69027e-01		         0.18000	3.00000e+00	
0.65648   	1.70494e-01		         0.18167	2.00000e+00	
0.66269   	1.62856e-01		         0.18333	2.00000e+00	
0.66826   	1.29581e-01		         0.18500	2.00000e+00	
0.67447   	9.81704e-02		         0.18667	2.00000e+00	
0.68035   	9.57157e-02		         0.18833	3.00000e+00	
0.68624   	1.18504e-01		         0.19000	3.00000e+00	
0.69213   	1.01517e-01		         0.19167	4.00000e+00	
0.69836   	4.78298e-02		         0.19333	4.00000e+00	
0.70422   	-1.17823e-01		         0.19500	5.00000e+00	
0.71011   	-4.74023e-01		         0.19667	5.00000e+00	
0.71600   	-9.52595e-01		         0.19833	5.00000e+00	
0.72221   	-1.60006e+00		         0.20000	5.00000e+00	
0.72809   	-2.37059e+00		         0.20167	5.00000e+00	
0.73398   	-3.20719e+00		         0.20333	5.00000e+00	
0.73987   	-3.97435e+00		         0.20500	4.00000e+00	
0.74608   	-4.71978e+00		         0.20667	3.00000e+00	
0.75196   	-5.29397e+00		         0.20833	3.00000e+00	
0.75786   	-5.61059e+00		         0.21000	2.00000e+00	
0.76374   	-5.70959e+00		         0.21167	1.00000e+00	
0.76995   	-5.67996e+00		         0.21333	0.00000e+00	
0.77583   	-5.51084e+00		         0.21500	-1.00000e+00	
0.78172   	-5.21161e+00		         0.21667	-1.00000e+00	
0.78761   	-4.79785e+00		         0.21833	-2.00000e+00	
0.79384   	-4.26507e+00		         0.22000	-2.00000e+00	
0.79970   	-3.82231e+00		         0.22167	-2.00000e+00	
0.80559   	-3.40844e+00		         0.22333	-1.00000e+00	
0.81148   	-3.07381e+00		         0.22500	-1.00000e+00	
0.81771   	-2.95759e+00		         0.22667	-1.00000e+00	
0.82357   	-2.88151e+00		         0.22833	0.00000e+00	
0.82946   	-2.44379e+00		         0.23000	0.00000e+00	
0.83535   	-1.80416e+00		         0.23167	0.00000e+00	
0.84158   	-4.52090e-01		         0.23333	1.00000e+00	
0.84744   	1.07833e+00		         0.23500	1.00000e+00	
0.85333   	2.45830e+00		         0.23667	1.00000e+00	
0.85922   	3.79745e+00		         0.23833	0.00000e+00	
0.86543   	4.55519e+00		         0.24000	0.00000e+00	
0.87132   	3.78546e+00		         0.24167	-1.00000e+00	
0.87720   	2.49862e+00		         0.24333	-1.00000e+00	
0.88309   	1.33437e+00		         0.24500	-2.00000e+00	
0.88932   	3.63531e-01		         0.24667	-2.00000e+00	
0.89518   	-1.87758e-01		         0.24833	-3.00000e+00	
0.90107   	6.62112e-02		         0.25000	-3.00000e+00	
0.90696   	6.94466e-01		         0.25167	-4.00000e+00	
0.91317   	1.37910e+00		         0.25333	-4.00000e+00	
0.91905   	1.82675e+00		         0.25500	-4.00000e+00	
0.92494   	2.21052e+00		         0.25667	-4.00000e+00	
0.93083   	2.66626e+00		         0.25833	-5.00000e+00	
0.93705   	3.20689e+00		         0.26000	-4.00000e+00	
0.94292   	3.60093e+00		         0.26167	-4.00000e+00	
0.94882   	3.65528e+00		         0.26333	-4.00000e+00	
0.95471   	3.86316e+00		         0.26500	-4.00000e+00	
0.96124   	3.96112e+00		         0.26667	-4.00000e+00	
0.96679   	3.93787e+00		         0.26833	-4.00000e+00	
0.97268   	3.78707e+00		         0.27000	-4.00000e+00	
0.97857   	3.78849e+00		         0.27167	-4.00000e+00	
0.98480   	3.63578e+00		         0.27333	-4.00000e+00	
0.99066   	3.54406e+00		         0.27500	-4.00000e+00	
0.99655   	3.53815e+00		         0.27667	-4.00000e+00	
1.00244   	3.54027e+00		         0.27833	-5.00000e+00	
1.00865   	3.57859e+00		         0.28000	-6.00000e+00	
1.01454   	3.58525e+00		         0.28167	-7.00000e+00	
1.02042   	3.51446e+00		         0.28333	-8.00000e+00	
1.02631   	3.31519e+00		         0.28500	-9.00000e+00	
1.03253   	3.29108e+00		         0.28667	-1.00000e+01	
1.03840   	3.18062e+00		         0.28833	-1.10000e+01	
1.04436   	3.13817e+00		         0.29000	-1.10000e+01	
1.05019   	3.10488e+00		         0.29167	-1.20000e+01	
1.05640   	3.12359e+00		         0.29333	-1.20000e+01	
1.06227   	3.04215e+00		         0.29500	-1.20000e+01	
1.06816   	2.89295e+00		         0.29667	-1.10000e+01	
1.07406   	2.69689e+00		         0.29833	-1.10000e+01	
1.08028   	2.50839e+00		         0.30000	-1.00000e+01	
1.08614   	2.37590e+00		         0.30167	-9.00000e+00	
1.09203   	2.24528e+00		         0.30333	-8.00000e+00	
1.09793   	2.18523e+00		         0.30500	-7.00000e+00	
1.10415   	2.08205e+00		         0.30667	-6.00000e+00	
1.11001   	2.04220e+00		         0.30833	-5.00000e+00	
1.11591   	1.94431e+00		         0.31000	-4.00000e+00	
1.12180   	1.85938e+00		         0.31167	-3.00000e+00	
1.12802   	1.75356e+00		         0.31333	-3.00000e+00	
1.13389   	1.67036e+00		         0.31500	-2.00000e+00	
1.13978   	1.51837e+00		         0.31667	-2.00000e+00	
1.14567   	1.39821e+00		         0.31833	-2.00000e+00	
1.15189   	1.24255e+00		         0.32000	-2.00000e+00	
1.15775   	1.11289e+00		         0.32167	-2.00000e+00	
1.16364   	9.73471e-01		         0.32333	-2.00000e+00	
1.16954   	8.04522e-01		         0.32500	-2.00000e+00	
1.17574   	5.55459e-01		         0.32667	-3.00000e+00	
1.18163   	2.89232e-01		         0.32833	-4.00000e+00	
1.18752   	-9.50376e-02		         0.33000	-5.00000e+00	
1.19379   	-5.09859e-01		         0.33167	-6.00000e+00	
1.19962   	-9.24064e-01		         0.33333	-6.00000e+00	
1.20550   	-1.34080e+00		         0.33500	-7.00000e+00	
1.21139   	-1.65577e+00		         0.33667	-8.00000e+00	
1.21728   	-1.63042e+00		         0.33833	-8.00000e+00	
1.22349   	-1.29035e+00		         0.34000	-8.00000e+00	
1.22936   	-6.98086e-01		         0.34167	-8.00000e+00	
1.23526   	4.78152e-02		         0.34333	-8.00000e+00	
1.24115   	5.89208e-01		         0.34500	-7.00000e+00	
1.24738   	8.47196e-01		         0.34667	-6.00000e+00	
1.25324   	6.91128e-01		         0.34833	-5.00000e+00	
1.25913   	3.86001e-01		         0.35000	-4.00000e+00	
1.26502   	-4.13098e-02		         0.35167	-2.00000e+00	
1.27123   	-4.09983e-01		         0.35333	0.00000e+00	
1.27710   	-7.41410e-01		         0.35500	1.00000e+00	
1.28300   	-9.37580e-01		         0.35667	3.00000e+00	
1.28889   	-1.49920e+00		         0.35833	4.00000e+00	
1.29510   	-2.29486e+00		         0.36000	5.00000e+00	
1.30098   	-2.94832e+00		         0.36167	6.00000e+00	
1.30687   	-3.72918e+00		         0.36333	6.00000e+00	
1.31276   	-4.58586e+00		         0.36500	6.00000e+00	
1.31897   	-5.08927e+00		         0.36667	6.00000e+00	
1.32485   	-5.36370e+00		         0.36833	6.00000e+00	
1.33074   	-5.59541e+00		         0.37000	5.00000e+00	
1.33663   	-5.63552e+00		         0.37167	4.00000e+00	
1.34308   	-5.40360e+00		         0.37333	3.00000e+00	
1.34872   	-5.11897e+00		         0.37500	1.00000e+00	
1.35461   	-4.78805e+00		         0.37667	0.00000e+00	
1.36050   	-4.43058e+00		         0.37833	-1.00000e+00	
1.36672   	-4.08241e+00		         0.38000	-1.00000e+00	
1.37259   	-3.85090e+00		         0.38167	-2.00000e+00	
1.37848   	-3.60493e+00		         0.38333	-2.00000e+00	
1.38437   	-3.29674e+00		         0.38500	-2.00000e+00	
1.39058   	-3.02327e+00		         0.38667	-1.00000e+00	
1.39646   	-2.68283e+00		         0.38833	-1.00000e+00	
1.40235   	-2.25544e+00		         0.39000	0.00000e+00	
1.40824   	-1.86434e+00		         0.39167	2.00000e+00	
1.41445   	-1.53209e+00		         0.39333	3.00000e+00	
1.42033   	-1.29905e+00		         0.39500	5.00000e+00	
1.42624   	-1.01214e+00		         0.39667	6.00000e+00	
1.43211   	-7.78039e-01		         0.39833	7.00000e+00	
1.43833   	-6.06854e-01		         0.40000	8.00000e+00	
1.44420   	-4.06578e-01		         0.40167	9.00000e+00	
1.45009   	-1.35641e-01		         0.40333	9.00000e+00	
1.45598   	-4.14768e-02		         0.40500	9.00000e+00	
1.46221   	-2.94311e-02		         0.40667	8.00000e+00	
1.46807   	2.79337e-02		         0.40833	7.00000e+00	
1.47396   	4.00847e-02		         0.41000	6.00000e+00	
1.47985   	1.91547e-02		         0.41167	5.00000e+00	
1.48608   	5.67862e-02		         0.41333	3.00000e+00	
1.49194   	8.10865e-02		         0.41500	1.00000e+00	
1.49783   	3.53376e-02		         0.41667	0.00000e+00	
1.50372   	1.03206e-01		         0.41833	-1.00000e+00	
1.50994   	1.58114e-02		         0.42000	-2.00000e+00	
1.51581   	-4.08959e-01		         0.42167	-3.00000e+00	
1.52170   	-1.09639e+00		         0.42333	-3.00000e+00	
1.52759   	-1.96908e+00		         0.42500	-3.00000e+00	
1.53382   	-2.94493e+00		         0.42667	-2.00000e+00	
1.53968   	-3.88900e+00		         0.42833	-2.00000e+00	
1.54557   	-4.53294e+00		         0.43000	0.00000e+00	
1.55146   	-5.08850e+00		         0.43167	1.00000e+00	
1.55768   	-5.55317e+00		         0.43333	2.00000e+00	
1.56355   	-5.85033e+00		         0.43500	3.00000e+00	
1.56944   	-5.90432e+00		         0.43667	5.00000e+00	
1.57570   	-5.97407e+00		         0.43833	6.00000e+00	
1.58156   	-5.79183e+00		         0.44000	7.00000e+00	
1.58742   	-5.30461e+00		         0.44167	7.00000e+00	
1.59331   	-4.85011e+00		         0.44333	8.00000e+00	
1.59920   	-4.33837e+00		         0.44500	8.00000e+00	
1.60541   	-3.59648e+00		         0.44667	8.00000e+00	
1.61129   	-3.05606e+00		         0.44833	7.00000e+00	
1.61718   	-2.59780e+00		         0.45000	6.00000e+00	
1.62307   	-2.51950e+00		         0.45167	5.00000e+00	
1.62930   	-2.45100e+00		         0.45333	4.00000e+00	
1.63516   	-1.95305e+00		         0.45500	3.00000e+00	
1.64105   	-8.51324e-01		         0.45667	1.00000e+00	
1.64694   	3.84774e-01		         0.45833	0.00000e+00	
1.65315   	2.16558e+00		         0.46000	-1.00000e+00	
1.65903   	3.62069e+00		         0.46167	-2.00000e+00	
1.66492   	4.44194e+00		         0.46333	-3.00000e+00	
1.67081   	3.95085e+00		         0.46500	-4.00000e+00	
1.67704   	2.82702e+00		         0.46667	-4.00000e+00	
1.68290   	1.48071e+00		         0.46833	-4.00000e+00	
1.68879   	5.35369e-01		         0.47000	-4.00000e+00	
1.69468   	-2.19712e-01		         0.47167	-4.00000e+00	
1.70091   	3.44620e-02		         0.47333	-3.00000e+00	
1.70677   	6.99527e-01		         0.47500	-3.00000e+00	
1.71266   	1.49956e+00		         0.47667	-2.00000e+00	
1.71855   	2.10557e+00		         0.47833	-1.00000e+00	
1.72484   	2.61382e+00		         0.48000	0.00000e+00	
1.73064   	3.01993e+00		         0.48167	1.00000e+00	
1.73653   	3.46196e+00		         0.48333	2.00000e+00	
1.74243   	3.69651e+00		         0.48500	2.00000e+00	
1.74864   	3.95819e+00		         0.48667	3.00000e+00	
1.75451   	4.05112e+00		         0.48833	3.00000e+00	
1.76040   	4.13698e+00		         0.49000	3.00000e+00	
1.76629   	4.09902e+00		         0.49167	3.00000e+00	
1.77252   	4.08474e+00		         0.49333	3.00000e+00	
1.77838   	3.96813e+00		         0.49500	3.00000e+00	
1.78427   	3.93465e+00		         0.49667	2.00000e+00	
1.79016   	3.72251e+00		         0.49833	2.00000e+00	
1.79639   	3.70149e+00		         0.50000	1.00000e+00	
1.80225   	3.66123e+00		         0.50167	1.00000e+00	
1.80814   	3.58322e+00		         0.50333	0.00000e+00	
1.81404   	3.53834e+00		         0.50500	0.00000e+00	
1.82024   	3.55492e+00		         0.50667	0.00000e+00	
1.82612   	3.54301e+00		         0.50833	-1.00000e+00	
1.83202   	3.45116e+00		         0.51000	-1.00000e+00	
1.83791   	3.45905e+00		         0.51167	-1.00000e+00	
1.84411   	3.34655e+00		         0.51333	-1.00000e+00	
1.84999   	3.28621e+00		         0.51500	-1.00000e+00	
1.85588   	3.16975e+00		         0.51667	-1.00000e+00	
1.86178   	3.06549e+00		         0.51833	-1.00000e+00	
1.86799   	2.90637e+00		         0.52000	-1.00000e+00	
1.87386   	2.73907e+00		         0.52167	-1.00000e+00	
1.87975   	2.62971e+00		         0.52333	-1.00000e+00	
1.88565   	2.47681e+00		         0.52500	-1.00000e+00	
1.89187   	2.36923e+00		         0.52667	-1.00000e+00	
1.89773   	2.27730e+00		         0.52833	-1.00000e+00	
1.90363   	2.18529e+00		         0.53000	-1.00000e+00	
1.90952   	2.03425e+00		         0.53167	-2.00000e+00	
1.91574   	1.90732e+00		         0.53333	-2.00000e+00	
1.92160   	1.77330e+00		         0.53500	-3.00000e+00	
1.92750   	1.63307e+00		         0.53667	-3.00000e+00	
1.93339   	1.55519e+00		         0.53833	-3.00000e+00	
1.93961   	1.47927e+00		         0.54000	-3.00000e+00	
1.94548   	1.40308e+00		         0.54167	-3.00000e+00	
1.95137   	1.33370e+00		         0.54333	-3.00000e+00	
1.95755   	1.21132e+00		         0.54500	-2.00000e+00	
1.96349   	1.05101e+00		         0.54667	-2.00000e+00	
1.96935   	8.59770e-01		         0.54833	-1.00000e+00	
1.97524   	5.90417e-01		         0.55000	0.00000e+00	
1.98113   	2.16070e-01		         0.55167	1.00000e+00	
1.98735   	-1.33221e-01		         0.55333	2.00000e+00	
1.99322   	-4.90300e-01		         0.55500	3.00000e+00	
1.99911   	-9.84290e-01		         0.55667	4.00000e+00	
2.00500   	-1.43306e+00		         0.55833	5.00000e+00	
2.01122   	-1.75124e+00		         0.56000	5.00000e+00	
2.01709   	-1.72621e+00		         0.56167	6.00000e+00	
2.02298   	-1.39991e+00		         0.56333	6.00000e+00	
2.02887   	-5.88734e-01		         0.56500	5.00000e+00	
2.03508   	4.41641e-02		         0.56667	5.00000e+00	
2.04096   	5.88579e-01		         0.56833	4.00000e+00	
2.04685   	8.20076e-01		         0.57000	4.00000e+00	
2.05274   	7.55277e-01		         0.57167	3.00000e+00	
2.05896   	1.87799e-01		         0.57333	2.00000e+00	
2.06483   	-1.10635e-01		         0.57500	1.00000e+00	
2.07072   	-4.44024e-01		         0.57667	1.00000e+00	
2.07661   	-7.04821e-01		         0.57833	0.00000e+00	
2.08284   	-1.13471e+00		         0.58000	-1.00000e+00	
2.08870   	-1.55597e+00		         0.58167	-1.00000e+00	
2.09459   	-2.12063e+00		         0.58333	-2.00000e+00	
2.10048   	-2.78179e+00		         0.58500	-2.00000e+00	
2.10693   	-3.73941e+00		         0.58667	-3.00000e+00	
2.11257   	-4.46422e+00		         0.58833	-3.00000e+00	
2.11846   	-4.94335e+00		         0.59000	-3.00000e+00	
2.12435   	-5.30773e+00		         0.59167	-2.00000e+00	
2.13056   	-5.57021e+00		         0.59333	-2.00000e+00	
2.13644   	-5.45796e+00		         0.59500	-2.00000e+00	
2.14233   	-5.24651e+00		         0.59667	-1.00000e+00	
2.14822   	-4.96764e+00		         0.59833	-1.00000e+00	
2.15444   	-4.75130e+00		         0.60000	0.00000e+00	
2.16031   	-4.33303e+00		         0.60167	0.00000e+00	
2.16620   	-3.94999e+00		         0.60333	0.00000e+00	
2.17209   	-3.59326e+00		         0.60500	1.00000e+00	
2.17832   	-3.35960e+00		         0.60667	1.00000e+00	
2.18418   	-3.04586e+00		         0.60833	1.00000e+00	
2.19007   	-2.72793e+00		         0.61000	1.00000e+00	
2.19596   	-2.39098e+00		         0.61167	2.00000e+00	
2.20218   	-2.10179e+00		         0.61333	2.00000e+00	
2.20805   	-1.77522e+00		         0.61500	2.00000e+00	
2.21394   	-1.39596e+00		         0.61667	2.00000e+00	
2.21983   	-1.28215e+00		         0.61833	2.00000e+00	
2.22605   	-1.23108e+00		         0.62000	1.00000e+00	
2.23192   	-1.10469e+00		         0.62167	1.00000e+00	
2.23781   	-9.24282e-01		         0.62333	1.00000e+00	
2.24370   	-8.02031e-01		         0.62500	1.00000e+00	
2.24992   	-5.47680e-01		         0.62667	1.00000e+00	
2.25579   	-3.15595e-01		         0.62833	1.00000e+00	
2.26168   	-1.70506e-01		         0.63000	1.00000e+00	
2.26757   	-1.22704e-01		         0.63167	1.00000e+00	
2.27380   	-1.38993e-01		         0.63333	1.00000e+00	
2.27966   	-9.67415e-02		         0.63500	2.00000e+00	
2.28555   	-5.29495e-02		         0.63667	2.00000e+00	
2.29144   	-7.46219e-02		         0.63833	2.00000e+00	
2.29765   	1.67417e-03		         0.64000	2.00000e+00	
2.30353   	3.53012e-02		         0.64167	2.00000e+00	
2.30942   	-2.77602e-01		         0.64333	2.00000e+00	
2.31531   	-8.03443e-01		         0.64500	2.00000e+00	
2.32152   	-1.67408e+00		         0.64667	2.00000e+00	
2.32741   	-2.71018e+00		         0.64833	1.00000e+00	
2.33329   	-3.63946e+00		         0.65000	0.00000e+00	
2.33932   	-4.40153e+00		         0.65167	-1.00000e+00	
2.34539   	-4.98243e+00		         0.65333	-2.00000e+00	
2.35127   	-5.28764e+00		         0.65500	-3.00000e+00	
2.35716   	-5.52241e+00		         0.65667	-4.00000e+00	
2.36305   	-5.67980e+00		         0.65833	-5.00000e+00	
2.36927   	-5.64060e+00		         0.66000	-6.00000e+00	
2.37514   	-5.43600e+00		         0.66167	-7.00000e+00	
2.38103   	-4.97867e+00		         0.66333	-8.00000e+00	
2.38692   	-4.42714e+00		         0.66500	-8.00000e+00	
2.39315   	-4.00934e+00		         0.66667	-8.00000e+00	
2.39901   	-3.63698e+00		         0.66833	-8.00000e+00	
2.40490   	-3.11462e+00		         0.67000	-7.00000e+00	
2.41079   	-2.91263e+00		         0.67167	-6.00000e+00	
2.41701   	-2.84679e+00		         0.67333	-5.00000e+00	
2.42288   	-1.78902e+00		         0.67500	-4.00000e+00	
2.42877   	-3.83401e-01		         0.67667	-3.00000e+00	
2.43466   	5.47231e-01		         0.67833	-2.00000e+00	
2.44088   	1.94888e+00		         0.68000	-1.00000e+00	
2.44675   	3.17563e+00		         0.68167	-1.00000e+00	
2.45264   	3.58699e+00		         0.68333	0.00000e+00	
			         0.68500	-1.00000e+00	
			         0.68667	-1.00000e+00	
			         0.68833	-2.00000e+00	
			         0.69000	-2.00000e+00	
			         0.69167	-3.00000e+00	
			         0.69333	-4.00000e+00	
			         0.69500	-5.00000e+00	
			         0.69667	-6.00000e+00	
			         0.69833	-7.00000e+00	
			         0.70000	-8.00000e+00	
			         0.70167	-9.00000e+00	
			         0.70333	-9.00000e+00	
			         0.70500	-9.00000e+00	
			         0.70667	-9.00000e+00	
			         0.70833	-9.00000e+00	
			         0.71000	-8.00000e+00	
			         0.71167	-8.00000e+00	
			         0.71333	-7.00000e+00	
			         0.71500	-6.00000e+00	
			         0.71667	-5.00000e+00	
			         0.71833	-4.00000e+00	
			         0.72000	-3.00000e+00	
			         0.72167	-2.00000e+00	
			         0.72333	-2.00000e+00	
			         0.72500	-1.00000e+00	
			         0.72667	0.00000e+00	
			         0.72833	0.00000e+00	
			         0.73000	-1.00000e+00	
			         0.73167	-1.00000e+00	
			         0.73333	-2.00000e+00	
			         0.73500	-3.00000e+00	
			         0.73667	-4.00000e+00	
			         0.73833	-5.00000e+00	
			         0.74000	-5.00000e+00	
			         0.74167	-6.00000e+00	
			         0.74333	-6.00000e+00	
			         0.74500	-6.00000e+00	
			         0.74667	-6.00000e+00	
			         0.74833	-6.00000e+00	
			         0.75000	-5.00000e+00	
			         0.75167	-4.00000e+00	
			         0.75333	-3.00000e+00	
			         0.75500	-2.00000e+00	
			         0.75667	-1.00000e+00	
			         0.75833	0.00000e+00	
			         0.76000	1.00000e+00	
			         0.76167	2.00000e+00	
			         0.76333	3.00000e+00	
			         0.76500	3.00000e+00	
			         0.76667	4.00000e+00	
			         0.76833	4.00000e+00	
			         0.77000	4.00000e+00	
			         0.77167	5.00000e+00	
			         0.77333	5.00000e+00	
			         0.77500	4.00000e+00	
			         0.77667	4.00000e+00	
			         0.77833	4.00000e+00	
			         0.78000	4.00000e+00	
			         0.78167	4.00000e+00	
			         0.78333	4.00000e+00	
			         0.78500	4.00000e+00	
			         0.78667	3.00000e+00	
			         0.78833	3.00000e+00	
			         0.79000	3.00000e+00	
			         0.79167	2.00000e+00	
			         0.79333	2.00000e+00	
			         0.79500	2.00000e+00	
			         0.79667	3.00000e+00	
			         0.79833	3.00000e+00	
			         0.80000	3.00000e+00	
			         0.80167	4.00000e+00	
			         0.80333	4.00000e+00	
			         0.80500	5.00000e+00	
			         0.80667	5.00000e+00	
			         0.80833	4.00000e+00	
			         0.81000	4.00000e+00	
			         0.81167	4.00000e+00	
			         0.81333	3.00000e+00	
			         0.81500	2.00000e+00	
			         0.81667	0.00000e+00	
			         0.81833	-2.00000e+00	
			         0.82000	-4.00000e+00	
			         0.82167	-6.00000e+00	
			         0.82333	-8.00000e+00	
			         0.82500	-1.10000e+01	
			         0.82667	-1.30000e+01	
			         0.82833	-1.60000e+01	
			         0.83000	-1.80000e+01	
			         0.83167	-2.10000e+01	
			         0.83333	-2.40000e+01	
			         0.83500	-2.60000e+01	
			         0.83667	-2.90000e+01	
			         0.83833	-3.20000e+01	
			         0.84000	-3.50000e+01	
			         0.84167	-3.80000e+01	
			         0.84333	-4.00000e+01	
			         0.84500	-4.20000e+01	
			         0.84667	-4.40000e+01	
			         0.84833	-4.50000e+01	
			         0.85000	-4.50000e+01	
			         0.85167	-4.40000e+01	
			         0.85333	-4.30000e+01	
			         0.85500	-4.10000e+01	
			         0.85667	-3.80000e+01	
			         0.85833	-3.40000e+01	
			         0.86000	-3.00000e+01	
			         0.86167	-2.60000e+01	
			         0.86333	-2.10000e+01	
			         0.86500	-1.60000e+01	
			         0.86667	-1.10000e+01	
			         0.86833	-7.00000e+00	
			         0.87000	-3.00000e+00	
			         0.87167	0.00000e+00	
			         0.87333	3.00000e+00	
			         0.87500	5.00000e+00	
			         0.87667	6.00000e+00	
			         0.87833	7.00000e+00	
			         0.88000	7.00000e+00	
			         0.88167	7.00000e+00	
			         0.88333	7.00000e+00	
			         0.88500	7.00000e+00	
			         0.88667	7.00000e+00	
			         0.88833	7.00000e+00	
			         0.89000	7.00000e+00	
			         0.89167	7.00000e+00	
			         0.89333	8.00000e+00	
			         0.89500	9.00000e+00	
			         0.89667	1.00000e+01	
			         0.89833	1.20000e+01	
			         0.90000	1.30000e+01	
			         0.90167	1.50000e+01	
			         0.90333	1.70000e+01	
			         0.90500	1.90000e+01	
			         0.90667	2.00000e+01	
			         0.90833	2.20000e+01	
			         0.91000	2.30000e+01	
			         0.91167	2.40000e+01	
			         0.91333	2.40000e+01	
			         0.91500	2.40000e+01	
			         0.91667	2.30000e+01	
			         0.91833	2.20000e+01	
			         0.92000	2.10000e+01	
			         0.92167	2.00000e+01	
			         0.92333	1.80000e+01	
			         0.92500	1.60000e+01	
			         0.92667	1.40000e+01	
			         0.92833	1.30000e+01	
			         0.93000	1.10000e+01	
			         0.93167	9.00000e+00	
			         0.93333	8.00000e+00	
			         0.93500	7.00000e+00	
			         0.93667	6.00000e+00	
			         0.93833	6.00000e+00	
			         0.94000	6.00000e+00	
			         0.94167	6.00000e+00	
			         0.94333	7.00000e+00	
			         0.94500	8.00000e+00	
			         0.94667	8.00000e+00	
			         0.94833	1.00000e+01	
			         0.95000	1.10000e+01	
			         0.95167	1.20000e+01	
			         0.95333	1.30000e+01	
			         0.95500	1.40000e+01	
			         0.95667	1.40000e+01	
			         0.95833	1.40000e+01	
			         0.96000	1.40000e+01	
			         0.96167	1.30000e+01	
			         0.96333	1.30000e+01	
			         0.96500	1.10000e+01	
			         0.96667	1.00000e+01	
			         0.96833	8.00000e+00	
			         0.97000	7.00000e+00	
			         0.97167	5.00000e+00	
			         0.97333	4.00000e+00	
			         0.97500	2.00000e+00	
			         0.97667	1.00000e+00	
			         0.97833	1.00000e+00	
			         0.98000	1.00000e+00	
			         0.98167	1.00000e+00	
			         0.98333	1.00000e+00	
			         0.98500	2.00000e+00	
			         0.98667	2.00000e+00	
			         0.98833	3.00000e+00	
			         0.99000	4.00000e+00	
			         0.99167	5.00000e+00	
			         0.99333	6.00000e+00	
			         0.99500	7.00000e+00	
			         0.99667	7.00000e+00	
			         0.99833	7.00000e+00	
			         1.00000	7.00000e+00	
			         1.00167	6.00000e+00	
			         1.00333	5.00000e+00	
			         1.00500	5.00000e+00	
			         1.00667	4.00000e+00	
			         1.00833	3.00000e+00	
			         1.01000	2.00000e+00	
			         1.01167	1.00000e+00	
			         1.01333	0.00000e+00	
			         1.01500	0.00000e+00	
			         1.01667	-1.00000e+00	
			         1.01833	-1.00000e+00	
			         1.02000	-1.00000e+00	
			         1.02167	0.00000e+00	
			         1.02333	0.00000e+00	
			         1.02500	1.00000e+00	
			         1.02667	2.00000e+00	
			         1.02833	3.00000e+00	
			         1.03000	4.00000e+00	
			         1.03167	5.00000e+00	
			         1.03333	6.00000e+00	
			         1.03500	6.00000e+00	
			         1.03667	7.00000e+00	
			         1.03833	7.00000e+00	
			         1.04000	7.00000e+00	
			         1.04167	6.00000e+00	
			         1.04333	6.00000e+00	
			         1.04500	5.00000e+00	
			         1.04667	4.00000e+00	
			         1.04833	3.00000e+00	
			         1.05000	1.00000e+00	
			         1.05167	0.00000e+00	
			         1.05333	-2.00000e+00	
			         1.05500	-4.00000e+00	
			         1.05667	-5.00000e+00	
			         1.05833	-6.00000e+00	
			         1.06000	-7.00000e+00	
			         1.06167	-8.00000e+00	
			         1.06333	-8.00000e+00	
			         1.06500	-8.00000e+00	
			         1.06667	-8.00000e+00	
			         1.06833	-7.00000e+00	
			         1.07000	-5.00000e+00	
			         1.07167	-4.00000e+00	
			         1.07333	-2.00000e+00	
			         1.07500	-1.00000e+00	
			         1.07667	1.00000e+00	
			         1.07833	2.00000e+00	
			         1.08000	4.00000e+00	
			         1.08167	5.00000e+00	
			         1.08333	6.00000e+00	
			         1.08500	6.00000e+00	
			         1.08667	6.00000e+00	
			         1.08833	6.00000e+00	
			         1.09000	6.00000e+00	
			         1.09167	5.00000e+00	
			         1.09333	4.00000e+00	
			         1.09500	3.00000e+00	
			         1.09667	2.00000e+00	
			         1.09833	1.00000e+00	
			         1.10000	-1.00000e+00	
			         1.10167	-3.00000e+00	
			         1.10333	-5.00000e+00	
			         1.10500	-7.00000e+00	
			         1.10667	-8.00000e+00	
			         1.10833	-1.00000e+01	
			         1.11000	-1.10000e+01	
			         1.11167	-1.20000e+01	
			         1.11333	-1.30000e+01	
			         1.11500	-1.30000e+01	
			         1.11667	-1.30000e+01	
			         1.11833	-1.30000e+01	
			         1.12000	-1.20000e+01	
			         1.12167	-1.20000e+01	
			         1.12333	-1.10000e+01	
			         1.12500	-9.00000e+00	
			         1.12667	-8.00000e+00	
			         1.12833	-8.00000e+00	
			         1.13000	-7.00000e+00	
			         1.13167	-6.00000e+00	
			         1.13333	-6.00000e+00	
			         1.13500	-6.00000e+00	
			         1.13667	-6.00000e+00	
			         1.13833	-6.00000e+00	
			         1.14000	-7.00000e+00	
			         1.14167	-7.00000e+00	
			         1.14333	-7.00000e+00	
			         1.14500	-7.00000e+00	
			         1.14667	-7.00000e+00	
			         1.14833	-7.00000e+00	
			         1.15000	-7.00000e+00	
			         1.15167	-7.00000e+00	
			         1.15333	-6.00000e+00	
			         1.15500	-6.00000e+00	
			         1.15667	-5.00000e+00	
			         1.15833	-5.00000e+00	
			         1.16000	-4.00000e+00	
			         1.16167	-3.00000e+00	
			         1.16333	-3.00000e+00	
			         1.16500	-2.00000e+00	
			         1.16667	-1.00000e+00	
			         1.16833	0.00000e+00	
			         1.17000	1.00000e+00	
			         1.17167	1.00000e+00	
			         1.17333	2.00000e+00	
			         1.17500	3.00000e+00	
			         1.17667	4.00000e+00	
			         1.17833	4.00000e+00	
			         1.18000	4.00000e+00	
			         1.18167	4.00000e+00	
			         1.18333	4.00000e+00	
			         1.18500	4.00000e+00	
			         1.18667	4.00000e+00	
			         1.18833	3.00000e+00	
			         1.19000	3.00000e+00	
			         1.19167	3.00000e+00	
			         1.19333	2.00000e+00	
			         1.19500	2.00000e+00	
			         1.19667	2.00000e+00	
			         1.19833	2.00000e+00	
			         1.20000	2.00000e+00	
			         1.20167	2.00000e+00	
			         1.20333	2.00000e+00	
			         1.20500	3.00000e+00	
			         1.20667	4.00000e+00	
			         1.20833	5.00000e+00	
			         1.21000	5.00000e+00	
			         1.21167	6.00000e+00	
			         1.21333	7.00000e+00	
			         1.21500	7.00000e+00	
			         1.21667	7.00000e+00	
			         1.21833	6.00000e+00	
			         1.22000	6.00000e+00	
			         1.22167	5.00000e+00	
			         1.22333	4.00000e+00	
			         1.22500	2.00000e+00	
			         1.22667	1.00000e+00	
			         1.22833	-1.00000e+00	
			         1.23000	-2.00000e+00	
			         1.23167	-3.00000e+00	
			         1.23333	-4.00000e+00	
			         1.23500	-4.00000e+00	
			         1.23667	-4.00000e+00	
			         1.23833	-4.00000e+00	
			         1.24000	-4.00000e+00	
			         1.24167	-3.00000e+00	
			         1.24333	-2.00000e+00	
			         1.24500	-1.00000e+00	
			         1.24667	0.00000e+00	
			         1.24833	0.00000e+00	
			         1.25000	1.00000e+00	
			         1.25167	1.00000e+00	
			         1.25333	2.00000e+00	
			         1.25500	2.00000e+00	
			         1.25667	2.00000e+00	
			         1.25833	2.00000e+00	
			         1.26000	2.00000e+00	
			         1.26167	1.00000e+00	
			         1.26333	1.00000e+00	
			         1.26500	1.00000e+00	
			         1.26667	0.00000e+00	
			         1.26833	0.00000e+00	
			         1.27000	-1.00000e+00	
			         1.27167	-2.00000e+00	
			         1.27333	-2.00000e+00	
			         1.27500	-3.00000e+00	
			         1.27667	-3.00000e+00	
			         1.27833	-4.00000e+00	
			         1.28000	-4.00000e+00	
			         1.28167	-4.00000e+00	
			         1.28333	-4.00000e+00	
			         1.28500	-4.00000e+00	
			         1.28667	-4.00000e+00	
			         1.28833	-4.00000e+00	
			         1.29000	-3.00000e+00	
			         1.29167	-2.00000e+00	
			         1.29333	-1.00000e+00	
			         1.29500	0.00000e+00	
			         1.29667	1.00000e+00	
			         1.29833	2.00000e+00	
			         1.30000	3.00000e+00	
			         1.30167	4.00000e+00	
			         1.30333	5.00000e+00	
			         1.30500	6.00000e+00	
			         1.30667	6.00000e+00	
			         1.30833	7.00000e+00	
			         1.31000	7.00000e+00	
			         1.31167	7.00000e+00	
			         1.31333	7.00000e+00	
			         1.31500	7.00000e+00	
			         1.31667	6.00000e+00	
			         1.31833	5.00000e+00	
			         1.32000	4.00000e+00	
			         1.32167	3.00000e+00	
			         1.32333	2.00000e+00	
			         1.32500	1.00000e+00	
			         1.32667	1.00000e+00	
			         1.32833	0.00000e+00	
			         1.33000	-1.00000e+00	
			         1.33167	-2.00000e+00	
			         1.33333	-3.00000e+00	
			         1.33500	-4.00000e+00	
			         1.33667	-5.00000e+00	
			         1.33833	-5.00000e+00	
			         1.34000	-5.00000e+00	
			         1.34167	-6.00000e+00	
			         1.34333	-6.00000e+00	
			         1.34500	-5.00000e+00	
			         1.34667	-5.00000e+00	
			         1.34833	-4.00000e+00	
			         1.35000	-4.00000e+00	
			         1.35167	-3.00000e+00	
			         1.35333	-1.00000e+00	
			         1.35500	0.00000e+00	
			         1.35667	1.00000e+00	
			         1.35833	2.00000e+00	
			         1.36000	3.00000e+00	
			         1.36167	4.00000e+00	
			         1.36333	5.00000e+00	
			         1.36500	5.00000e+00	
			         1.36667	5.00000e+00	
			         1.36833	5.00000e+00	
			         1.37000	4.00000e+00	
			         1.37167	3.00000e+00	
			         1.37333	2.00000e+00	
			         1.37500	1.00000e+00	
			         1.37667	0.00000e+00	
			         1.37833	-2.00000e+00	
			         1.38000	-3.00000e+00	
			         1.38167	-4.00000e+00	
			         1.38333	-4.00000e+00	
			         1.38500	-5.00000e+00	
			         1.38667	-5.00000e+00	
			         1.38833	-5.00000e+00	
			         1.39000	-4.00000e+00	
			         1.39167	-4.00000e+00	
			         1.39333	-3.00000e+00	
			         1.39500	-2.00000e+00	
			         1.39667	-1.00000e+00	
			         1.39833	1.00000e+00	
			         1.40000	2.00000e+00	
			         1.40167	3.00000e+00	
			         1.40333	5.00000e+00	
			         1.40500	5.00000e+00	
			         1.40667	6.00000e+00	
			         1.40833	6.00000e+00	
			         1.41000	6.00000e+00	
			         1.41167	5.00000e+00	
			         1.41333	4.00000e+00	
			         1.41500	3.00000e+00	
			         1.41667	2.00000e+00	
			         1.41833	0.00000e+00	
			         1.42000	-2.00000e+00	
			         1.42167	-4.00000e+00	
			         1.42333	-5.00000e+00	
			         1.42500	-6.00000e+00	
			         1.42667	-7.00000e+00	
			         1.42833	-7.00000e+00	
			         1.43000	-7.00000e+00	
			         1.43167	-6.00000e+00	
			         1.43333	-6.00000e+00	
			         1.43500	-5.00000e+00	
			         1.43667	-4.00000e+00	
			         1.43833	-4.00000e+00	
			         1.44000	-3.00000e+00	
			         1.44167	-2.00000e+00	
			         1.44333	-2.00000e+00	
			         1.44500	-1.00000e+00	
			         1.44667	-1.00000e+00	
			         1.44833	-1.00000e+00	
			         1.45000	-1.00000e+00	
			         1.45167	-1.00000e+00	
			         1.45333	-1.00000e+00	
			         1.45500	-1.00000e+00	
			         1.45667	-1.00000e+00	
			         1.45833	-1.00000e+00	
			         1.46000	-2.00000e+00	
			         1.46167	-2.00000e+00	
			         1.46333	-2.00000e+00	
			         1.46500	-3.00000e+00	
			         1.46667	-3.00000e+00	
			         1.46833	-4.00000e+00	
			         1.47000	-4.00000e+00	
			         1.47167	-4.00000e+00	
			         1.47333	-5.00000e+00	
			         1.47500	-5.00000e+00	
			         1.47667	-5.00000e+00	
			         1.47833	-5.00000e+00	
			         1.48000	-5.00000e+00	
			         1.48167	-5.00000e+00	
			         1.48333	-4.00000e+00	
			         1.48500	-4.00000e+00	
			         1.48667	-4.00000e+00	
			         1.48833	-4.00000e+00	
			         1.49000	-4.00000e+00	
			         1.49167	-3.00000e+00	
			         1.49333	-3.00000e+00	
			         1.49500	-4.00000e+00	
			         1.49667	-4.00000e+00	
			         1.49833	-4.00000e+00	
			         1.50000	-4.00000e+00	
			         1.50167	-5.00000e+00	
			         1.50333	-5.00000e+00	
			         1.50500	-5.00000e+00	
			         1.50667	-5.00000e+00	
			         1.50833	-6.00000e+00	
			         1.51000	-6.00000e+00	
			         1.51167	-6.00000e+00	
			         1.51333	-6.00000e+00	
			         1.51500	-7.00000e+00	
			         1.51667	-7.00000e+00	
			         1.51833	-7.00000e+00	
			         1.52000	-7.00000e+00	
			         1.52167	-6.00000e+00	
			         1.52333	-6.00000e+00	
			         1.52500	-6.00000e+00	
			         1.52667	-5.00000e+00	
			         1.52833	-5.00000e+00	
			         1.53000	-5.00000e+00	
			         1.53167	-4.00000e+00	
			         1.53333	-4.00000e+00	
			         1.53500	-4.00000e+00	
			         1.53667	-4.00000e+00	
			         1.53833	-3.00000e+00	
			         1.54000	-3.00000e+00	
			         1.54167	-3.00000e+00	
			         1.54333	-3.00000e+00	
			         1.54500	-2.00000e+00	
			         1.54667	-2.00000e+00	
			         1.54833	-1.00000e+00	
			         1.55000	0.00000e+00	
			         1.55167	0.00000e+00	
			         1.55333	1.00000e+00	
			         1.55500	2.00000e+00	
			         1.55667	3.00000e+00	
			         1.55833	4.00000e+00	
			         1.56000	5.00000e+00	
			         1.56167	5.00000e+00	
			         1.56333	6.00000e+00	
			         1.56500	6.00000e+00	
			         1.56667	6.00000e+00	
			         1.56833	6.00000e+00	
			         1.57000	6.00000e+00	
			         1.57167	6.00000e+00	
			         1.57333	6.00000e+00	
			         1.57500	6.00000e+00	
			         1.57667	6.00000e+00	
			         1.57833	6.00000e+00	
			         1.58000	5.00000e+00	
			         1.58167	5.00000e+00	
			         1.58333	4.00000e+00	
			         1.58500	4.00000e+00	
			         1.58667	3.00000e+00	
			         1.58833	2.00000e+00	
			         1.59000	0.00000e+00	
			         1.59167	-1.00000e+00	
			         1.59333	-1.00000e+00	
			         1.59500	-2.00000e+00	
			         1.59667	-3.00000e+00	
			         1.59833	-3.00000e+00	
			         1.60000	-3.00000e+00	
			         1.60167	-2.00000e+00	
			         1.60333	-1.00000e+00	
			         1.60500	0.00000e+00	
			         1.60667	1.00000e+00	
			         1.60833	2.00000e+00	
			         1.61000	3.00000e+00	
			         1.61167	3.00000e+00	
			         1.61333	4.00000e+00	
			         1.61500	4.00000e+00	
			         1.61667	3.00000e+00	
			         1.61833	2.00000e+00	
			         1.62000	0.00000e+00	
			         1.62167	-2.00000e+00	
			         1.62333	-4.00000e+00	
			         1.62500	-7.00000e+00	
			         1.62667	-1.10000e+01	
			         1.62833	-1.40000e+01	
			         1.63000	-1.80000e+01	
			         1.63167	-2.10000e+01	
			         1.63333	-2.50000e+01	
			         1.63500	-2.90000e+01	
			         1.63667	-3.20000e+01	
			         1.63833	-3.60000e+01	
			         1.64000	-3.90000e+01	
			         1.64167	-4.10000e+01	
			         1.64333	-4.40000e+01	
			         1.64500	-4.50000e+01	
			         1.64667	-4.60000e+01	
			         1.64833	-4.60000e+01	
			         1.65000	-4.60000e+01	
			         1.65167	-4.50000e+01	
			         1.65333	-4.30000e+01	
			         1.65500	-4.10000e+01	
			         1.65667	-3.80000e+01	
			         1.65833	-3.50000e+01	
			         1.66000	-3.10000e+01	
			         1.66167	-2.70000e+01	
			         1.66333	-2.30000e+01	
			         1.66500	-1.90000e+01	
			         1.66667	-1.50000e+01	
			         1.66833	-1.10000e+01	
			         1.67000	-8.00000e+00	
			         1.67167	-4.00000e+00	
			         1.67333	-1.00000e+00	
			         1.67500	2.00000e+00	
			         1.67667	4.00000e+00	
			         1.67833	7.00000e+00	
			         1.68000	8.00000e+00	
			         1.68167	1.00000e+01	
			         1.68333	1.10000e+01	
			         1.68500	1.30000e+01	
			         1.68667	1.40000e+01	
			         1.68833	1.40000e+01	
			         1.69000	1.50000e+01	
			         1.69167	1.50000e+01	
			         1.69333	1.60000e+01	
			         1.69500	1.60000e+01	
			         1.69667	1.60000e+01	
			         1.69833	1.60000e+01	
			         1.70000	1.70000e+01	
			         1.70167	1.70000e+01	
			         1.70333	1.70000e+01	
			         1.70500	1.80000e+01	
			         1.70667	1.80000e+01	
			         1.70833	1.80000e+01	
			         1.71000	1.80000e+01	
			         1.71167	1.80000e+01	
			         1.71333	1.80000e+01	
			         1.71500	1.70000e+01	
			         1.71667	1.70000e+01	
			         1.71833	1.60000e+01	
			         1.72000	1.60000e+01	
			         1.72167	1.60000e+01	
			         1.72333	1.50000e+01	
			         1.72500	1.50000e+01	
			         1.72667	1.40000e+01	
			         1.72833	1.40000e+01	
			         1.73000	1.40000e+01	
			         1.73167	1.40000e+01	
			         1.73333	1.40000e+01	
			         1.73500	1.40000e+01	
			         1.73667	1.40000e+01	
			         1.73833	1.40000e+01	
			         1.74000	1.40000e+01	
			         1.74167	1.30000e+01	
			         1.74333	1.20000e+01	
			         1.74500	1.10000e+01	
			         1.74667	1.00000e+01	
			         1.74833	9.00000e+00	
			         1.75000	8.00000e+00	
			         1.75167	6.00000e+00	
			         1.75333	5.00000e+00	
			         1.75500	4.00000e+00	
			         1.75667	4.00000e+00	
			         1.75833	3.00000e+00	
			         1.76000	3.00000e+00	
			         1.76167	3.00000e+00	
			         1.76333	3.00000e+00	
			         1.76500	4.00000e+00	
			         1.76667	4.00000e+00	
			         1.76833	5.00000e+00	
			         1.77000	5.00000e+00	
			         1.77167	6.00000e+00	
			         1.77333	6.00000e+00	
			         1.77500	6.00000e+00	
			         1.77667	6.00000e+00	
			         1.77833	6.00000e+00	
			         1.78000	6.00000e+00	
			         1.78167	6.00000e+00	
			         1.78333	7.00000e+00	
			         1.78500	7.00000e+00	
			         1.78667	7.00000e+00	
			         1.78833	7.00000e+00	
			         1.79000	7.00000e+00	
			         1.79167	7.00000e+00	
			         1.79333	8.00000e+00	
			         1.79500	8.00000e+00	
			         1.79667	8.00000e+00	
			         1.79833	8.00000e+00	
			         1.80000	7.00000e+00	
			         1.80167	7.00000e+00	
			         1.80333	7.00000e+00	
			         1.80500	6.00000e+00	
			         1.80667	5.00000e+00	
			         1.80833	4.00000e+00	
			         1.81000	3.00000e+00	
			         1.81167	2.00000e+00	
			         1.81333	1.00000e+00	
			         1.81500	-1.00000e+00	
			         1.81667	-2.00000e+00	
			         1.81833	-3.00000e+00	
			         1.82000	-4.00000e+00	
			         1.82167	-5.00000e+00	
			         1.82333	-6.00000e+00	
			         1.82500	-6.00000e+00	
			         1.82667	-7.00000e+00	
			         1.82833	-7.00000e+00	
			         1.83000	-7.00000e+00	
			         1.83167	-7.00000e+00	
			         1.83333	-6.00000e+00	
			         1.83500	-6.00000e+00	
			         1.83667	-5.00000e+00	
			         1.83833	-4.00000e+00	
			         1.84000	-3.00000e+00	
			         1.84167	-1.00000e+00	
			         1.84333	0.00000e+00	
			         1.84500	1.00000e+00	
			         1.84667	3.00000e+00	
			         1.84833	4.00000e+00	
			         1.85000	5.00000e+00	
			         1.85167	5.00000e+00	
			         1.85333	5.00000e+00	
			         1.85500	5.00000e+00	
			         1.85667	5.00000e+00	
			         1.85833	4.00000e+00	
			         1.86000	3.00000e+00	
			         1.86167	1.00000e+00	
			         1.86333	-1.00000e+00	
			         1.86500	-2.00000e+00	
			         1.86667	-4.00000e+00	
			         1.86833	-6.00000e+00	
			         1.87000	-7.00000e+00	
			         1.87167	-8.00000e+00	
			         1.87333	-9.00000e+00	
			         1.87500	-9.00000e+00	
			         1.87667	-9.00000e+00	
			         1.87833	-9.00000e+00	
			         1.88000	-8.00000e+00	
			         1.88167	-8.00000e+00	
			         1.88333	-7.00000e+00	
			         1.88500	-6.00000e+00	
			         1.88667	-5.00000e+00	
			         1.88833	-4.00000e+00	
			         1.89000	-3.00000e+00	
			         1.89167	-3.00000e+00	
			         1.89333	-2.00000e+00	
			         1.89500	-2.00000e+00	
			         1.89667	-2.00000e+00	
			         1.89833	-2.00000e+00	
			         1.90000	-3.00000e+00	
			         1.90167	-3.00000e+00	
			         1.90333	-4.00000e+00	
			         1.90500	-5.00000e+00	
			         1.90667	-6.00000e+00	
			         1.90833	-7.00000e+00	
			         1.91000	-8.00000e+00	
			         1.91167	-9.00000e+00	
			         1.91333	-1.00000e+01	
			         1.91500	-1.10000e+01	
			         1.91667	-1.20000e+01	
			         1.91833	-1.20000e+01	
			         1.92000	-1.30000e+01	
			         1.92167	-1.40000e+01	
			         1.92333	-1.40000e+01	
			         1.92500	-1.40000e+01	
			         1.92667	-1.40000e+01	
			         1.92833	-1.30000e+01	
			         1.93000	-1.20000e+01	
			         1.93167	-1.10000e+01	
			         1.93333	-1.00000e+01	
			         1.93500	-9.00000e+00	
			         1.93667	-7.00000e+00	
			         1.93833	-6.00000e+00	
			         1.94000	-5.00000e+00	
			         1.94167	-4.00000e+00	
			         1.94333	-3.00000e+00	
			         1.94500	-2.00000e+00	
			         1.94667	-2.00000e+00	
			         1.94833	-2.00000e+00	
			         1.95000	-2.00000e+00	
			         1.95167	-3.00000e+00	
			         1.95333	-3.00000e+00	
			         1.95500	-3.00000e+00	
			         1.95667	-4.00000e+00	
			         1.95833	-4.00000e+00	
			         1.96000	-4.00000e+00	
			         1.96167	-4.00000e+00	
			         1.96333	-4.00000e+00	
			         1.96500	-4.00000e+00	
			         1.96667	-4.00000e+00	
			         1.96833	-3.00000e+00	
			         1.97000	-3.00000e+00	
			         1.97167	-2.00000e+00	
			         1.97333	-2.00000e+00	
			         1.97500	-1.00000e+00	
			         1.97667	-1.00000e+00	
			         1.97833	0.00000e+00	
			         1.98000	0.00000e+00	
			         1.98167	0.00000e+00	
			         1.98333	1.00000e+00	
			         1.98500	1.00000e+00	
			         1.98667	1.00000e+00	
			         1.98833	2.00000e+00	
			         1.99000	2.00000e+00	
			         1.99167	2.00000e+00	
			         1.99333	2.00000e+00	
			         1.99500	2.00000e+00	
			         1.99667	2.00000e+00	
			         1.99833	3.00000e+00	
			         2.00000	3.00000e+00	
			         2.00167	3.00000e+00	
			         2.00333	4.00000e+00	
			         2.00500	4.00000e+00	
			         2.00667	5.00000e+00	
			         2.00833	5.00000e+00	
			         2.01000	6.00000e+00	
			         2.01167	6.00000e+00	
			         2.01333	7.00000e+00	
			         2.01500	7.00000e+00	
			         2.01667	7.00000e+00	
			         2.01833	6.00000e+00	
			         2.02000	6.00000e+00	
			         2.02167	5.00000e+00	
			         2.02333	5.00000e+00	
			         2.02500	4.00000e+00	
			         2.02667	4.00000e+00	
			         2.02833	4.00000e+00	
			         2.03000	4.00000e+00	
			         2.03167	4.00000e+00	
			         2.03333	4.00000e+00	
			         2.03500	4.00000e+00	
			         2.03667	4.00000e+00	
			         2.03833	4.00000e+00	
			         2.04000	5.00000e+00	
			         2.04167	5.00000e+00	
			         2.04333	5.00000e+00	
			         2.04500	4.00000e+00	
			         2.04667	4.00000e+00	
			         2.04833	3.00000e+00	
			         2.05000	3.00000e+00	
			         2.05167	2.00000e+00	
			         2.05333	1.00000e+00	
			         2.05500	0.00000e+00	
			         2.05667	0.00000e+00	
			         2.05833	-1.00000e+00	
			         2.06000	-1.00000e+00	
			         2.06167	-2.00000e+00	
			         2.06333	-2.00000e+00	
			         2.06500	-2.00000e+00	
			         2.06667	-2.00000e+00	
			         2.06833	-2.00000e+00	
			         2.07000	-2.00000e+00	
			         2.07167	-2.00000e+00	
			         2.07333	-2.00000e+00	
			         2.07500	-2.00000e+00	
			         2.07667	-2.00000e+00	
			         2.07833	-2.00000e+00	
			         2.08000	-2.00000e+00	
			         2.08167	-3.00000e+00	
			         2.08333	-3.00000e+00	
			         2.08500	-3.00000e+00	
			         2.08667	-2.00000e+00	
			         2.08833	-2.00000e+00	
			         2.09000	-2.00000e+00	
			         2.09167	-2.00000e+00	
			         2.09333	-1.00000e+00	
			         2.09500	0.00000e+00	
			         2.09667	1.00000e+00	
			         2.09833	2.00000e+00	
			         2.10000	3.00000e+00	
			         2.10167	4.00000e+00	
			         2.10333	4.00000e+00	
			         2.10500	5.00000e+00	
			         2.10667	6.00000e+00	
			         2.10833	6.00000e+00	
			         2.11000	6.00000e+00	
			         2.11167	6.00000e+00	
			         2.11333	6.00000e+00	
			         2.11500	6.00000e+00	
			         2.11667	5.00000e+00	
			         2.11833	4.00000e+00	
			         2.12000	3.00000e+00	
			         2.12167	2.00000e+00	
			         2.12333	1.00000e+00	
			         2.12500	0.00000e+00	
			         2.12667	-1.00000e+00	
			         2.12833	-2.00000e+00	
			         2.13000	-3.00000e+00	
			         2.13167	-3.00000e+00	
			         2.13333	-3.00000e+00	
			         2.13500	-3.00000e+00	
			         2.13667	-3.00000e+00	
			         2.13833	-3.00000e+00	
			         2.14000	-2.00000e+00	
			         2.14167	-2.00000e+00	
			         2.14333	-1.00000e+00	
			         2.14500	-1.00000e+00	
			         2.14667	0.00000e+00	
			         2.14833	0.00000e+00	
			         2.15000	0.00000e+00	
			         2.15167	0.00000e+00	
			         2.15333	0.00000e+00	
			         2.15500	0.00000e+00	
			         2.15667	0.00000e+00	
			         2.15833	0.00000e+00	
			         2.16000	-1.00000e+00	
			         2.16167	-1.00000e+00	
			         2.16333	-2.00000e+00	
			         2.16500	-2.00000e+00	
			         2.16667	-3.00000e+00	
			         2.16833	-3.00000e+00	
			         2.17000	-4.00000e+00	
			         2.17167	-4.00000e+00	
			         2.17333	-4.00000e+00	
			         2.17500	-4.00000e+00	
			         2.17667	-4.00000e+00	
			         2.17833	-4.00000e+00	
			         2.18000	-4.00000e+00	
			         2.18167	-3.00000e+00	
			         2.18333	-2.00000e+00	
			         2.18500	-1.00000e+00	
			         2.18667	-1.00000e+00	
			         2.18833	0.00000e+00	
			         2.19000	0.00000e+00	
			         2.19167	0.00000e+00	
			         2.19333	0.00000e+00	
			         2.19500	0.00000e+00	
			         2.19667	0.00000e+00	
			         2.19833	0.00000e+00	
			         2.20000	0.00000e+00	
			         2.20167	1.00000e+00	
			         2.20333	1.00000e+00	
			         2.20500	1.00000e+00	
			         2.20667	1.00000e+00	
			         2.20833	2.00000e+00	
			         2.21000	3.00000e+00	
			         2.21167	3.00000e+00	
			         2.21333	4.00000e+00	
			         2.21500	4.00000e+00	
			         2.21667	4.00000e+00	
			         2.21833	4.00000e+00	
			         2.22000	4.00000e+00	
			         2.22167	3.00000e+00	
			         2.22333	1.00000e+00	
			         2.22500	0.00000e+00	
			         2.22667	-2.00000e+00	
			         2.22833	-3.00000e+00	
			         2.23000	-5.00000e+00	
			         2.23167	-7.00000e+00	
			         2.23333	-8.00000e+00	
			         2.23500	-9.00000e+00	
			         2.23667	-1.00000e+01	
			         2.23833	-1.00000e+01	
			         2.24000	-1.00000e+01	
			         2.24167	-1.00000e+01	
			         2.24333	-9.00000e+00	
			         2.24500	-8.00000e+00	
			         2.24667	-6.00000e+00	
			         2.24833	-5.00000e+00	
			         2.25000	-4.00000e+00	
			         2.25167	-2.00000e+00	
			         2.25333	-1.00000e+00	
			         2.25500	-1.00000e+00	
			         2.25667	0.00000e+00	
			         2.25833	0.00000e+00	
			         2.26000	0.00000e+00	
			         2.26167	0.00000e+00	
			         2.26333	-1.00000e+00	
			         2.26500	-1.00000e+00	
			         2.26667	-2.00000e+00	
			         2.26833	-3.00000e+00	
			         2.27000	-3.00000e+00	
			         2.27167	-4.00000e+00	
			         2.27333	-5.00000e+00	
			         2.27500	-5.00000e+00	
			         2.27667	-5.00000e+00	
			         2.27833	-6.00000e+00	
			         2.28000	-6.00000e+00	
			         2.28167	-6.00000e+00	
			         2.28333	-5.00000e+00	
			         2.28500	-5.00000e+00	
			         2.28667	-4.00000e+00	
			         2.28833	-4.00000e+00	
			         2.29000	-3.00000e+00	
			         2.29167	-3.00000e+00	
			         2.29333	-2.00000e+00	
			         2.29500	-2.00000e+00	
			         2.29667	-1.00000e+00	
			         2.29833	-1.00000e+00	
			         2.30000	-1.00000e+00	
			         2.30167	-1.00000e+00	
			         2.30333	-2.00000e+00	
			         2.30500	-3.00000e+00	
			         2.30667	-4.00000e+00	
			         2.30833	-4.00000e+00	
			         2.31000	-5.00000e+00	
			         2.31167	-6.00000e+00	
			         2.31333	-7.00000e+00	
			         2.31500	-8.00000e+00	
			         2.31667	-9.00000e+00	
			         2.31833	-9.00000e+00	
			         2.32000	-8.00000e+00	
			         2.32167	-8.00000e+00	
			         2.32333	-7.00000e+00	
			         2.32500	-6.00000e+00	
			         2.32667	-5.00000e+00	
			         2.32833	-4.00000e+00	
			         2.33000	-2.00000e+00	
			         2.33167	-1.00000e+00	
			         2.33333	0.00000e+00	
			         2.33500	1.00000e+00	
			         2.33667	2.00000e+00	
			         2.33833	3.00000e+00	
			         2.34000	3.00000e+00	
			         2.34167	3.00000e+00	
			         2.34333	3.00000e+00	
			         2.34500	3.00000e+00	
			         2.34667	3.00000e+00	
			         2.34833	3.00000e+00	
			         2.35000	2.00000e+00	
			         2.35167	2.00000e+00	
			         2.35333	1.00000e+00	
			         2.35500	1.00000e+00	
			         2.35667	1.00000e+00	
			         2.35833	1.00000e+00	
			         2.36000	1.00000e+00	
			         2.36167	2.00000e+00	
			         2.36333	2.00000e+00	
			         2.36500	3.00000e+00	
			         2.36667	3.00000e+00	
			         2.36833	4.00000e+00	
			         2.37000	5.00000e+00	
			         2.37167	6.00000e+00	
			         2.37333	6.00000e+00	
			         2.37500	7.00000e+00	
			         2.37667	7.00000e+00	
			         2.37833	8.00000e+00	
			         2.38000	8.00000e+00	
			         2.38167	8.00000e+00	
			         2.38333	8.00000e+00	
			         2.38500	8.00000e+00	
			         2.38667	8.00000e+00	
			         2.38833	8.00000e+00	
			         2.39000	7.00000e+00	
			         2.39167	7.00000e+00	
			         2.39333	6.00000e+00	
			         2.39500	6.00000e+00	
			         2.39667	6.00000e+00	
			         2.39833	5.00000e+00	
			         2.40000	5.00000e+00	
			         2.40167	5.00000e+00	
			         2.40333	4.00000e+00	
			         2.40500	3.00000e+00	
			         2.40667	2.00000e+00	
			         2.40833	0.00000e+00	
			         2.41000	-2.00000e+00	
			         2.41167	-5.00000e+00	
			         2.41333	-8.00000e+00	
			         2.41500	-1.10000e+01	
			         2.41667	-1.50000e+01	
			         2.41833	-1.80000e+01	
			         2.42000	-2.20000e+01	
			         2.42167	-2.60000e+01	
			         2.42333	-3.00000e+01	
			         2.42500	-3.30000e+01	
			         2.42667	-3.60000e+01	
			         2.42833	-3.90000e+01	
			         2.43000	-4.10000e+01	
			         2.43167	-4.20000e+01	
			         2.43333	-4.30000e+01	
			         2.43500	-4.40000e+01	
			         2.43667	-4.30000e+01	
			         2.43833	-4.30000e+01	
			         2.44000	-4.10000e+01	
			         2.44167	-3.90000e+01	
			         2.44333	-3.70000e+01	
			         2.44500	-3.50000e+01	
			         2.44667	-3.20000e+01	
			         2.44833	-2.90000e+01	
			         2.45000	-2.60000e+01	
			         2.45167	-2.30000e+01	
			         2.45333	-2.00000e+01	
			         2.45500	-1.70000e+01	
			         2.45667	-1.50000e+01	
			         2.45833	-1.20000e+01	
			         2.46000	-1.00000e+01	
			         2.46167	-8.00000e+00	
			         2.46333	-6.00000e+00	
			         2.46500	-5.00000e+00	
			         2.46667	-3.00000e+00	
			         2.46833	-1.00000e+00	
			         2.47000	0.00000e+00	
			         2.47167	2.00000e+00	
			         2.47333	4.00000e+00	
			         2.47500	5.00000e+00	
			         2.47667	7.00000e+00	
			         2.47833	8.00000e+00	
			         2.48000	1.00000e+01	
			         2.48167	1.10000e+01	
			         2.48333	1.20000e+01	
			         2.48500	1.40000e+01	
