Velocity (TVI), in cm/s

Time (s) :	Trace 1 : 		Ecg : 		
0.01063   	-1.26107e+00		         0.00000	-1.10000e+01	
0.01647   	-6.77774e-01		         0.00167	-2.00000e+00	
0.02230   	-9.00661e-01		         0.00333	1.00000e+01	
0.02814   	-1.56843e-01		         0.00500	2.40000e+01	
0.03397   	4.61596e-01		         0.00667	4.10000e+01	
0.03981   	5.50257e-01		         0.00833	6.20000e+01	
0.04564   	4.95632e-01		         0.01000	8.80000e+01	
0.05148   	4.12539e-01		         0.01167	1.19000e+02	
0.05770   	-5.73601e-01		         0.01333	1.54000e+02	
0.06315   	-1.22455e+00		         0.01500	1.94000e+02	
0.06899   	-1.26300e+00		         0.01667	2.37000e+02	
0.07482   	-1.49566e+00		         0.01833	2.81000e+02	
0.08066   	-7.89692e-01		         0.02000	3.26000e+02	
0.08649   	2.28787e-01		         0.02167	3.68000e+02	
0.09233   	1.24734e+00		         0.02333	4.08000e+02	
0.09817   	2.24827e+00		         0.02500	4.41000e+02	
0.10400   	3.19172e+00		         0.02667	4.68000e+02	
0.10983   	3.81566e+00		         0.02833	4.85000e+02	
0.11567   	4.23504e+00		         0.03000	4.93000e+02	
0.12151   	4.38680e+00		         0.03167	4.91000e+02	
0.12734   	4.39462e+00		         0.03333	4.77000e+02	
0.13318   	4.45805e+00		         0.03500	4.52000e+02	
0.13901   	4.45470e+00		         0.03667	4.18000e+02	
0.14485   	4.39973e+00		         0.03833	3.77000e+02	
0.15068   	4.39733e+00		         0.04000	3.30000e+02	
0.15652   	4.52459e+00		         0.04167	2.78000e+02	
0.16236   	4.52431e+00		         0.04333	2.25000e+02	
0.16819   	4.59826e+00		         0.04500	1.71000e+02	
0.17403   	4.73791e+00		         0.04667	1.19000e+02	
0.17986   	4.83882e+00		         0.04833	6.90000e+01	
0.18570   	4.96645e+00		         0.05000	2.30000e+01	
0.19154   	5.03140e+00		         0.05167	-1.90000e+01	
0.19737   	5.06569e+00		         0.05333	-5.60000e+01	
0.20320   	5.11118e+00		         0.05500	-8.70000e+01	
0.20904   	4.99536e+00		         0.05667	-1.13000e+02	
0.21488   	4.92000e+00		         0.05833	-1.34000e+02	
0.22071   	4.88851e+00		         0.06000	-1.51000e+02	
0.22655   	4.86771e+00		         0.06167	-1.64000e+02	
0.23238   	4.77322e+00		         0.06333	-1.74000e+02	
0.23822   	4.79881e+00		         0.06500	-1.80000e+02	
0.24406   	4.75975e+00		         0.06667	-1.84000e+02	
0.24989   	4.66624e+00		         0.06833	-1.86000e+02	
0.25572   	4.58702e+00		         0.07000	-1.86000e+02	
0.26156   	4.54624e+00		         0.07167	-1.86000e+02	
0.26740   	4.40401e+00		         0.07333	-1.84000e+02	
0.27360   	4.29935e+00		         0.07500	-1.82000e+02	
0.27907   	4.19651e+00		         0.07667	-1.80000e+02	
0.28491   	4.07169e+00		         0.07833	-1.78000e+02	
0.29074   	3.94035e+00		         0.08000	-1.75000e+02	
0.29658   	3.94514e+00		         0.08167	-1.73000e+02	
0.30241   	3.86595e+00		         0.08333	-1.71000e+02	
0.30825   	3.81614e+00		         0.08500	-1.69000e+02	
0.31409   	3.71786e+00		         0.08667	-1.67000e+02	
0.31992   	3.61455e+00		         0.08833	-1.65000e+02	
0.32575   	3.50215e+00		         0.09000	-1.63000e+02	
0.33159   	3.36062e+00		         0.09167	-1.60000e+02	
0.33742   	3.17496e+00		         0.09333	-1.58000e+02	
0.34326   	3.03651e+00		         0.09500	-1.55000e+02	
0.34909   	2.86172e+00		         0.09667	-1.52000e+02	
0.35493   	2.64658e+00		         0.09833	-1.50000e+02	
0.36077   	2.45808e+00		         0.10000	-1.47000e+02	
0.36660   	2.29109e+00		         0.10167	-1.43000e+02	
0.37244   	2.05990e+00		         0.10333	-1.40000e+02	
0.37828   	1.81161e+00		         0.10500	-1.37000e+02	
0.38411   	1.53675e+00		         0.10667	-1.33000e+02	
0.38994   	1.43350e+00		         0.10833	-1.29000e+02	
0.39578   	1.03881e+00		         0.11000	-1.25000e+02	
0.40162   	5.03961e-01		         0.11167	-1.21000e+02	
0.40745   	-4.47265e-02		         0.11333	-1.17000e+02	
0.41329   	-6.46386e-01		         0.11500	-1.14000e+02	
0.41912   	-1.39804e+00		         0.11667	-1.11000e+02	
0.42496   	-1.64820e+00		         0.11833	-1.08000e+02	
0.43079   	-1.63233e+00		         0.12000	-1.06000e+02	
0.43663   	-1.52286e+00		         0.12167	-1.04000e+02	
0.44246   	-1.28316e+00		         0.12333	-1.02000e+02	
0.44830   	-9.05477e-01		         0.12500	-1.01000e+02	
0.45414   	-7.27091e-01		         0.12667	-1.01000e+02	
0.45998   	-5.69374e-01		         0.12833	-1.01000e+02	
0.46581   	-5.29727e-01		         0.13000	-1.01000e+02	
0.47164   	-5.31439e-01		         0.13167	-1.02000e+02	
0.47748   	-1.00298e+00		         0.13333	-1.02000e+02	
0.48331   	-1.41319e+00		         0.13500	-1.02000e+02	
0.48940   	-1.99885e+00		         0.13667	-1.01000e+02	
0.49499   	-2.79393e+00		         0.13833	-1.00000e+02	
0.50082   	-3.81605e+00		         0.14000	-9.90000e+01	
0.50666   	-4.65173e+00		         0.14167	-9.70000e+01	
0.51249   	-5.82609e+00		         0.14333	-9.60000e+01	
0.51833   	-6.77379e+00		         0.14500	-9.30000e+01	
0.52416   	-7.19003e+00		         0.14667	-9.10000e+01	
0.53000   	-7.44549e+00		         0.14833	-8.90000e+01	
0.53583   	-7.23711e+00		         0.15000	-8.70000e+01	
0.54167   	-6.82407e+00		         0.15167	-8.40000e+01	
0.54751   	-6.45090e+00		         0.15333	-8.20000e+01	
0.55334   	-6.29925e+00		         0.15500	-7.90000e+01	
0.55918   	-5.88503e+00		         0.15667	-7.70000e+01	
0.56501   	-5.69749e+00		         0.15833	-7.50000e+01	
0.57085   	-5.34685e+00		         0.16000	-7.30000e+01	
0.57669   	-4.91658e+00		         0.16167	-7.10000e+01	
0.58252   	-4.47472e+00		         0.16333	-6.90000e+01	
0.58836   	-4.15999e+00		         0.16500	-6.70000e+01	
0.59419   	-3.96509e+00		         0.16667	-6.50000e+01	
0.60003   	-3.68142e+00		         0.16833	-6.30000e+01	
0.60586   	-3.58760e+00		         0.17000	-6.10000e+01	
0.61170   	-3.33009e+00		         0.17167	-5.90000e+01	
0.61753   	-3.10656e+00		         0.17333	-5.80000e+01	
0.62337   	-2.76757e+00		         0.17500	-5.60000e+01	
0.62921   	-2.58145e+00		         0.17667	-5.40000e+01	
0.63504   	-2.24172e+00		         0.17833	-5.20000e+01	
0.64088   	-2.00689e+00		         0.18000	-5.00000e+01	
0.64671   	-1.75792e+00		         0.18167	-4.80000e+01	
0.65255   	-1.48758e+00		         0.18333	-4.50000e+01	
0.65838   	-1.21010e+00		         0.18500	-4.20000e+01	
0.66422   	-9.42320e-01		         0.18667	-3.90000e+01	
0.67005   	-8.38479e-01		         0.18833	-3.70000e+01	
0.67589   	-8.24989e-01		         0.19000	-3.40000e+01	
0.68173   	-8.64304e-01		         0.19167	-3.10000e+01	
0.68756   	-8.99922e-01		         0.19333	-2.90000e+01	
0.69340   	-1.02937e+00		         0.19500	-2.70000e+01	
0.69923   	-1.03661e+00		         0.19667	-2.50000e+01	
0.70529   	-8.12064e-01		         0.19833	-2.40000e+01	
0.71090   	-7.12508e-01		         0.20000	-2.30000e+01	
0.71674   	-5.99393e-01		         0.20167	-2.20000e+01	
0.72257   	-4.29942e-01		         0.20333	-2.10000e+01	
0.72841   	-2.20374e-01		         0.20500	-2.00000e+01	
0.73425   	-1.57175e-01		         0.20667	-2.00000e+01	
0.74009   	3.09275e-02		         0.20833	-2.00000e+01	
0.74592   	2.26144e-01		         0.21000	-2.00000e+01	
0.75175   	4.17338e-01		         0.21167	-2.00000e+01	
0.75759   	4.87115e-01		         0.21333	-2.00000e+01	
0.76342   	1.49877e-01		         0.21500	-2.00000e+01	
0.76926   	-3.00890e-01		         0.21667	-2.10000e+01	
0.77510   	-9.28650e-01		         0.21833	-2.10000e+01	
0.78093   	-1.89279e+00		         0.22000	-2.10000e+01	
0.78677   	-3.12550e+00		         0.22167	-2.20000e+01	
0.79260   	-4.24815e+00		         0.22333	-2.20000e+01	
0.79844   	-5.26916e+00		         0.22500	-2.20000e+01	
0.80427   	-6.25327e+00		         0.22667	-2.20000e+01	
0.81011   	-6.84668e+00		         0.22833	-2.20000e+01	
0.81594   	-6.97474e+00		         0.23000	-2.10000e+01	
0.82178   	-6.62736e+00		         0.23167	-2.00000e+01	
0.82762   	-6.29613e+00		         0.23333	-1.90000e+01	
0.83345   	-5.58309e+00		         0.23500	-1.70000e+01	
0.83929   	-4.80724e+00		         0.23667	-1.40000e+01	
0.84513   	-3.98199e+00		         0.23833	-1.10000e+01	
0.85096   	-3.15217e+00		         0.24000	-8.00000e+00	
0.85679   	-2.56409e+00		         0.24167	-5.00000e+00	
0.86263   	-1.98503e+00		         0.24333	-1.00000e+00	
0.86847   	-1.31746e+00		         0.24500	2.00000e+00	
0.87430   	-1.32730e+00		         0.24667	6.00000e+00	
0.88014   	-8.67866e-01		         0.24833	1.00000e+01	
0.88597   	7.71092e-02		         0.25000	1.40000e+01	
0.89181   	4.63303e-01		         0.25167	1.70000e+01	
0.89764   	2.18947e-01		         0.25333	2.10000e+01	
0.90348   	7.72954e-01		         0.25500	2.50000e+01	
0.90932   	-2.71485e-01		         0.25667	2.80000e+01	
0.91516   	-9.61984e-01		         0.25833	3.20000e+01	
0.92104   	-1.26860e+00		         0.26000	3.60000e+01	
0.92682   	-9.60867e-01		         0.26167	3.90000e+01	
0.93266   	-1.04112e+00		         0.26333	4.30000e+01	
0.93849   	-1.66370e-01		         0.26500	4.60000e+01	
0.94433   	4.62694e-01		         0.26667	5.00000e+01	
0.95016   	1.23765e+00		         0.26833	5.40000e+01	
0.95600   	2.01382e+00		         0.27000	5.70000e+01	
0.96184   	2.84627e+00		         0.27167	6.10000e+01	
0.96767   	3.72488e+00		         0.27333	6.50000e+01	
0.97351   	4.15311e+00		         0.27500	6.80000e+01	
0.97934   	4.38180e+00		         0.27667	7.20000e+01	
0.98518   	4.47386e+00		         0.27833	7.50000e+01	
0.99101   	4.58683e+00		         0.28000	7.80000e+01	
0.99685   	4.59453e+00		         0.28167	8.10000e+01	
1.00268   	4.77374e+00		         0.28333	8.30000e+01	
1.00852   	4.90565e+00		         0.28500	8.50000e+01	
1.01436   	4.93101e+00		         0.28667	8.70000e+01	
1.02019   	4.93746e+00		         0.28833	8.80000e+01	
1.02603   	5.06781e+00		         0.29000	8.90000e+01	
1.03186   	5.00930e+00		         0.29167	9.00000e+01	
1.03770   	4.94191e+00		         0.29333	9.10000e+01	
1.04353   	5.00493e+00		         0.29500	9.10000e+01	
1.04937   	5.06147e+00		         0.29667	9.20000e+01	
1.05521   	5.01706e+00		         0.29833	9.20000e+01	
1.06104   	5.02032e+00		         0.30000	9.30000e+01	
1.06688   	5.03263e+00		         0.30167	9.30000e+01	
1.07271   	4.90607e+00		         0.30333	9.40000e+01	
1.07855   	4.73797e+00		         0.30500	9.40000e+01	
1.08438   	4.69536e+00		         0.30667	9.50000e+01	
1.09022   	4.64103e+00		         0.30833	9.50000e+01	
1.09605   	4.60597e+00		         0.31000	9.60000e+01	
1.10189   	4.53557e+00		         0.31167	9.60000e+01	
1.10773   	4.56630e+00		         0.31333	9.50000e+01	
1.11356   	4.40376e+00		         0.31500	9.50000e+01	
1.11939   	4.32375e+00		         0.31667	9.40000e+01	
1.12524   	4.16664e+00		         0.31833	9.30000e+01	
1.13107   	4.11107e+00		         0.32000	9.10000e+01	
1.13690   	3.89875e+00		         0.32167	8.90000e+01	
1.14274   	3.79470e+00		         0.32333	8.70000e+01	
1.14858   	3.67095e+00		         0.32500	8.40000e+01	
1.15441   	3.59462e+00		         0.32667	8.10000e+01	
1.16025   	3.50502e+00		         0.32833	7.70000e+01	
1.16608   	3.47312e+00		         0.33000	7.40000e+01	
1.17192   	3.32588e+00		         0.33167	7.00000e+01	
1.17775   	3.22286e+00		         0.33333	6.50000e+01	
1.18359   	3.12277e+00		         0.33500	6.10000e+01	
1.18942   	2.96546e+00		         0.33667	5.60000e+01	
1.19526   	2.84062e+00		         0.33833	5.10000e+01	
1.20110   	2.74029e+00		         0.34000	4.50000e+01	
1.20693   	2.52214e+00		         0.34167	3.90000e+01	
1.21277   	2.34578e+00		         0.34333	3.30000e+01	
1.21860   	2.16384e+00		         0.34500	2.70000e+01	
1.22444   	1.96608e+00		         0.34667	2.00000e+01	
1.23027   	1.74385e+00		         0.34833	1.40000e+01	
1.23645   	1.53777e+00		         0.35000	8.00000e+00	
1.24195   	1.21260e+00		         0.35167	2.00000e+00	
1.24778   	9.05189e-01		         0.35333	-3.00000e+00	
1.25361   	3.27520e-01		         0.35500	-8.00000e+00	
1.25945   	-2.86466e-01		         0.35667	-1.20000e+01	
1.26529   	-9.10896e-01		         0.35833	-1.60000e+01	
1.27113   	-1.54355e+00		         0.36000	-1.90000e+01	
1.27696   	-2.06822e+00		         0.36167	-2.20000e+01	
1.28279   	-2.16744e+00		         0.36333	-2.30000e+01	
1.28863   	-2.05051e+00		         0.36500	-2.50000e+01	
1.29447   	-1.77572e+00		         0.36667	-2.60000e+01	
1.30030   	-1.43750e+00		         0.36833	-2.70000e+01	
1.30614   	-1.15156e+00		         0.37000	-2.80000e+01	
1.31197   	-9.93523e-01		         0.37167	-3.00000e+01	
1.31781   	-9.28492e-01		         0.37333	-3.10000e+01	
1.32364   	-1.06884e+00		         0.37500	-3.20000e+01	
1.32948   	-1.31652e+00		         0.37667	-3.40000e+01	
1.33531   	-1.78968e+00		         0.37833	-3.60000e+01	
1.34115   	-2.05620e+00		         0.38000	-3.80000e+01	
1.34699   	-2.59432e+00		         0.38167	-3.90000e+01	
1.35282   	-3.57786e+00		         0.38333	-4.10000e+01	
1.35866   	-4.30780e+00		         0.38500	-4.30000e+01	
1.36449   	-4.94243e+00		         0.38667	-4.40000e+01	
1.37033   	-5.97661e+00		         0.38833	-4.40000e+01	
1.37617   	-6.66527e+00		         0.39000	-4.40000e+01	
1.38200   	-6.77083e+00		         0.39167	-4.40000e+01	
1.38783   	-6.87498e+00		         0.39333	-4.40000e+01	
1.39367   	-6.86510e+00		         0.39500	-4.30000e+01	
1.39951   	-6.60025e+00		         0.39667	-4.20000e+01	
1.40534   	-6.34543e+00		         0.39833	-4.00000e+01	
1.41118   	-5.98852e+00		         0.40000	-3.90000e+01	
1.41701   	-5.67255e+00		         0.40167	-3.70000e+01	
1.42285   	-5.32590e+00		         0.40333	-3.50000e+01	
1.42869   	-4.99454e+00		         0.40500	-3.30000e+01	
1.43452   	-4.60630e+00		         0.40667	-3.20000e+01	
1.44036   	-4.39006e+00		         0.40833	-3.10000e+01	
1.44619   	-3.97861e+00		         0.41000	-3.00000e+01	
1.45225   	-3.78004e+00		         0.41167	-3.00000e+01	
1.45787   	-3.56428e+00		         0.41333	-3.00000e+01	
1.46370   	-3.40822e+00		         0.41500	-3.00000e+01	
1.46953   	-3.06660e+00		         0.41667	-3.10000e+01	
1.47537   	-3.00079e+00		         0.41833	-3.20000e+01	
1.48121   	-2.60441e+00		         0.42000	-3.30000e+01	
1.48704   	-2.31404e+00		         0.42167	-3.40000e+01	
1.49288   	-2.07009e+00		         0.42333	-3.50000e+01	
1.49871   	-1.85713e+00		         0.42500	-3.60000e+01	
1.50455   	-1.62232e+00		         0.42667	-3.60000e+01	
1.51038   	-1.55408e+00		         0.42833	-3.60000e+01	
1.51622   	-1.46904e+00		         0.43000	-3.60000e+01	
1.52206   	-1.21066e+00		         0.43167	-3.60000e+01	
1.52789   	-1.07567e+00		         0.43333	-3.50000e+01	
1.53372   	-1.04519e+00		         0.43500	-3.40000e+01	
1.53956   	-9.08234e-01		         0.43667	-3.20000e+01	
1.54540   	-8.65194e-01		         0.43833	-3.10000e+01	
1.55123   	-1.00573e+00		         0.44000	-2.90000e+01	
1.55707   	-1.08817e+00		         0.44167	-2.80000e+01	
1.56290   	-9.56821e-01		         0.44333	-2.60000e+01	
1.56874   	-1.00370e+00		         0.44500	-2.40000e+01	
1.57458   	-8.08522e-01		         0.44667	-2.20000e+01	
1.58041   	-5.84911e-01		         0.44833	-2.00000e+01	
1.58624   	-3.62714e-01		         0.45000	-1.80000e+01	
1.59208   	-2.40368e-01		         0.45167	-1.70000e+01	
1.59792   	-1.49532e-01		         0.45333	-1.60000e+01	
1.60375   	-2.27459e-01		         0.45500	-1.50000e+01	
1.60959   	-6.24886e-01		         0.45667	-1.40000e+01	
1.61542   	-1.09494e+00		         0.45833	-1.40000e+01	
1.62126   	-2.34533e+00		         0.46000	-1.40000e+01	
1.62710   	-3.92810e+00		         0.46167	-1.30000e+01	
1.63293   	-5.26179e+00		         0.46333	-1.30000e+01	
1.63877   	-6.16156e+00		         0.46500	-1.40000e+01	
1.64460   	-7.18028e+00		         0.46667	-1.40000e+01	
1.65044   	-7.46187e+00		         0.46833	-1.40000e+01	
1.65627   	-7.20754e+00		         0.47000	-1.40000e+01	
1.66211   	-7.17671e+00		         0.47167	-1.40000e+01	
1.66799   	-7.14080e+00		         0.47333	-1.30000e+01	
1.67378   	-6.67342e+00		         0.47500	-1.30000e+01	
1.67962   	-6.01310e+00		         0.47667	-1.30000e+01	
1.68545   	-5.24100e+00		         0.47833	-1.20000e+01	
1.69129   	-4.31935e+00		         0.48000	-1.20000e+01	
1.69712   	-3.38232e+00		         0.48167	-1.10000e+01	
1.70296   	-2.65863e+00		         0.48333	-1.10000e+01	
1.70880   	-2.16755e+00		         0.48500	-1.10000e+01	
1.71463   	-1.19947e+00		         0.48667	-1.00000e+01	
1.72046   	-7.33440e-01		         0.48833	-9.00000e+00	
1.72630   	-5.89634e-02		         0.49000	-8.00000e+00	
1.73214   	6.12849e-01		         0.49167	-8.00000e+00	
1.73799   	6.64147e-01		         0.49333	-7.00000e+00	
1.74381   	2.09660e-01		         0.49500	-6.00000e+00	
1.74964   	1.97725e-01		         0.49667	-6.00000e+00	
1.75548   	-7.52660e-01		         0.49833	-5.00000e+00	
1.76132   	-1.41718e+00		         0.50000	-5.00000e+00	
1.76715   	-1.43087e+00		         0.50167	-4.00000e+00	
1.77299   	-1.28572e+00		         0.50333	-3.00000e+00	
1.77882   	-1.24426e+00		         0.50500	-2.00000e+00	
1.78465   	-5.08382e-01		         0.50667	-2.00000e+00	
1.79049   	1.52061e-01		         0.50833	-1.00000e+00	
1.79633   	1.37225e+00		         0.51000	0.00000e+00	
1.80217   	2.23138e+00		         0.51167	0.00000e+00	
1.80800   	3.16777e+00		         0.51333	0.00000e+00	
1.81384   	4.09541e+00		         0.51500	1.00000e+00	
1.81967   	4.69469e+00		         0.51667	1.00000e+00	
1.82551   	4.83665e+00		         0.51833	1.00000e+00	
1.83134   	4.97473e+00		         0.52000	1.00000e+00	
1.83718   	5.03498e+00		         0.52167	1.00000e+00	
1.84301   	5.04283e+00		         0.52333	1.00000e+00	
1.84885   	5.00596e+00		         0.52500	1.00000e+00	
1.85469   	4.94752e+00		         0.52667	1.00000e+00	
1.86052   	4.97332e+00		         0.52833	0.00000e+00	
1.86635   	4.95659e+00		         0.53000	0.00000e+00	
1.87219   	5.00134e+00		         0.53167	1.00000e+00	
1.87803   	5.11999e+00		         0.53333	2.00000e+00	
1.88400   	5.16801e+00		         0.53500	3.00000e+00	
1.88970   	5.21312e+00		         0.53667	4.00000e+00	
1.89554   	5.32280e+00		         0.53833	6.00000e+00	
1.90137   	5.22286e+00		         0.54000	8.00000e+00	
1.90721   	5.11014e+00		         0.54167	9.00000e+00	
1.91304   	5.05754e+00		         0.54333	1.10000e+01	
1.91888   	4.95040e+00		         0.54500	1.10000e+01	
1.92471   	4.83889e+00		         0.54667	1.20000e+01	
1.93055   	4.80581e+00		         0.54833	1.20000e+01	
1.93638   	4.77395e+00		         0.55000	1.20000e+01	
1.94222   	4.67551e+00		         0.55167	1.10000e+01	
1.94805   	4.63095e+00		         0.55333	1.00000e+01	
1.95389   	4.54851e+00		         0.55500	9.00000e+00	
1.95973   	4.46142e+00		         0.55667	7.00000e+00	
1.96556   	4.34699e+00		         0.55833	6.00000e+00	
1.97140   	4.32430e+00		         0.56000	4.00000e+00	
1.97723   	4.15759e+00		         0.56167	3.00000e+00	
1.98307   	4.05478e+00		         0.56333	2.00000e+00	
1.98891   	3.88773e+00		         0.56500	1.00000e+00	
1.99474   	3.79007e+00		         0.56667	1.00000e+00	
2.00057   	3.68090e+00		         0.56833	1.00000e+00	
2.00641   	3.62132e+00		         0.57000	0.00000e+00	
2.01225   	3.51484e+00		         0.57167	0.00000e+00	
2.01808   	3.34643e+00		         0.57333	-1.00000e+00	
2.02392   	3.19918e+00		         0.57500	-1.00000e+00	
2.02975   	3.05777e+00		         0.57667	-2.00000e+00	
2.03559   	2.88073e+00		         0.57833	-3.00000e+00	
2.04142   	2.76073e+00		         0.58000	-4.00000e+00	
2.04726   	2.72801e+00		         0.58167	-5.00000e+00	
2.05310   	2.66039e+00		         0.58333	-6.00000e+00	
2.05893   	2.49563e+00		         0.58500	-7.00000e+00	
2.06476   	2.36762e+00		         0.58667	-8.00000e+00	
2.07061   	2.19699e+00		         0.58833	-8.00000e+00	
2.07644   	1.93937e+00		         0.59000	-8.00000e+00	
2.08227   	1.67761e+00		         0.59167	-8.00000e+00	
2.08811   	1.37809e+00		         0.59333	-8.00000e+00	
2.09394   	9.97898e-01		         0.59500	-7.00000e+00	
2.09982   	6.03838e-01		         0.59667	-6.00000e+00	
2.10562   	7.71417e-02		         0.59833	-5.00000e+00	
2.11145   	-5.69079e-01		         0.60000	-5.00000e+00	
2.11729   	-1.14380e+00		         0.60167	-4.00000e+00	
2.12313   	-1.63331e+00		         0.60333	-3.00000e+00	
2.12896   	-1.85805e+00		         0.60500	-2.00000e+00	
2.13479   	-1.83900e+00		         0.60667	-1.00000e+00	
2.14063   	-1.70223e+00		         0.60833	0.00000e+00	
2.14647   	-1.47614e+00		         0.61000	1.00000e+00	
2.15230   	-1.32805e+00		         0.61167	2.00000e+00	
2.15814   	-1.41377e+00		         0.61333	3.00000e+00	
2.16397   	-1.33664e+00		         0.61500	4.00000e+00	
2.16981   	-1.47473e+00		         0.61667	4.00000e+00	
2.17565   	-1.70345e+00		         0.61833	5.00000e+00	
2.18148   	-1.94511e+00		         0.62000	5.00000e+00	
2.18732   	-2.27434e+00		         0.62167	5.00000e+00	
2.19315   	-3.04884e+00		         0.62333	5.00000e+00	
2.19937   	-3.63739e+00		         0.62500	5.00000e+00	
2.20482   	-4.30535e+00		         0.62667	4.00000e+00	
2.21066   	-5.15269e+00		         0.62833	3.00000e+00	
2.21649   	-5.99123e+00		         0.63000	2.00000e+00	
2.22233   	-6.40768e+00		         0.63167	1.00000e+00	
2.22817   	-6.67465e+00		         0.63333	-1.00000e+00	
2.23400   	-6.96401e+00		         0.63500	-2.00000e+00	
2.23984   	-6.89591e+00		         0.63667	-3.00000e+00	
2.24567   	-6.71049e+00		         0.63833	-3.00000e+00	
2.25151   	-6.49572e+00		         0.64000	-3.00000e+00	
2.25734   	-6.28058e+00		         0.64167	-3.00000e+00	
2.26318   	-5.95458e+00		         0.64333	-3.00000e+00	
2.26901   	-5.56257e+00		         0.64500	-2.00000e+00	
2.27485   	-5.07840e+00		         0.64667	-1.00000e+00	
2.28068   	-4.78794e+00		         0.64833	0.00000e+00	
2.28652   	-4.50891e+00		         0.65000	0.00000e+00	
2.29236   	-4.13309e+00		         0.65167	1.00000e+00	
2.29819   	-3.84617e+00		         0.65333	1.00000e+00	
2.30403   	-3.66051e+00		         0.65500	2.00000e+00	
2.30986   	-3.40225e+00		         0.65667	2.00000e+00	
2.31570   	-3.15988e+00		         0.65833	2.00000e+00	
2.32153   	-2.93868e+00		         0.66000	1.00000e+00	
2.32737   	-2.69652e+00		         0.66167	1.00000e+00	
2.33320   	-2.41395e+00		         0.66333	0.00000e+00	
2.33904   	-2.12452e+00		         0.66500	0.00000e+00	
2.34488   	-1.83302e+00		         0.66667	-1.00000e+00	
2.35071   	-1.65560e+00		         0.66833	-2.00000e+00	
2.35655   	-1.46230e+00		         0.67000	-2.00000e+00	
2.36238   	-1.36018e+00		         0.67167	-3.00000e+00	
2.36822   	-1.20385e+00		         0.67333	-3.00000e+00	
2.37405   	-1.11454e+00		         0.67500	-3.00000e+00	
2.37989   	-8.97819e-01		         0.67667	-3.00000e+00	
2.38573   	-8.32675e-01		         0.67833	-3.00000e+00	
2.39156   	-7.21480e-01		         0.68000	-2.00000e+00	
2.39739   	-6.59228e-01		         0.68167	-2.00000e+00	
2.40323   	-5.85749e-01		         0.68333	-2.00000e+00	
2.40907   	-5.81701e-01		         0.68500	-2.00000e+00	
2.41513   	-4.66007e-01		         0.68667	-2.00000e+00	
2.42074   	-3.21116e-01		         0.68833	-2.00000e+00	
2.42657   	-2.19403e-01		         0.69000	-1.00000e+00	
2.43241   	-9.62653e-02		         0.69167	-1.00000e+00	
2.43825   	1.22892e-02		         0.69333	0.00000e+00	
2.44409   	-1.68141e-02		         0.69500	1.00000e+00	
2.44992   	-1.55503e-01		         0.69667	2.00000e+00	
2.45576   	-1.02035e+00		         0.69833	4.00000e+00	
2.46159   	-2.21864e+00		         0.70000	6.00000e+00	
2.46742   	-3.61564e+00		         0.70167	9.00000e+00	
2.47326   	-5.04010e+00		         0.70333	1.20000e+01	
2.47910   	-6.45383e+00		         0.70500	1.60000e+01	
2.48493   	-7.15123e+00		         0.70667	2.00000e+01	
2.49077   	-7.56442e+00		         0.70833	2.40000e+01	
2.49660   	-7.60852e+00		         0.71000	2.80000e+01	
2.50244   	-7.47919e+00		         0.71167	3.20000e+01	
2.50827   	-7.22744e+00		         0.71333	3.70000e+01	
2.51411   	-6.86350e+00		         0.71500	4.00000e+01	
2.51995   	-6.42138e+00		         0.71667	4.40000e+01	
2.52578   	-5.81345e+00		         0.71833	4.80000e+01	
2.53162   	-5.01084e+00		         0.72000	5.10000e+01	
2.53745   	-4.24164e+00		         0.72167	5.40000e+01	
2.54329   	-3.59114e+00		         0.72333	5.70000e+01	
2.54913   	-3.04828e+00		         0.72500	5.90000e+01	
2.55496   	-2.39617e+00		         0.72667	6.10000e+01	
2.56079   	-2.13455e+00		         0.72833	6.20000e+01	
2.56663   	-1.59315e+00		         0.73000	6.40000e+01	
2.57247   	-5.46051e-01		         0.73167	6.50000e+01	
2.57830   	2.65960e+00		         0.73333	6.60000e+01	
2.58414   	3.52275e+00		         0.73500	6.70000e+01	
2.58997   	5.20820e+00		         0.73667	6.70000e+01	
			         0.73833	6.70000e+01	
			         0.74000	6.60000e+01	
			         0.74167	6.50000e+01	
			         0.74333	6.40000e+01	
			         0.74500	6.20000e+01	
			         0.74667	6.00000e+01	
			         0.74833	5.90000e+01	
			         0.75000	5.70000e+01	
			         0.75167	5.50000e+01	
			         0.75333	5.30000e+01	
			         0.75500	5.10000e+01	
			         0.75667	4.90000e+01	
			         0.75833	4.70000e+01	
			         0.76000	4.40000e+01	
			         0.76167	4.20000e+01	
			         0.76333	3.90000e+01	
			         0.76500	3.60000e+01	
			         0.76667	3.30000e+01	
			         0.76833	3.00000e+01	
			         0.77000	2.70000e+01	
			         0.77167	2.30000e+01	
			         0.77333	2.00000e+01	
			         0.77500	1.60000e+01	
			         0.77667	1.10000e+01	
			         0.77833	7.00000e+00	
			         0.78000	3.00000e+00	
			         0.78167	-2.00000e+00	
			         0.78333	-6.00000e+00	
			         0.78500	-1.00000e+01	
			         0.78667	-1.50000e+01	
			         0.78833	-1.90000e+01	
			         0.79000	-2.20000e+01	
			         0.79167	-2.60000e+01	
			         0.79333	-2.90000e+01	
			         0.79500	-3.20000e+01	
			         0.79667	-3.40000e+01	
			         0.79833	-3.70000e+01	
			         0.80000	-3.90000e+01	
			         0.80167	-4.10000e+01	
			         0.80333	-4.30000e+01	
			         0.80500	-4.50000e+01	
			         0.80667	-4.60000e+01	
			         0.80833	-4.80000e+01	
			         0.81000	-4.90000e+01	
			         0.81167	-5.10000e+01	
			         0.81333	-5.20000e+01	
			         0.81500	-5.20000e+01	
			         0.81667	-5.30000e+01	
			         0.81833	-5.30000e+01	
			         0.82000	-5.30000e+01	
			         0.82167	-5.30000e+01	
			         0.82333	-5.20000e+01	
			         0.82500	-5.10000e+01	
			         0.82667	-4.90000e+01	
			         0.82833	-4.80000e+01	
			         0.83000	-4.60000e+01	
			         0.83167	-4.50000e+01	
			         0.83333	-4.30000e+01	
			         0.83500	-4.20000e+01	
			         0.83667	-4.00000e+01	
			         0.83833	-3.90000e+01	
			         0.84000	-3.70000e+01	
			         0.84167	-3.50000e+01	
			         0.84333	-3.30000e+01	
			         0.84500	-3.10000e+01	
			         0.84667	-2.80000e+01	
			         0.84833	-2.50000e+01	
			         0.85000	-2.20000e+01	
			         0.85167	-1.70000e+01	
			         0.85333	-1.20000e+01	
			         0.85500	-5.00000e+00	
			         0.85667	4.00000e+00	
			         0.85833	1.60000e+01	
			         0.86000	3.00000e+01	
			         0.86167	4.80000e+01	
			         0.86333	7.00000e+01	
			         0.86500	9.60000e+01	
			         0.86667	1.28000e+02	
			         0.86833	1.63000e+02	
			         0.87000	2.03000e+02	
			         0.87167	2.46000e+02	
			         0.87333	2.90000e+02	
			         0.87500	3.34000e+02	
			         0.87667	3.76000e+02	
			         0.87833	4.15000e+02	
			         0.88000	4.48000e+02	
			         0.88167	4.74000e+02	
			         0.88333	4.92000e+02	
			         0.88500	4.99000e+02	
			         0.88667	4.97000e+02	
			         0.88833	4.83000e+02	
			         0.89000	4.59000e+02	
			         0.89167	4.26000e+02	
			         0.89333	3.86000e+02	
			         0.89500	3.40000e+02	
			         0.89667	2.91000e+02	
			         0.89833	2.40000e+02	
			         0.90000	1.88000e+02	
			         0.90167	1.37000e+02	
			         0.90333	8.90000e+01	
			         0.90500	4.40000e+01	
			         0.90667	3.00000e+00	
			         0.90833	-3.30000e+01	
			         0.91000	-6.40000e+01	
			         0.91167	-9.00000e+01	
			         0.91333	-1.13000e+02	
			         0.91500	-1.31000e+02	
			         0.91667	-1.46000e+02	
			         0.91833	-1.58000e+02	
			         0.92000	-1.68000e+02	
			         0.92167	-1.76000e+02	
			         0.92333	-1.82000e+02	
			         0.92500	-1.86000e+02	
			         0.92667	-1.89000e+02	
			         0.92833	-1.91000e+02	
			         0.93000	-1.92000e+02	
			         0.93167	-1.91000e+02	
			         0.93333	-1.90000e+02	
			         0.93500	-1.88000e+02	
			         0.93667	-1.86000e+02	
			         0.93833	-1.82000e+02	
			         0.94000	-1.78000e+02	
			         0.94167	-1.75000e+02	
			         0.94333	-1.70000e+02	
			         0.94500	-1.66000e+02	
			         0.94667	-1.62000e+02	
			         0.94833	-1.57000e+02	
			         0.95000	-1.53000e+02	
			         0.95167	-1.49000e+02	
			         0.95333	-1.44000e+02	
			         0.95500	-1.40000e+02	
			         0.95667	-1.36000e+02	
			         0.95833	-1.33000e+02	
			         0.96000	-1.29000e+02	
			         0.96167	-1.25000e+02	
			         0.96333	-1.22000e+02	
			         0.96500	-1.19000e+02	
			         0.96667	-1.16000e+02	
			         0.96833	-1.13000e+02	
			         0.97000	-1.10000e+02	
			         0.97167	-1.08000e+02	
			         0.97333	-1.05000e+02	
			         0.97500	-1.03000e+02	
			         0.97667	-1.01000e+02	
			         0.97833	-9.90000e+01	
			         0.98000	-9.60000e+01	
			         0.98167	-9.40000e+01	
			         0.98333	-9.10000e+01	
			         0.98500	-8.80000e+01	
			         0.98667	-8.50000e+01	
			         0.98833	-8.30000e+01	
			         0.99000	-8.00000e+01	
			         0.99167	-7.80000e+01	
			         0.99333	-7.60000e+01	
			         0.99500	-7.50000e+01	
			         0.99667	-7.30000e+01	
			         0.99833	-7.20000e+01	
			         1.00000	-7.10000e+01	
			         1.00167	-7.00000e+01	
			         1.00333	-6.90000e+01	
			         1.00500	-6.80000e+01	
			         1.00667	-6.70000e+01	
			         1.00833	-6.70000e+01	
			         1.01000	-6.60000e+01	
			         1.01167	-6.50000e+01	
			         1.01333	-6.40000e+01	
			         1.01500	-6.30000e+01	
			         1.01667	-6.10000e+01	
			         1.01833	-6.00000e+01	
			         1.02000	-5.80000e+01	
			         1.02167	-5.60000e+01	
			         1.02333	-5.40000e+01	
			         1.02500	-5.10000e+01	
			         1.02667	-4.90000e+01	
			         1.02833	-4.60000e+01	
			         1.03000	-4.30000e+01	
			         1.03167	-4.00000e+01	
			         1.03333	-3.80000e+01	
			         1.03500	-3.60000e+01	
			         1.03667	-3.40000e+01	
			         1.03833	-3.20000e+01	
			         1.04000	-3.10000e+01	
			         1.04167	-3.10000e+01	
			         1.04333	-3.00000e+01	
			         1.04500	-3.00000e+01	
			         1.04667	-3.00000e+01	
			         1.04833	-3.00000e+01	
			         1.05000	-3.10000e+01	
			         1.05167	-3.10000e+01	
			         1.05333	-3.10000e+01	
			         1.05500	-3.10000e+01	
			         1.05667	-3.00000e+01	
			         1.05833	-3.00000e+01	
			         1.06000	-2.90000e+01	
			         1.06167	-2.80000e+01	
			         1.06333	-2.70000e+01	
			         1.06500	-2.60000e+01	
			         1.06667	-2.40000e+01	
			         1.06833	-2.20000e+01	
			         1.07000	-1.90000e+01	
			         1.07167	-1.70000e+01	
			         1.07333	-1.40000e+01	
			         1.07500	-1.10000e+01	
			         1.07667	-8.00000e+00	
			         1.07833	-6.00000e+00	
			         1.08000	-3.00000e+00	
			         1.08167	-1.00000e+00	
			         1.08333	0.00000e+00	
			         1.08500	2.00000e+00	
			         1.08667	3.00000e+00	
			         1.08833	3.00000e+00	
			         1.09000	4.00000e+00	
			         1.09167	4.00000e+00	
			         1.09333	4.00000e+00	
			         1.09500	5.00000e+00	
			         1.09667	5.00000e+00	
			         1.09833	6.00000e+00	
			         1.10000	7.00000e+00	
			         1.10167	9.00000e+00	
			         1.10333	1.00000e+01	
			         1.10500	1.30000e+01	
			         1.10667	1.50000e+01	
			         1.10833	1.90000e+01	
			         1.11000	2.20000e+01	
			         1.11167	2.60000e+01	
			         1.11333	3.00000e+01	
			         1.11500	3.50000e+01	
			         1.11667	3.90000e+01	
			         1.11833	4.40000e+01	
			         1.12000	4.90000e+01	
			         1.12167	5.30000e+01	
			         1.12333	5.70000e+01	
			         1.12500	6.10000e+01	
			         1.12667	6.50000e+01	
			         1.12833	6.90000e+01	
			         1.13000	7.20000e+01	
			         1.13167	7.60000e+01	
			         1.13333	7.90000e+01	
			         1.13500	8.20000e+01	
			         1.13667	8.50000e+01	
			         1.13833	8.80000e+01	
			         1.14000	9.10000e+01	
			         1.14167	9.30000e+01	
			         1.14333	9.60000e+01	
			         1.14500	9.90000e+01	
			         1.14667	1.01000e+02	
			         1.14833	1.03000e+02	
			         1.15000	1.05000e+02	
			         1.15167	1.07000e+02	
			         1.15333	1.08000e+02	
			         1.15500	1.08000e+02	
			         1.15667	1.09000e+02	
			         1.15833	1.09000e+02	
			         1.16000	1.09000e+02	
			         1.16167	1.08000e+02	
			         1.16333	1.07000e+02	
			         1.16500	1.06000e+02	
			         1.16667	1.04000e+02	
			         1.16833	1.02000e+02	
			         1.17000	9.90000e+01	
			         1.17167	9.60000e+01	
			         1.17333	9.20000e+01	
			         1.17500	8.80000e+01	
			         1.17667	8.30000e+01	
			         1.17833	7.80000e+01	
			         1.18000	7.20000e+01	
			         1.18167	6.60000e+01	
			         1.18333	6.00000e+01	
			         1.18500	5.40000e+01	
			         1.18667	4.80000e+01	
			         1.18833	4.20000e+01	
			         1.19000	3.60000e+01	
			         1.19167	3.10000e+01	
			         1.19333	2.60000e+01	
			         1.19500	2.10000e+01	
			         1.19667	1.70000e+01	
			         1.19833	1.30000e+01	
			         1.20000	9.00000e+00	
			         1.20167	6.00000e+00	
			         1.20333	3.00000e+00	
			         1.20500	0.00000e+00	
			         1.20667	-3.00000e+00	
			         1.20833	-6.00000e+00	
			         1.21000	-1.00000e+01	
			         1.21167	-1.30000e+01	
			         1.21333	-1.60000e+01	
			         1.21500	-1.90000e+01	
			         1.21667	-2.20000e+01	
			         1.21833	-2.40000e+01	
			         1.22000	-2.70000e+01	
			         1.22167	-3.00000e+01	
			         1.22333	-3.20000e+01	
			         1.22500	-3.40000e+01	
			         1.22667	-3.60000e+01	
			         1.22833	-3.80000e+01	
			         1.23000	-3.90000e+01	
			         1.23167	-4.00000e+01	
			         1.23333	-4.10000e+01	
			         1.23500	-4.10000e+01	
			         1.23667	-4.20000e+01	
			         1.23833	-4.30000e+01	
			         1.24000	-4.30000e+01	
			         1.24167	-4.40000e+01	
			         1.24333	-4.40000e+01	
			         1.24500	-4.50000e+01	
			         1.24667	-4.50000e+01	
			         1.24833	-4.60000e+01	
			         1.25000	-4.60000e+01	
			         1.25167	-4.60000e+01	
			         1.25333	-4.60000e+01	
			         1.25500	-4.50000e+01	
			         1.25667	-4.40000e+01	
			         1.25833	-4.30000e+01	
			         1.26000	-4.10000e+01	
			         1.26167	-3.90000e+01	
			         1.26333	-3.80000e+01	
			         1.26500	-3.60000e+01	
			         1.26667	-3.50000e+01	
			         1.26833	-3.40000e+01	
			         1.27000	-3.40000e+01	
			         1.27167	-3.40000e+01	
			         1.27333	-3.50000e+01	
			         1.27500	-3.60000e+01	
			         1.27667	-3.70000e+01	
			         1.27833	-3.80000e+01	
			         1.28000	-4.00000e+01	
			         1.28167	-4.10000e+01	
			         1.28333	-4.20000e+01	
			         1.28500	-4.30000e+01	
			         1.28667	-4.30000e+01	
			         1.28833	-4.40000e+01	
			         1.29000	-4.40000e+01	
			         1.29167	-4.30000e+01	
			         1.29333	-4.30000e+01	
			         1.29500	-4.20000e+01	
			         1.29667	-4.10000e+01	
			         1.29833	-4.00000e+01	
			         1.30000	-3.80000e+01	
			         1.30167	-3.70000e+01	
			         1.30333	-3.60000e+01	
			         1.30500	-3.50000e+01	
			         1.30667	-3.40000e+01	
			         1.30833	-3.20000e+01	
			         1.31000	-3.10000e+01	
			         1.31167	-3.00000e+01	
			         1.31333	-2.80000e+01	
			         1.31500	-2.60000e+01	
			         1.31667	-2.40000e+01	
			         1.31833	-2.20000e+01	
			         1.32000	-2.00000e+01	
			         1.32167	-1.80000e+01	
			         1.32333	-1.60000e+01	
			         1.32500	-1.40000e+01	
			         1.32667	-1.20000e+01	
			         1.32833	-1.10000e+01	
			         1.33000	-1.00000e+01	
			         1.33167	-9.00000e+00	
			         1.33333	-9.00000e+00	
			         1.33500	-9.00000e+00	
			         1.33667	-1.00000e+01	
			         1.33833	-1.10000e+01	
			         1.34000	-1.20000e+01	
			         1.34167	-1.30000e+01	
			         1.34333	-1.30000e+01	
			         1.34500	-1.40000e+01	
			         1.34667	-1.40000e+01	
			         1.34833	-1.40000e+01	
			         1.35000	-1.40000e+01	
			         1.35167	-1.40000e+01	
			         1.35333	-1.30000e+01	
			         1.35500	-1.20000e+01	
			         1.35667	-1.10000e+01	
			         1.35833	-1.00000e+01	
			         1.36000	-9.00000e+00	
			         1.36167	-7.00000e+00	
			         1.36333	-6.00000e+00	
			         1.36500	-4.00000e+00	
			         1.36667	-3.00000e+00	
			         1.36833	-2.00000e+00	
			         1.37000	0.00000e+00	
			         1.37167	1.00000e+00	
			         1.37333	2.00000e+00	
			         1.37500	4.00000e+00	
			         1.37667	5.00000e+00	
			         1.37833	7.00000e+00	
			         1.38000	8.00000e+00	
			         1.38167	9.00000e+00	
			         1.38333	1.00000e+01	
			         1.38500	1.00000e+01	
			         1.38667	1.00000e+01	
			         1.38833	9.00000e+00	
			         1.39000	9.00000e+00	
			         1.39167	8.00000e+00	
			         1.39333	7.00000e+00	
			         1.39500	6.00000e+00	
			         1.39667	4.00000e+00	
			         1.39833	3.00000e+00	
			         1.40000	2.00000e+00	
			         1.40167	1.00000e+00	
			         1.40333	1.00000e+00	
			         1.40500	1.00000e+00	
			         1.40667	2.00000e+00	
			         1.40833	2.00000e+00	
			         1.41000	2.00000e+00	
			         1.41167	3.00000e+00	
			         1.41333	3.00000e+00	
			         1.41500	4.00000e+00	
			         1.41667	4.00000e+00	
			         1.41833	4.00000e+00	
			         1.42000	5.00000e+00	
			         1.42167	5.00000e+00	
			         1.42333	5.00000e+00	
			         1.42500	5.00000e+00	
			         1.42667	5.00000e+00	
			         1.42833	4.00000e+00	
			         1.43000	4.00000e+00	
			         1.43167	4.00000e+00	
			         1.43333	4.00000e+00	
			         1.43500	4.00000e+00	
			         1.43667	4.00000e+00	
			         1.43833	4.00000e+00	
			         1.44000	3.00000e+00	
			         1.44167	3.00000e+00	
			         1.44333	2.00000e+00	
			         1.44500	1.00000e+00	
			         1.44667	0.00000e+00	
			         1.44833	-1.00000e+00	
			         1.45000	-1.00000e+00	
			         1.45167	-1.00000e+00	
			         1.45333	-1.00000e+00	
			         1.45500	-1.00000e+00	
			         1.45667	-1.00000e+00	
			         1.45833	-1.00000e+00	
			         1.46000	0.00000e+00	
			         1.46167	0.00000e+00	
			         1.46333	0.00000e+00	
			         1.46500	0.00000e+00	
			         1.46667	0.00000e+00	
			         1.46833	0.00000e+00	
			         1.47000	-1.00000e+00	
			         1.47167	-1.00000e+00	
			         1.47333	-2.00000e+00	
			         1.47500	-3.00000e+00	
			         1.47667	-4.00000e+00	
			         1.47833	-5.00000e+00	
			         1.48000	-6.00000e+00	
			         1.48167	-7.00000e+00	
			         1.48333	-8.00000e+00	
			         1.48500	-8.00000e+00	
			         1.48667	-9.00000e+00	
			         1.48833	-9.00000e+00	
			         1.49000	-8.00000e+00	
			         1.49167	-8.00000e+00	
			         1.49333	-7.00000e+00	
			         1.49500	-6.00000e+00	
			         1.49667	-5.00000e+00	
			         1.49833	-4.00000e+00	
			         1.50000	-2.00000e+00	
			         1.50167	-1.00000e+00	
			         1.50333	1.00000e+00	
			         1.50500	2.00000e+00	
			         1.50667	3.00000e+00	
			         1.50833	4.00000e+00	
			         1.51000	4.00000e+00	
			         1.51167	4.00000e+00	
			         1.51333	3.00000e+00	
			         1.51500	2.00000e+00	
			         1.51667	1.00000e+00	
			         1.51833	-1.00000e+00	
			         1.52000	-3.00000e+00	
			         1.52167	-4.00000e+00	
			         1.52333	-6.00000e+00	
			         1.52500	-8.00000e+00	
			         1.52667	-8.00000e+00	
			         1.52833	-9.00000e+00	
			         1.53000	-8.00000e+00	
			         1.53167	-7.00000e+00	
			         1.53333	-6.00000e+00	
			         1.53500	-4.00000e+00	
			         1.53667	-1.00000e+00	
			         1.53833	1.00000e+00	
			         1.54000	4.00000e+00	
			         1.54167	7.00000e+00	
			         1.54333	1.10000e+01	
			         1.54500	1.40000e+01	
			         1.54667	1.80000e+01	
			         1.54833	2.20000e+01	
			         1.55000	2.60000e+01	
			         1.55167	3.00000e+01	
			         1.55333	3.30000e+01	
			         1.55500	3.70000e+01	
			         1.55667	4.10000e+01	
			         1.55833	4.40000e+01	
			         1.56000	4.70000e+01	
			         1.56167	5.00000e+01	
			         1.56333	5.30000e+01	
			         1.56500	5.60000e+01	
			         1.56667	5.80000e+01	
			         1.56833	6.10000e+01	
			         1.57000	6.30000e+01	
			         1.57167	6.50000e+01	
			         1.57333	6.60000e+01	
			         1.57500	6.80000e+01	
			         1.57667	6.90000e+01	
			         1.57833	7.00000e+01	
			         1.58000	7.10000e+01	
			         1.58167	7.10000e+01	
			         1.58333	7.10000e+01	
			         1.58500	7.00000e+01	
			         1.58667	6.90000e+01	
			         1.58833	6.70000e+01	
			         1.59000	6.50000e+01	
			         1.59167	6.20000e+01	
			         1.59333	6.00000e+01	
			         1.59500	5.70000e+01	
			         1.59667	5.30000e+01	
			         1.59833	5.00000e+01	
			         1.60000	4.70000e+01	
			         1.60167	4.40000e+01	
			         1.60333	4.10000e+01	
			         1.60500	3.80000e+01	
			         1.60667	3.50000e+01	
			         1.60833	3.30000e+01	
			         1.61000	3.10000e+01	
			         1.61167	2.90000e+01	
			         1.61333	2.60000e+01	
			         1.61500	2.40000e+01	
			         1.61667	2.10000e+01	
			         1.61833	1.80000e+01	
			         1.62000	1.50000e+01	
			         1.62167	1.10000e+01	
			         1.62333	7.00000e+00	
			         1.62500	3.00000e+00	
			         1.62667	-2.00000e+00	
			         1.62833	-7.00000e+00	
			         1.63000	-1.20000e+01	
			         1.63167	-1.70000e+01	
			         1.63333	-2.10000e+01	
			         1.63500	-2.60000e+01	
			         1.63667	-3.00000e+01	
			         1.63833	-3.30000e+01	
			         1.64000	-3.60000e+01	
			         1.64167	-3.80000e+01	
			         1.64333	-3.90000e+01	
			         1.64500	-4.00000e+01	
			         1.64667	-4.00000e+01	
			         1.64833	-4.00000e+01	
			         1.65000	-4.00000e+01	
			         1.65167	-4.00000e+01	
			         1.65333	-4.00000e+01	
			         1.65500	-4.00000e+01	
			         1.65667	-4.00000e+01	
			         1.65833	-4.00000e+01	
			         1.66000	-4.00000e+01	
			         1.66167	-4.00000e+01	
			         1.66333	-4.00000e+01	
			         1.66500	-4.00000e+01	
			         1.66667	-4.00000e+01	
			         1.66833	-3.90000e+01	
			         1.67000	-3.90000e+01	
			         1.67167	-3.90000e+01	
			         1.67333	-3.80000e+01	
			         1.67500	-3.80000e+01	
			         1.67667	-3.80000e+01	
			         1.67833	-3.70000e+01	
			         1.68000	-3.70000e+01	
			         1.68167	-3.70000e+01	
			         1.68333	-3.70000e+01	
			         1.68500	-3.70000e+01	
			         1.68667	-3.60000e+01	
			         1.68833	-3.60000e+01	
			         1.69000	-3.50000e+01	
			         1.69167	-3.30000e+01	
			         1.69333	-3.00000e+01	
			         1.69500	-2.70000e+01	
			         1.69667	-2.20000e+01	
			         1.69833	-1.50000e+01	
			         1.70000	-7.00000e+00	
			         1.70167	4.00000e+00	
			         1.70333	1.70000e+01	
			         1.70500	3.20000e+01	
			         1.70667	5.20000e+01	
			         1.70833	7.50000e+01	
			         1.71000	1.03000e+02	
			         1.71167	1.35000e+02	
			         1.71333	1.72000e+02	
			         1.71500	2.12000e+02	
			         1.71667	2.54000e+02	
			         1.71833	2.98000e+02	
			         1.72000	3.41000e+02	
			         1.72167	3.83000e+02	
			         1.72333	4.21000e+02	
			         1.72500	4.53000e+02	
			         1.72667	4.79000e+02	
			         1.72833	4.97000e+02	
			         1.73000	5.05000e+02	
			         1.73167	5.02000e+02	
			         1.73333	4.89000e+02	
			         1.73500	4.66000e+02	
			         1.73667	4.34000e+02	
			         1.73833	3.95000e+02	
			         1.74000	3.50000e+02	
			         1.74167	3.01000e+02	
			         1.74333	2.50000e+02	
			         1.74500	1.98000e+02	
			         1.74667	1.47000e+02	
			         1.74833	9.80000e+01	
			         1.75000	5.30000e+01	
			         1.75167	1.10000e+01	
			         1.75333	-2.70000e+01	
			         1.75500	-6.00000e+01	
			         1.75667	-8.90000e+01	
			         1.75833	-1.13000e+02	
			         1.76000	-1.33000e+02	
			         1.76167	-1.49000e+02	
			         1.76333	-1.62000e+02	
			         1.76500	-1.72000e+02	
			         1.76667	-1.79000e+02	
			         1.76833	-1.83000e+02	
			         1.77000	-1.85000e+02	
			         1.77167	-1.86000e+02	
			         1.77333	-1.85000e+02	
			         1.77500	-1.84000e+02	
			         1.77667	-1.81000e+02	
			         1.77833	-1.78000e+02	
			         1.78000	-1.75000e+02	
			         1.78167	-1.72000e+02	
			         1.78333	-1.69000e+02	
			         1.78500	-1.66000e+02	
			         1.78667	-1.63000e+02	
			         1.78833	-1.61000e+02	
			         1.79000	-1.58000e+02	
			         1.79167	-1.56000e+02	
			         1.79333	-1.53000e+02	
			         1.79500	-1.50000e+02	
			         1.79667	-1.47000e+02	
			         1.79833	-1.43000e+02	
			         1.80000	-1.40000e+02	
			         1.80167	-1.36000e+02	
			         1.80333	-1.33000e+02	
			         1.80500	-1.29000e+02	
			         1.80667	-1.26000e+02	
			         1.80833	-1.22000e+02	
			         1.81000	-1.19000e+02	
			         1.81167	-1.15000e+02	
			         1.81333	-1.12000e+02	
			         1.81500	-1.09000e+02	
			         1.81667	-1.06000e+02	
			         1.81833	-1.03000e+02	
			         1.82000	-1.01000e+02	
			         1.82167	-9.90000e+01	
			         1.82333	-9.70000e+01	
			         1.82500	-9.50000e+01	
			         1.82667	-9.30000e+01	
			         1.82833	-9.20000e+01	
			         1.83000	-9.00000e+01	
			         1.83167	-8.90000e+01	
			         1.83333	-8.90000e+01	
			         1.83500	-8.80000e+01	
			         1.83667	-8.70000e+01	
			         1.83833	-8.60000e+01	
			         1.84000	-8.50000e+01	
			         1.84167	-8.40000e+01	
			         1.84333	-8.30000e+01	
			         1.84500	-8.20000e+01	
			         1.84667	-8.10000e+01	
			         1.84833	-8.00000e+01	
			         1.85000	-7.80000e+01	
			         1.85167	-7.70000e+01	
			         1.85333	-7.50000e+01	
			         1.85500	-7.30000e+01	
			         1.85667	-7.10000e+01	
			         1.85833	-6.90000e+01	
			         1.86000	-6.60000e+01	
			         1.86167	-6.40000e+01	
			         1.86333	-6.20000e+01	
			         1.86500	-6.00000e+01	
			         1.86667	-5.80000e+01	
			         1.86833	-5.60000e+01	
			         1.87000	-5.40000e+01	
			         1.87167	-5.30000e+01	
			         1.87333	-5.10000e+01	
			         1.87500	-5.00000e+01	
			         1.87667	-4.80000e+01	
			         1.87833	-4.60000e+01	
			         1.88000	-4.40000e+01	
			         1.88167	-4.20000e+01	
			         1.88333	-4.00000e+01	
			         1.88500	-3.80000e+01	
			         1.88667	-3.60000e+01	
			         1.88833	-3.40000e+01	
			         1.89000	-3.20000e+01	
			         1.89167	-3.00000e+01	
			         1.89333	-2.90000e+01	
			         1.89500	-2.80000e+01	
			         1.89667	-2.60000e+01	
			         1.89833	-2.50000e+01	
			         1.90000	-2.50000e+01	
			         1.90167	-2.40000e+01	
			         1.90333	-2.30000e+01	
			         1.90500	-2.20000e+01	
			         1.90667	-2.00000e+01	
			         1.90833	-1.80000e+01	
			         1.91000	-1.60000e+01	
			         1.91167	-1.40000e+01	
			         1.91333	-1.20000e+01	
			         1.91500	-1.00000e+01	
			         1.91667	-8.00000e+00	
			         1.91833	-7.00000e+00	
			         1.92000	-7.00000e+00	
			         1.92167	-6.00000e+00	
			         1.92333	-6.00000e+00	
			         1.92500	-7.00000e+00	
			         1.92667	-7.00000e+00	
			         1.92833	-8.00000e+00	
			         1.93000	-8.00000e+00	
			         1.93167	-9.00000e+00	
			         1.93333	-9.00000e+00	
			         1.93500	-9.00000e+00	
			         1.93667	-8.00000e+00	
			         1.93833	-7.00000e+00	
			         1.94000	-5.00000e+00	
			         1.94167	-3.00000e+00	
			         1.94333	-1.00000e+00	
			         1.94500	2.00000e+00	
			         1.94667	6.00000e+00	
			         1.94833	9.00000e+00	
			         1.95000	1.30000e+01	
			         1.95167	1.70000e+01	
			         1.95333	2.10000e+01	
			         1.95500	2.60000e+01	
			         1.95667	3.10000e+01	
			         1.95833	3.60000e+01	
			         1.96000	4.00000e+01	
			         1.96167	4.50000e+01	
			         1.96333	4.90000e+01	
			         1.96500	5.30000e+01	
			         1.96667	5.70000e+01	
			         1.96833	6.00000e+01	
			         1.97000	6.40000e+01	
			         1.97167	6.70000e+01	
			         1.97333	7.00000e+01	
			         1.97500	7.20000e+01	
			         1.97667	7.40000e+01	
			         1.97833	7.60000e+01	
			         1.98000	7.70000e+01	
			         1.98167	7.90000e+01	
			         1.98333	8.10000e+01	
			         1.98500	8.30000e+01	
			         1.98667	8.50000e+01	
			         1.98833	8.70000e+01	
			         1.99000	9.00000e+01	
			         1.99167	9.20000e+01	
			         1.99333	9.40000e+01	
			         1.99500	9.70000e+01	
			         1.99667	9.90000e+01	
			         1.99833	1.01000e+02	
			         2.00000	1.03000e+02	
			         2.00167	1.04000e+02	
			         2.00333	1.06000e+02	
			         2.00500	1.07000e+02	
			         2.00667	1.07000e+02	
			         2.00833	1.07000e+02	
			         2.01000	1.06000e+02	
			         2.01167	1.05000e+02	
			         2.01333	1.02000e+02	
			         2.01500	9.90000e+01	
			         2.01667	9.50000e+01	
			         2.01833	9.00000e+01	
			         2.02000	8.50000e+01	
			         2.02167	7.90000e+01	
			         2.02333	7.30000e+01	
			         2.02500	6.60000e+01	
			         2.02667	5.90000e+01	
			         2.02833	5.20000e+01	
			         2.03000	4.50000e+01	
			         2.03167	3.80000e+01	
			         2.03333	3.30000e+01	
			         2.03500	2.70000e+01	
			         2.03667	2.20000e+01	
			         2.03833	1.80000e+01	
			         2.04000	1.40000e+01	
			         2.04167	1.10000e+01	
			         2.04333	8.00000e+00	
			         2.04500	5.00000e+00	
			         2.04667	2.00000e+00	
			         2.04833	-1.00000e+00	
			         2.05000	-4.00000e+00	
			         2.05167	-7.00000e+00	
			         2.05333	-1.00000e+01	
			         2.05500	-1.40000e+01	
			         2.05667	-1.90000e+01	
			         2.05833	-2.30000e+01	
			         2.06000	-2.70000e+01	
			         2.06167	-3.20000e+01	
			         2.06333	-3.60000e+01	
			         2.06500	-4.00000e+01	
			         2.06667	-4.40000e+01	
			         2.06833	-4.80000e+01	
			         2.07000	-5.20000e+01	
			         2.07167	-5.50000e+01	
			         2.07333	-5.70000e+01	
			         2.07500	-5.90000e+01	
			         2.07667	-6.10000e+01	
			         2.07833	-6.20000e+01	
			         2.08000	-6.30000e+01	
			         2.08167	-6.40000e+01	
			         2.08333	-6.40000e+01	
			         2.08500	-6.40000e+01	
			         2.08667	-6.40000e+01	
			         2.08833	-6.40000e+01	
			         2.09000	-6.30000e+01	
			         2.09167	-6.30000e+01	
			         2.09333	-6.20000e+01	
			         2.09500	-6.10000e+01	
			         2.09667	-6.00000e+01	
			         2.09833	-5.90000e+01	
			         2.10000	-5.80000e+01	
			         2.10167	-5.60000e+01	
			         2.10333	-5.50000e+01	
			         2.10500	-5.30000e+01	
			         2.10667	-5.10000e+01	
			         2.10833	-4.90000e+01	
			         2.11000	-4.80000e+01	
			         2.11167	-4.60000e+01	
			         2.11333	-4.40000e+01	
			         2.11500	-4.30000e+01	
			         2.11667	-4.20000e+01	
			         2.11833	-4.20000e+01	
			         2.12000	-4.20000e+01	
			         2.12167	-4.20000e+01	
			         2.12333	-4.30000e+01	
			         2.12500	-4.40000e+01	
			         2.12667	-4.40000e+01	
			         2.12833	-4.50000e+01	
			         2.13000	-4.60000e+01	
			         2.13167	-4.70000e+01	
			         2.13333	-4.80000e+01	
			         2.13500	-4.80000e+01	
			         2.13667	-4.80000e+01	
			         2.13833	-4.70000e+01	
			         2.14000	-4.60000e+01	
			         2.14167	-4.50000e+01	
			         2.14333	-4.40000e+01	
			         2.14500	-4.20000e+01	
			         2.14667	-4.10000e+01	
			         2.14833	-3.90000e+01	
			         2.15000	-3.80000e+01	
			         2.15167	-3.70000e+01	
			         2.15333	-3.60000e+01	
			         2.15500	-3.50000e+01	
			         2.15667	-3.40000e+01	
			         2.15833	-3.30000e+01	
			         2.16000	-3.20000e+01	
			         2.16167	-3.10000e+01	
			         2.16333	-3.00000e+01	
			         2.16500	-2.90000e+01	
			         2.16667	-2.90000e+01	
			         2.16833	-2.80000e+01	
			         2.17000	-2.70000e+01	
			         2.17167	-2.70000e+01	
			         2.17333	-2.60000e+01	
			         2.17500	-2.60000e+01	
			         2.17667	-2.50000e+01	
			         2.17833	-2.50000e+01	
			         2.18000	-2.50000e+01	
			         2.18167	-2.40000e+01	
			         2.18333	-2.40000e+01	
			         2.18500	-2.30000e+01	
			         2.18667	-2.20000e+01	
			         2.18833	-2.10000e+01	
			         2.19000	-1.90000e+01	
			         2.19167	-1.70000e+01	
			         2.19333	-1.60000e+01	
			         2.19500	-1.40000e+01	
			         2.19667	-1.20000e+01	
			         2.19833	-1.00000e+01	
			         2.20000	-8.00000e+00	
			         2.20167	-7.00000e+00	
			         2.20333	-6.00000e+00	
			         2.20500	-5.00000e+00	
			         2.20667	-4.00000e+00	
			         2.20833	-4.00000e+00	
			         2.21000	-4.00000e+00	
			         2.21167	-4.00000e+00	
			         2.21333	-4.00000e+00	
			         2.21500	-5.00000e+00	
			         2.21667	-5.00000e+00	
			         2.21833	-6.00000e+00	
			         2.22000	-6.00000e+00	
			         2.22167	-7.00000e+00	
			         2.22333	-7.00000e+00	
			         2.22500	-8.00000e+00	
			         2.22667	-8.00000e+00	
			         2.22833	-8.00000e+00	
			         2.23000	-8.00000e+00	
			         2.23167	-8.00000e+00	
			         2.23333	-8.00000e+00	
			         2.23500	-8.00000e+00	
			         2.23667	-8.00000e+00	
			         2.23833	-7.00000e+00	
			         2.24000	-7.00000e+00	
			         2.24167	-7.00000e+00	
			         2.24333	-6.00000e+00	
			         2.24500	-6.00000e+00	
			         2.24667	-5.00000e+00	
			         2.24833	-5.00000e+00	
			         2.25000	-4.00000e+00	
			         2.25167	-3.00000e+00	
			         2.25333	-3.00000e+00	
			         2.25500	-2.00000e+00	
			         2.25667	-1.00000e+00	
			         2.25833	0.00000e+00	
			         2.26000	1.00000e+00	
			         2.26167	3.00000e+00	
			         2.26333	4.00000e+00	
			         2.26500	4.00000e+00	
			         2.26667	5.00000e+00	
			         2.26833	5.00000e+00	
			         2.27000	4.00000e+00	
			         2.27167	3.00000e+00	
			         2.27333	3.00000e+00	
			         2.27500	1.00000e+00	
			         2.27667	0.00000e+00	
			         2.27833	-1.00000e+00	
			         2.28000	-3.00000e+00	
			         2.28167	-4.00000e+00	
			         2.28333	-6.00000e+00	
			         2.28500	-7.00000e+00	
			         2.28667	-8.00000e+00	
			         2.28833	-9.00000e+00	
			         2.29000	-1.00000e+01	
			         2.29167	-1.00000e+01	
			         2.29333	-1.00000e+01	
			         2.29500	-1.10000e+01	
			         2.29667	-1.10000e+01	
			         2.29833	-1.10000e+01	
			         2.30000	-1.10000e+01	
			         2.30167	-1.00000e+01	
			         2.30333	-1.00000e+01	
			         2.30500	-1.00000e+01	
			         2.30667	-9.00000e+00	
			         2.30833	-9.00000e+00	
			         2.31000	-8.00000e+00	
			         2.31167	-7.00000e+00	
			         2.31333	-7.00000e+00	
			         2.31500	-6.00000e+00	
			         2.31667	-5.00000e+00	
			         2.31833	-3.00000e+00	
			         2.32000	-2.00000e+00	
			         2.32167	-1.00000e+00	
			         2.32333	1.00000e+00	
			         2.32500	2.00000e+00	
			         2.32667	4.00000e+00	
			         2.32833	5.00000e+00	
			         2.33000	6.00000e+00	
			         2.33167	6.00000e+00	
			         2.33333	6.00000e+00	
			         2.33500	6.00000e+00	
			         2.33667	6.00000e+00	
			         2.33833	6.00000e+00	
			         2.34000	5.00000e+00	
			         2.34167	4.00000e+00	
			         2.34333	2.00000e+00	
			         2.34500	1.00000e+00	
			         2.34667	-1.00000e+00	
			         2.34833	-3.00000e+00	
			         2.35000	-5.00000e+00	
			         2.35167	-6.00000e+00	
			         2.35333	-7.00000e+00	
			         2.35500	-9.00000e+00	
			         2.35667	-1.00000e+01	
			         2.35833	-1.10000e+01	
			         2.36000	-1.20000e+01	
			         2.36167	-1.30000e+01	
			         2.36333	-1.30000e+01	
			         2.36500	-1.30000e+01	
			         2.36667	-1.30000e+01	
			         2.36833	-1.20000e+01	
			         2.37000	-1.10000e+01	
			         2.37167	-9.00000e+00	
			         2.37333	-7.00000e+00	
			         2.37500	-5.00000e+00	
			         2.37667	-3.00000e+00	
			         2.37833	0.00000e+00	
			         2.38000	2.00000e+00	
			         2.38167	5.00000e+00	
			         2.38333	8.00000e+00	
			         2.38500	1.00000e+01	
			         2.38667	1.40000e+01	
			         2.38833	1.70000e+01	
			         2.39000	2.00000e+01	
			         2.39167	2.30000e+01	
			         2.39333	2.60000e+01	
			         2.39500	3.00000e+01	
			         2.39667	3.20000e+01	
			         2.39833	3.50000e+01	
			         2.40000	3.80000e+01	
			         2.40167	4.10000e+01	
			         2.40333	4.40000e+01	
			         2.40500	4.70000e+01	
			         2.40667	5.00000e+01	
			         2.40833	5.30000e+01	
			         2.41000	5.60000e+01	
			         2.41167	5.90000e+01	
			         2.41333	6.30000e+01	
			         2.41500	6.60000e+01	
			         2.41667	6.90000e+01	
			         2.41833	7.20000e+01	
			         2.42000	7.40000e+01	
			         2.42167	7.60000e+01	
			         2.42333	7.60000e+01	
			         2.42500	7.60000e+01	
			         2.42667	7.40000e+01	
			         2.42833	7.10000e+01	
			         2.43000	6.80000e+01	
			         2.43167	6.40000e+01	
			         2.43333	6.00000e+01	
			         2.43500	5.50000e+01	
			         2.43667	5.10000e+01	
			         2.43833	4.60000e+01	
			         2.44000	4.20000e+01	
			         2.44167	3.90000e+01	
			         2.44333	3.60000e+01	
			         2.44500	3.30000e+01	
			         2.44667	3.10000e+01	
			         2.44833	3.00000e+01	
			         2.45000	2.80000e+01	
			         2.45167	2.70000e+01	
			         2.45333	2.50000e+01	
			         2.45500	2.30000e+01	
			         2.45667	2.00000e+01	
			         2.45833	1.70000e+01	
			         2.46000	1.40000e+01	
			         2.46167	1.00000e+01	
			         2.46333	5.00000e+00	
			         2.46500	1.00000e+00	
			         2.46667	-4.00000e+00	
			         2.46833	-1.00000e+01	
			         2.47000	-1.50000e+01	
			         2.47167	-2.00000e+01	
			         2.47333	-2.50000e+01	
			         2.47500	-3.00000e+01	
			         2.47667	-3.50000e+01	
			         2.47833	-4.00000e+01	
			         2.48000	-4.40000e+01	
			         2.48167	-4.70000e+01	
			         2.48333	-5.00000e+01	
			         2.48500	-5.10000e+01	
			         2.48667	-5.30000e+01	
			         2.48833	-5.40000e+01	
			         2.49000	-5.50000e+01	
			         2.49167	-5.50000e+01	
			         2.49333	-5.60000e+01	
			         2.49500	-5.60000e+01	
			         2.49667	-5.60000e+01	
			         2.49833	-5.60000e+01	
			         2.50000	-5.50000e+01	
			         2.50167	-5.40000e+01	
			         2.50333	-5.40000e+01	
			         2.50500	-5.30000e+01	
			         2.50667	-5.30000e+01	
			         2.50833	-5.20000e+01	
			         2.51000	-5.10000e+01	
			         2.51167	-5.00000e+01	
			         2.51333	-4.90000e+01	
			         2.51500	-4.80000e+01	
			         2.51667	-4.70000e+01	
			         2.51833	-4.60000e+01	
			         2.52000	-4.50000e+01	
			         2.52167	-4.40000e+01	
			         2.52333	-4.30000e+01	
			         2.52500	-4.20000e+01	
			         2.52667	-4.00000e+01	
			         2.52833	-3.90000e+01	
			         2.53000	-3.70000e+01	
			         2.53167	-3.50000e+01	
			         2.53333	-3.20000e+01	
			         2.53500	-2.80000e+01	
			         2.53667	-2.40000e+01	
			         2.53833	-1.70000e+01	
			         2.54000	-1.00000e+01	
			         2.54167	0.00000e+00	
			         2.54333	1.20000e+01	
			         2.54500	2.60000e+01	
			         2.54667	4.50000e+01	
			         2.54833	6.70000e+01	
			         2.55000	9.40000e+01	
			         2.55167	1.25000e+02	
			         2.55333	1.61000e+02	
			         2.55500	2.01000e+02	
			         2.55667	2.43000e+02	
			         2.55833	2.87000e+02	
			         2.56000	3.31000e+02	
			         2.56167	3.73000e+02	
			         2.56333	4.11000e+02	
			         2.56500	4.45000e+02	
			         2.56667	4.72000e+02	
			         2.56833	4.91000e+02	
			         2.57000	5.00000e+02	
			         2.57167	4.99000e+02	
			         2.57333	4.87000e+02	
			         2.57500	4.65000e+02	
			         2.57667	4.34000e+02	
			         2.57833	3.96000e+02	
			         2.58000	3.51000e+02	
			         2.58167	3.03000e+02	
			         2.58333	2.52000e+02	
			         2.58500	2.00000e+02	
			         2.58667	1.48000e+02	
			         2.58833	9.90000e+01	
			         2.59000	5.20000e+01	
			         2.59167	9.00000e+00	
			         2.59333	-2.90000e+01	
			         2.59500	-6.20000e+01	
			         2.59667	-9.00000e+01	
			         2.59833	-1.13000e+02	
			         2.60000	-1.32000e+02	
			         2.60167	-1.48000e+02	
			         2.60333	-1.59000e+02	
			         2.60500	-1.68000e+02	
			         2.60667	-1.74000e+02	
			         2.60833	-1.78000e+02	
			         2.61000	-1.80000e+02	
			         2.61167	-1.80000e+02	
			         2.61333	-1.80000e+02	
			         2.61500	-1.79000e+02	
			         2.61667	-1.78000e+02	
