Velocity (TVI), in cm/s

Time (s) :	Trace 1 : 		Ecg : 		
0.01516   	-2.46375e+00		         0.00000	-1.00000e+00	
0.02256   	-2.15555e+00		         0.00167	-1.00000e+00	
0.02995   	-1.87281e+00		         0.00333	-1.00000e+00	
0.03734   	-1.10459e+00		         0.00500	-1.00000e+00	
0.04474   	-4.03941e-01		         0.00667	-1.00000e+00	
0.05213   	-1.46109e-01		         0.00833	0.00000e+00	
0.05952   	-1.79076e-01		         0.01000	1.00000e+00	
0.06692   	-3.23715e-01		         0.01167	2.00000e+00	
0.07431   	-9.52313e-01		         0.01333	3.00000e+00	
0.08171   	-1.37609e+00		         0.01500	5.00000e+00	
0.08910   	-9.90500e-01		         0.01667	8.00000e+00	
0.09649   	-1.00469e-01		         0.01833	1.10000e+01	
0.10389   	1.08142e+00		         0.02000	1.50000e+01	
0.11128   	2.54783e+00		         0.02167	1.90000e+01	
0.11867   	3.68477e+00		         0.02333	2.30000e+01	
0.12607   	4.11297e+00		         0.02500	2.70000e+01	
0.13346   	4.28187e+00		         0.02667	3.20000e+01	
0.14085   	4.17996e+00		         0.02833	3.60000e+01	
0.14825   	4.06501e+00		         0.03000	4.00000e+01	
0.15564   	3.87409e+00		         0.03167	4.50000e+01	
0.16303   	3.77358e+00		         0.03333	4.80000e+01	
0.17043   	3.75336e+00		         0.03500	5.10000e+01	
0.17782   	3.82234e+00		         0.03667	5.30000e+01	
0.18521   	3.77145e+00		         0.03833	5.50000e+01	
0.19261   	3.85667e+00		         0.04000	5.50000e+01	
0.20000   	3.90854e+00		         0.04167	5.40000e+01	
0.20739   	3.98815e+00		         0.04333	5.30000e+01	
0.21479   	3.99392e+00		         0.04500	5.00000e+01	
0.22218   	4.08727e+00		         0.04667	4.70000e+01	
0.22957   	4.15425e+00		         0.04833	4.30000e+01	
0.23697   	4.27073e+00		         0.05000	3.80000e+01	
0.24436   	4.26789e+00		         0.05167	3.30000e+01	
0.25175   	4.23237e+00		         0.05333	2.80000e+01	
0.25915   	4.19532e+00		         0.05500	2.20000e+01	
0.26654   	4.18911e+00		         0.05667	1.70000e+01	
0.27393   	4.11944e+00		         0.05833	1.20000e+01	
0.28133   	4.13397e+00		         0.06000	7.00000e+00	
0.28872   	4.11647e+00		         0.06167	3.00000e+00	
0.29611   	4.16014e+00		         0.06333	0.00000e+00	
0.30351   	4.18957e+00		         0.06500	-3.00000e+00	
0.31090   	4.15128e+00		         0.06667	-6.00000e+00	
0.31829   	4.07786e+00		         0.06833	-8.00000e+00	
0.32569   	3.98423e+00		         0.07000	-9.00000e+00	
0.33308   	3.77786e+00		         0.07167	-1.10000e+01	
0.34047   	3.57325e+00		         0.07333	-1.10000e+01	
0.34787   	3.40599e+00		         0.07500	-1.20000e+01	
0.35526   	3.18925e+00		         0.07667	-1.20000e+01	
0.36265   	2.98670e+00		         0.07833	-1.20000e+01	
0.37005   	2.82399e+00		         0.08000	-1.20000e+01	
0.37744   	2.63458e+00		         0.08167	-1.30000e+01	
0.38483   	2.42483e+00		         0.08333	-1.30000e+01	
0.39223   	2.25594e+00		         0.08500	-1.30000e+01	
0.39962   	2.03579e+00		         0.08667	-1.30000e+01	
0.40701   	1.76087e+00		         0.08833	-1.30000e+01	
0.41441   	1.44848e+00		         0.09000	-1.30000e+01	
0.42180   	1.12917e+00		         0.09167	-1.30000e+01	
0.42919   	5.48123e-01		         0.09333	-1.30000e+01	
0.43659   	8.67942e-02		         0.09500	-1.30000e+01	
0.44398   	2.85836e-03		         0.09667	-1.20000e+01	
0.45137   	1.06993e-01		         0.09833	-1.20000e+01	
0.45877   	2.85589e-01		         0.10000	-1.10000e+01	
0.46616   	6.97905e-01		         0.10167	-1.10000e+01	
0.47355   	1.14933e+00		         0.10333	-1.00000e+01	
0.48095   	1.28870e+00		         0.10500	-1.00000e+01	
0.48834   	1.37983e+00		         0.10667	-9.00000e+00	
0.49573   	1.48702e+00		         0.10833	-9.00000e+00	
0.50313   	1.71624e+00		         0.11000	-8.00000e+00	
0.51052   	1.76078e+00		         0.11167	-8.00000e+00	
0.51791   	1.21427e+00		         0.11333	-8.00000e+00	
0.52531   	3.70522e-01		         0.11500	-8.00000e+00	
0.53270   	-9.12690e-01		         0.11667	-9.00000e+00	
0.54009   	-2.40872e+00		         0.11833	-9.00000e+00	
0.54749   	-3.82562e+00		         0.12000	-9.00000e+00	
0.55488   	-4.61834e+00		         0.12167	-1.00000e+01	
0.56227   	-5.14944e+00		         0.12333	-1.00000e+01	
0.56967   	-5.36516e+00		         0.12500	-1.00000e+01	
0.57706   	-5.40006e+00		         0.12667	-1.00000e+01	
0.58445   	-5.27023e+00		         0.12833	-1.00000e+01	
0.59185   	-5.12050e+00		         0.13000	-1.00000e+01	
0.59924   	-4.97712e+00		         0.13167	-1.00000e+01	
0.60663   	-4.60996e+00		         0.13333	-1.00000e+01	
0.61403   	-4.19788e+00		         0.13500	-9.00000e+00	
0.62142   	-3.77522e+00		         0.13667	-9.00000e+00	
0.62881   	-3.29744e+00		         0.13833	-8.00000e+00	
0.63621   	-2.71238e+00		         0.14000	-8.00000e+00	
0.64360   	-2.22453e+00		         0.14167	-7.00000e+00	
0.65099   	-1.78936e+00		         0.14333	-7.00000e+00	
0.65839   	-1.46033e+00		         0.14500	-6.00000e+00	
0.66578   	-1.18919e+00		         0.14667	-6.00000e+00	
0.67317   	-1.02088e+00		         0.14833	-5.00000e+00	
0.68057   	-8.81266e-01		         0.15000	-5.00000e+00	
0.68796   	-7.78844e-01		         0.15167	-5.00000e+00	
0.69535   	-7.09594e-01		         0.15333	-4.00000e+00	
0.70275   	-6.99190e-01		         0.15500	-4.00000e+00	
0.71014   	-7.46071e-01		         0.15667	-4.00000e+00	
0.71753   	-8.06522e-01		         0.15833	-5.00000e+00	
0.72493   	-8.89151e-01		         0.16000	-5.00000e+00	
0.73232   	-9.69600e-01		         0.16167	-5.00000e+00	
0.73971   	-1.02829e+00		         0.16333	-5.00000e+00	
0.74711   	-1.05847e+00		         0.16500	-6.00000e+00	
0.75450   	-1.06552e+00		         0.16667	-6.00000e+00	
0.76189   	-1.05117e+00		         0.16833	-7.00000e+00	
0.76929   	-1.02399e+00		         0.17000	-7.00000e+00	
0.77668   	-1.01090e+00		         0.17167	-7.00000e+00	
0.78407   	-9.92001e-01		         0.17333	-7.00000e+00	
0.79147   	-9.69790e-01		         0.17500	-6.00000e+00	
0.79886   	-9.38910e-01		         0.17667	-6.00000e+00	
0.80625   	-9.08011e-01		         0.17833	-5.00000e+00	
0.81365   	-8.70297e-01		         0.18000	-4.00000e+00	
0.82104   	-8.34051e-01		         0.18167	-4.00000e+00	
0.82843   	-8.15189e-01		         0.18333	-3.00000e+00	
0.83583   	-8.10414e-01		         0.18500	-3.00000e+00	
0.84322   	-8.05236e-01		         0.18667	-2.00000e+00	
0.85061   	-7.71193e-01		         0.18833	-2.00000e+00	
0.85801   	-7.27979e-01		         0.19000	-1.00000e+00	
0.86540   	-6.76381e-01		         0.19167	-1.00000e+00	
0.87279   	-6.09024e-01		         0.19333	-1.00000e+00	
0.88019   	-5.33922e-01		         0.19500	-1.00000e+00	
0.88758   	-4.73708e-01		         0.19667	-1.00000e+00	
0.89497   	-4.34363e-01		         0.19833	-1.00000e+00	
0.90237   	-4.23570e-01		         0.20000	-1.00000e+00	
0.90976   	-4.32378e-01		         0.20167	-1.00000e+00	
0.91715   	-4.75528e-01		         0.20333	-1.00000e+00	
0.92455   	-5.87214e-01		         0.20500	-1.00000e+00	
0.93194   	-8.41223e-01		         0.20667	0.00000e+00	
0.93933   	-1.29948e+00		         0.20833	0.00000e+00	
0.94673   	-2.09481e+00		         0.21000	1.00000e+00	
0.95412   	-3.20624e+00		         0.21167	1.00000e+00	
0.96151   	-4.61070e+00		         0.21333	2.00000e+00	
0.96891   	-5.93950e+00		         0.21500	3.00000e+00	
0.97630   	-6.99722e+00		         0.21667	3.00000e+00	
0.98369   	-7.61222e+00		         0.21833	4.00000e+00	
0.99109   	-7.72215e+00		         0.22000	4.00000e+00	
0.99848   	-7.44051e+00		         0.22167	4.00000e+00	
1.00588   	-6.93868e+00		         0.22333	4.00000e+00	
1.01327   	-6.30881e+00		         0.22500	4.00000e+00	
1.02066   	-5.55947e+00		         0.22667	4.00000e+00	
1.02806   	-4.81774e+00		         0.22833	4.00000e+00	
1.03545   	-4.02225e+00		         0.23000	4.00000e+00	
1.04284   	-3.24085e+00		         0.23167	4.00000e+00	
1.05024   	-2.50663e+00		         0.23333	4.00000e+00	
1.05763   	-1.87945e+00		         0.23500	4.00000e+00	
1.06502   	-1.25450e+00		         0.23667	4.00000e+00	
1.07242   	-3.41358e-01		         0.23833	4.00000e+00	
1.07981   	2.87622e-01		         0.24000	4.00000e+00	
1.08720   	5.64741e-01		         0.24167	4.00000e+00	
1.09460   	4.45842e-01		         0.24333	5.00000e+00	
1.10199   	9.10385e-02		         0.24500	5.00000e+00	
1.10938   	-8.95364e-01		         0.24667	6.00000e+00	
1.11678   	-1.37321e+00		         0.24833	6.00000e+00	
1.12417   	-1.10489e+00		         0.25000	7.00000e+00	
1.13156   	-2.97205e-01		         0.25167	7.00000e+00	
1.13896   	9.10949e-01		         0.25333	8.00000e+00	
1.14635   	2.44530e+00		         0.25500	9.00000e+00	
1.15374   	3.68943e+00		         0.25667	9.00000e+00	
1.16114   	4.41819e+00		         0.25833	1.00000e+01	
1.16853   	4.81861e+00		         0.26000	1.00000e+01	
1.17592   	4.80633e+00		         0.26167	1.10000e+01	
1.18332   	4.68654e+00		         0.26333	1.10000e+01	
1.19071   	4.52219e+00		         0.26500	1.20000e+01	
1.19810   	4.31151e+00		         0.26667	1.20000e+01	
1.20550   	4.20833e+00		         0.26833	1.20000e+01	
1.21289   	4.21828e+00		         0.27000	1.20000e+01	
1.22028   	4.28170e+00		         0.27167	1.30000e+01	
1.22768   	4.33256e+00		         0.27333	1.30000e+01	
1.23507   	4.44229e+00		         0.27500	1.30000e+01	
1.24246   	4.49268e+00		         0.27667	1.30000e+01	
1.24986   	4.60259e+00		         0.27833	1.40000e+01	
1.25725   	4.70050e+00		         0.28000	1.40000e+01	
1.26464   	4.80363e+00		         0.28167	1.40000e+01	
1.27204   	4.86991e+00		         0.28333	1.50000e+01	
1.27943   	4.93823e+00		         0.28500	1.50000e+01	
1.28682   	4.95820e+00		         0.28667	1.60000e+01	
1.29422   	4.84561e+00		         0.28833	1.60000e+01	
1.30161   	4.71160e+00		         0.29000	1.60000e+01	
1.30900   	4.65230e+00		         0.29167	1.60000e+01	
1.31640   	4.59589e+00		         0.29333	1.60000e+01	
1.32379   	4.50046e+00		         0.29500	1.60000e+01	
1.33118   	4.55034e+00		         0.29667	1.60000e+01	
1.33858   	4.55718e+00		         0.29833	1.60000e+01	
1.34597   	4.45653e+00		         0.30000	1.50000e+01	
1.35336   	4.32649e+00		         0.30167	1.50000e+01	
1.36076   	4.14477e+00		         0.30333	1.50000e+01	
1.36815   	3.91397e+00		         0.30500	1.40000e+01	
1.37554   	3.70727e+00		         0.30667	1.40000e+01	
1.38294   	3.54656e+00		         0.30833	1.40000e+01	
1.39033   	3.39821e+00		         0.31000	1.40000e+01	
1.39772   	3.30732e+00		         0.31167	1.30000e+01	
1.40512   	3.23612e+00		         0.31333	1.30000e+01	
1.41251   	3.09908e+00		         0.31500	1.30000e+01	
1.41990   	2.93204e+00		         0.31667	1.30000e+01	
1.42730   	2.74840e+00		         0.31833	1.30000e+01	
1.43469   	2.51272e+00		         0.32000	1.20000e+01	
1.44208   	2.19961e+00		         0.32167	1.20000e+01	
1.44948   	1.88564e+00		         0.32333	1.20000e+01	
1.45687   	1.66489e+00		         0.32500	1.10000e+01	
1.46426   	1.18906e+00		         0.32667	1.10000e+01	
1.47166   	6.12201e-01		         0.32833	1.00000e+01	
1.47905   	3.57088e-01		         0.33000	9.00000e+00	
1.48644   	4.25306e-01		         0.33167	8.00000e+00	
1.49384   	5.38423e-01		         0.33333	7.00000e+00	
1.50123   	1.01011e+00		         0.33500	6.00000e+00	
1.50862   	1.74352e+00		         0.33667	5.00000e+00	
1.51602   	2.26695e+00		         0.33833	4.00000e+00	
1.52341   	2.62770e+00		         0.34000	4.00000e+00	
1.53080   	2.84738e+00		         0.34167	3.00000e+00	
1.53820   	3.00654e+00		         0.34333	2.00000e+00	
1.54559   	2.87915e+00		         0.34500	2.00000e+00	
1.55298   	2.33438e+00		         0.34667	1.00000e+00	
1.56038   	1.47989e+00		         0.34833	0.00000e+00	
1.56777   	2.86392e-01		         0.35000	0.00000e+00	
1.57516   	-1.13252e+00		         0.35167	-1.00000e+00	
1.58256   	-2.45107e+00		         0.35333	-1.00000e+00	
1.58995   	-3.33961e+00		         0.35500	-1.00000e+00	
1.59734   	-4.19201e+00		         0.35667	-1.00000e+00	
1.60474   	-4.71001e+00		         0.35833	-1.00000e+00	
1.61213   	-5.07197e+00		         0.36000	-1.00000e+00	
1.61952   	-5.25736e+00		         0.36167	-2.00000e+00	
1.62692   	-5.39494e+00		         0.36333	-2.00000e+00	
1.63431   	-5.26312e+00		         0.36500	-2.00000e+00	
1.64170   	-5.00990e+00		         0.36667	-2.00000e+00	
1.64910   	-4.62180e+00		         0.36833	-2.00000e+00	
1.65649   	-4.24467e+00		         0.37000	-2.00000e+00	
1.66388   	-3.82216e+00		         0.37167	-2.00000e+00	
1.67128   	-3.37411e+00		         0.37333	-2.00000e+00	
1.67867   	-2.91967e+00		         0.37500	-2.00000e+00	
1.68606   	-2.47439e+00		         0.37667	-3.00000e+00	
1.69346   	-2.03930e+00		         0.37833	-3.00000e+00	
1.70085   	-1.69924e+00		         0.38000	-3.00000e+00	
1.70824   	-1.40702e+00		         0.38167	-3.00000e+00	
1.71564   	-1.21373e+00		         0.38333	-4.00000e+00	
1.72303   	-1.07343e+00		         0.38500	-4.00000e+00	
1.73042   	-1.03194e+00		         0.38667	-4.00000e+00	
1.73782   	-1.03239e+00		         0.38833	-5.00000e+00	
1.74521   	-1.08440e+00		         0.39000	-5.00000e+00	
1.75260   	-1.14462e+00		         0.39167	-5.00000e+00	
1.76000   	-1.19839e+00		         0.39333	-5.00000e+00	
1.76739   	-1.22618e+00		         0.39500	-5.00000e+00	
1.77478   	-1.23127e+00		         0.39667	-5.00000e+00	
1.78218   	-1.22345e+00		         0.39833	-6.00000e+00	
1.78957   	-1.18861e+00		         0.40000	-6.00000e+00	
1.79696   	-1.14343e+00		         0.40167	-6.00000e+00	
1.80436   	-1.09914e+00		         0.40333	-6.00000e+00	
1.81175   	-1.06401e+00		         0.40500	-6.00000e+00	
1.81914   	-1.02488e+00		         0.40667	-6.00000e+00	
1.82654   	-9.81959e-01		         0.40833	-6.00000e+00	
1.83393   	-9.37627e-01		         0.41000	-7.00000e+00	
1.84132   	-9.08016e-01		         0.41167	-7.00000e+00	
1.84872   	-8.90769e-01		         0.41333	-7.00000e+00	
1.85611   	-8.88092e-01		         0.41500	-7.00000e+00	
1.86350   	-8.90371e-01		         0.41667	-7.00000e+00	
1.87090   	-9.02929e-01		         0.41833	-6.00000e+00	
1.87829   	-8.95618e-01		         0.42000	-6.00000e+00	
1.88568   	-8.80975e-01		         0.42167	-6.00000e+00	
1.89308   	-8.61424e-01		         0.42333	-6.00000e+00	
1.90047   	-8.43956e-01		         0.42500	-6.00000e+00	
1.90786   	-8.15645e-01		         0.42667	-6.00000e+00	
1.91526   	-8.00714e-01		         0.42833	-6.00000e+00	
1.92265   	-7.79018e-01		         0.43000	-6.00000e+00	
1.93005   	-7.26416e-01		         0.43167	-6.00000e+00	
1.93744   	-6.70979e-01		         0.43333	-6.00000e+00	
1.94483   	-6.33753e-01		         0.43500	-6.00000e+00	
1.95223   	-5.98461e-01		         0.43667	-7.00000e+00	
1.95962   	-6.39415e-01		         0.43833	-7.00000e+00	
1.96701   	-7.93489e-01		         0.44000	-7.00000e+00	
1.97441   	-1.14122e+00		         0.44167	-7.00000e+00	
1.98180   	-1.78693e+00		         0.44333	-7.00000e+00	
1.98919   	-2.78737e+00		         0.44500	-7.00000e+00	
1.99659   	-4.11005e+00		         0.44667	-7.00000e+00	
2.00398   	-5.56747e+00		         0.44833	-6.00000e+00	
2.01137   	-6.91090e+00		         0.45000	-5.00000e+00	
2.01877   	-7.89976e+00		         0.45167	-4.00000e+00	
2.02616   	-8.37595e+00		         0.45333	-4.00000e+00	
2.03355   	-8.32268e+00		         0.45500	-3.00000e+00	
2.04095   	-7.80146e+00		         0.45667	-2.00000e+00	
2.04834   	-6.97209e+00		         0.45833	-2.00000e+00	
2.05573   	-6.09570e+00		         0.46000	-1.00000e+00	
2.06313   	-5.24052e+00		         0.46167	0.00000e+00	
2.07052   	-4.39698e+00		         0.46333	0.00000e+00	
2.07791   	-3.60689e+00		         0.46500	0.00000e+00	
2.08531   	-2.97412e+00		         0.46667	1.00000e+00	
2.09270   	-2.22283e+00		         0.46833	1.00000e+00	
2.10009   	-1.51532e+00		         0.47000	1.00000e+00	
2.10749   	-6.65472e-01		         0.47167	1.00000e+00	
2.11488   	2.75258e-01		         0.47333	1.00000e+00	
2.12227   	1.01733e+00		         0.47500	1.00000e+00	
2.12967   	9.50595e-01		         0.47667	1.00000e+00	
2.13706   	6.35148e-01		         0.47833	1.00000e+00	
2.14445   	-1.10289e-01		         0.48000	1.00000e+00	
2.15185   	-1.26567e+00		         0.48167	1.00000e+00	
2.15924   	-1.69323e+00		         0.48333	0.00000e+00	
2.16663   	-1.10970e+00		         0.48500	0.00000e+00	
2.17403   	-4.75238e-02		         0.48667	0.00000e+00	
2.18142   	1.38380e+00		         0.48833	-1.00000e+00	
2.18881   	3.08500e+00		         0.49000	-1.00000e+00	
2.19621   	4.17608e+00		         0.49167	-1.00000e+00	
2.20360   	4.78702e+00		         0.49333	-1.00000e+00	
2.21099   	5.05070e+00		         0.49500	-2.00000e+00	
2.21839   	5.10877e+00		         0.49667	-2.00000e+00	
2.22578   	4.98687e+00		         0.49833	-2.00000e+00	
2.23317   	4.84872e+00		         0.50000	-2.00000e+00	
2.24057   	4.74907e+00		         0.50167	-2.00000e+00	
2.24796   	4.67999e+00		         0.50333	-2.00000e+00	
2.25535   	4.61093e+00		         0.50500	-2.00000e+00	
2.26275   	4.60528e+00		         0.50667	-2.00000e+00	
2.27014   	4.60525e+00		         0.50833	-1.00000e+00	
2.27753   	4.69600e+00		         0.51000	-1.00000e+00	
2.28493   	4.85792e+00		         0.51167	-1.00000e+00	
2.29232   	5.02483e+00		         0.51333	0.00000e+00	
2.29971   	5.12680e+00		         0.51500	0.00000e+00	
2.30711   	5.30233e+00		         0.51667	1.00000e+00	
2.31450   	5.36822e+00		         0.51833	1.00000e+00	
2.32189   	5.33480e+00		         0.52000	2.00000e+00	
2.32929   	5.25707e+00		         0.52167	3.00000e+00	
2.33668   	5.19016e+00		         0.52333	3.00000e+00	
2.34407   	5.03777e+00		         0.52500	4.00000e+00	
2.35147   	4.91607e+00		         0.52667	5.00000e+00	
2.35886   	4.80973e+00		         0.52833	5.00000e+00	
2.36625   	4.70339e+00		         0.53000	6.00000e+00	
2.37365   	4.62579e+00		         0.53167	7.00000e+00	
2.38104   	4.54695e+00		         0.53333	7.00000e+00	
2.38843   	4.46559e+00		         0.53500	8.00000e+00	
2.39583   	4.34256e+00		         0.53667	8.00000e+00	
2.40322   	4.23496e+00		         0.53833	8.00000e+00	
2.41061   	4.05955e+00		         0.54000	9.00000e+00	
2.41801   	3.85371e+00		         0.54167	9.00000e+00	
2.42540   	3.63718e+00		         0.54333	9.00000e+00	
2.43279   	3.42151e+00		         0.54500	1.00000e+01	
2.44019   	3.24230e+00		         0.54667	1.00000e+01	
2.44758   	3.09828e+00		         0.54833	1.10000e+01	
2.45497   	2.91003e+00		         0.55000	1.10000e+01	
2.46237   	2.72670e+00		         0.55167	1.20000e+01	
2.46976   	2.53116e+00		         0.55333	1.20000e+01	
2.47715   	2.25997e+00		         0.55500	1.20000e+01	
2.48455   	1.88439e+00		         0.55667	1.30000e+01	
2.49194   	1.52813e+00		         0.55833	1.20000e+01	
2.49933   	1.00708e+00		         0.56000	1.20000e+01	
2.50673   	3.93409e-01		         0.56167	1.20000e+01	
2.51412   	1.13921e-01		         0.56333	1.10000e+01	
2.52151   	1.24822e-01		         0.56500	1.00000e+01	
2.52891   	3.48710e-01		         0.56667	9.00000e+00	
2.53630   	7.86243e-01		         0.56833	8.00000e+00	
2.54369   	1.46025e+00		         0.57000	6.00000e+00	
2.55109   	1.92068e+00		         0.57167	5.00000e+00	
2.55848   	2.23917e+00		         0.57333	4.00000e+00	
2.56587   	2.42731e+00		         0.57500	2.00000e+00	
2.57327   	2.55457e+00		         0.57667	1.00000e+00	
2.58066   	2.65570e+00		         0.57833	0.00000e+00	
2.58805   	2.31036e+00		         0.58000	0.00000e+00	
2.59545   	1.64703e+00		         0.58167	0.00000e+00	
2.60284   	5.05051e-01		         0.58333	0.00000e+00	
2.61023   	-7.16665e-01		         0.58500	0.00000e+00	
2.61763   	-2.23451e+00		         0.58667	0.00000e+00	
2.62502   	-3.49660e+00		         0.58833	1.00000e+00	
2.63241   	-4.60869e+00		         0.59000	2.00000e+00	
2.63981   	-5.25660e+00		         0.59167	2.00000e+00	
2.64720   	-5.78979e+00		         0.59333	3.00000e+00	
2.65459   	-6.01362e+00		         0.59500	3.00000e+00	
2.66199   	-6.08291e+00		         0.59667	3.00000e+00	
2.66938   	-5.92659e+00		         0.59833	3.00000e+00	
2.67677   	-5.61587e+00		         0.60000	3.00000e+00	
2.68417   	-5.16544e+00		         0.60167	3.00000e+00	
2.69156   	-4.70257e+00		         0.60333	2.00000e+00	
2.69895   	-4.21030e+00		         0.60500	2.00000e+00	
2.70635   	-3.68806e+00		         0.60667	1.00000e+00	
2.71374   	-3.19649e+00		         0.60833	0.00000e+00	
2.72113   	-2.78127e+00		         0.61000	-1.00000e+00	
2.72853   	-2.32636e+00		         0.61167	-2.00000e+00	
2.73592   	-1.93473e+00		         0.61333	-3.00000e+00	
2.74331   	-1.62869e+00		         0.61500	-3.00000e+00	
2.75071   	-1.42715e+00		         0.61667	-4.00000e+00	
2.75810   	-1.30954e+00		         0.61833	-5.00000e+00	
2.76549   	-1.31166e+00		         0.62000	-5.00000e+00	
2.77289   	-1.31045e+00		         0.62167	-5.00000e+00	
2.78028   	-1.34890e+00		         0.62333	-5.00000e+00	
2.78767   	-1.38487e+00		         0.62500	-5.00000e+00	
2.79507   	-1.39470e+00		         0.62667	-5.00000e+00	
2.80246   	-1.39828e+00		         0.62833	-5.00000e+00	
2.80985   	-1.38432e+00		         0.63000	-4.00000e+00	
2.81725   	-1.33243e+00		         0.63167	-3.00000e+00	
2.82464   	-1.28260e+00		         0.63333	-2.00000e+00	
2.83203   	-1.23439e+00		         0.63500	-1.00000e+00	
2.83943   	-1.17614e+00		         0.63667	0.00000e+00	
2.84682   	-1.12435e+00		         0.63833	1.00000e+00	
2.85422   	-1.07469e+00		         0.64000	2.00000e+00	
2.86161   	-1.03908e+00		         0.64167	3.00000e+00	
2.86900   	-9.92797e-01		         0.64333	4.00000e+00	
2.87640   	-9.66024e-01		         0.64500	5.00000e+00	
2.88379   	-9.35679e-01		         0.64667	5.00000e+00	
2.89118   	-9.14835e-01		         0.64833	5.00000e+00	
2.89858   	-8.82244e-01		         0.65000	5.00000e+00	
2.90597   	-8.59230e-01		         0.65167	5.00000e+00	
2.91336   	-8.24498e-01		         0.65333	5.00000e+00	
2.92076   	-7.86997e-01		         0.65500	4.00000e+00	
2.92815   	-7.45418e-01		         0.65667	4.00000e+00	
2.93554   	-7.13215e-01		         0.65833	3.00000e+00	
2.94294   	-6.77762e-01		         0.66000	2.00000e+00	
2.95033   	-6.55821e-01		         0.66167	1.00000e+00	
2.95772   	-6.39192e-01		         0.66333	0.00000e+00	
2.96512   	-6.16356e-01		         0.66500	-1.00000e+00	
2.97251   	-5.79396e-01		         0.66667	-1.00000e+00	
2.97990   	-5.55254e-01		         0.66833	-2.00000e+00	
2.98730   	-5.24401e-01		         0.67000	-3.00000e+00	
2.99469   	-5.08359e-01		         0.67167	-3.00000e+00	
3.00208   	-5.33656e-01		         0.67333	-3.00000e+00	
3.00948   	-6.60715e-01		         0.67500	-4.00000e+00	
3.01687   	-9.79150e-01		         0.67667	-4.00000e+00	
3.02426   	-1.57671e+00		         0.67833	-4.00000e+00	
3.03166   	-2.49634e+00		         0.68000	-4.00000e+00	
3.03905   	-3.75350e+00		         0.68167	-4.00000e+00	
3.04644   	-5.15920e+00		         0.68333	-4.00000e+00	
3.05384   	-6.49328e+00		         0.68500	-4.00000e+00	
3.06123   	-7.54094e+00		         0.68667	-4.00000e+00	
3.06862   	-8.13980e+00		         0.68833	-4.00000e+00	
3.07602   	-8.19828e+00		         0.69000	-4.00000e+00	
3.08341   	-7.74436e+00		         0.69167	-5.00000e+00	
3.09080   	-7.06720e+00		         0.69333	-5.00000e+00	
3.09820   	-6.19096e+00		         0.69500	-5.00000e+00	
3.10559   	-5.28051e+00		         0.69667	-5.00000e+00	
3.11298   	-4.36551e+00		         0.69833	-6.00000e+00	
3.12038   	-3.64819e+00		         0.70000	-6.00000e+00	
3.12777   	-2.88416e+00		         0.70167	-6.00000e+00	
3.13516   	-2.13955e+00		         0.70333	-5.00000e+00	
3.14256   	-1.36768e+00		         0.70500	-5.00000e+00	
3.14995   	-5.78923e-01		         0.70667	-4.00000e+00	
3.15734   	3.07478e-01		         0.70833	-4.00000e+00	
3.16474   	1.08491e+00		         0.71000	-4.00000e+00	
3.17213   	1.51104e+00		         0.71167	-3.00000e+00	
3.17952   	1.91818e+00		         0.71333	-3.00000e+00	
			         0.71500	-3.00000e+00	
			         0.71667	-2.00000e+00	
			         0.71833	-2.00000e+00	
			         0.72000	-2.00000e+00	
			         0.72167	-1.00000e+00	
			         0.72333	-1.00000e+00	
			         0.72500	-1.00000e+00	
			         0.72667	-1.00000e+00	
			         0.72833	0.00000e+00	
			         0.73000	0.00000e+00	
			         0.73167	0.00000e+00	
			         0.73333	1.00000e+00	
			         0.73500	1.00000e+00	
			         0.73667	2.00000e+00	
			         0.73833	2.00000e+00	
			         0.74000	3.00000e+00	
			         0.74167	3.00000e+00	
			         0.74333	4.00000e+00	
			         0.74500	4.00000e+00	
			         0.74667	4.00000e+00	
			         0.74833	4.00000e+00	
			         0.75000	4.00000e+00	
			         0.75167	4.00000e+00	
			         0.75333	4.00000e+00	
			         0.75500	4.00000e+00	
			         0.75667	4.00000e+00	
			         0.75833	4.00000e+00	
			         0.76000	4.00000e+00	
			         0.76167	4.00000e+00	
			         0.76333	4.00000e+00	
			         0.76500	4.00000e+00	
			         0.76667	4.00000e+00	
			         0.76833	4.00000e+00	
			         0.77000	4.00000e+00	
			         0.77167	4.00000e+00	
			         0.77333	4.00000e+00	
			         0.77500	4.00000e+00	
			         0.77667	4.00000e+00	
			         0.77833	4.00000e+00	
			         0.78000	3.00000e+00	
			         0.78167	3.00000e+00	
			         0.78333	3.00000e+00	
			         0.78500	3.00000e+00	
			         0.78667	3.00000e+00	
			         0.78833	2.00000e+00	
			         0.79000	2.00000e+00	
			         0.79167	2.00000e+00	
			         0.79333	2.00000e+00	
			         0.79500	3.00000e+00	
			         0.79667	3.00000e+00	
			         0.79833	3.00000e+00	
			         0.80000	4.00000e+00	
			         0.80167	4.00000e+00	
			         0.80333	5.00000e+00	
			         0.80500	6.00000e+00	
			         0.80667	6.00000e+00	
			         0.80833	7.00000e+00	
			         0.81000	8.00000e+00	
			         0.81167	8.00000e+00	
			         0.81333	9.00000e+00	
			         0.81500	9.00000e+00	
			         0.81667	9.00000e+00	
			         0.81833	1.00000e+01	
			         0.82000	1.00000e+01	
			         0.82167	1.00000e+01	
			         0.82333	9.00000e+00	
			         0.82500	9.00000e+00	
			         0.82667	8.00000e+00	
			         0.82833	8.00000e+00	
			         0.83000	7.00000e+00	
			         0.83167	6.00000e+00	
			         0.83333	6.00000e+00	
			         0.83500	5.00000e+00	
			         0.83667	5.00000e+00	
			         0.83833	5.00000e+00	
			         0.84000	5.00000e+00	
			         0.84167	4.00000e+00	
			         0.84333	4.00000e+00	
			         0.84500	4.00000e+00	
			         0.84667	4.00000e+00	
			         0.84833	4.00000e+00	
			         0.85000	5.00000e+00	
			         0.85167	5.00000e+00	
			         0.85333	5.00000e+00	
			         0.85500	5.00000e+00	
			         0.85667	5.00000e+00	
			         0.85833	5.00000e+00	
			         0.86000	5.00000e+00	
			         0.86167	5.00000e+00	
			         0.86333	6.00000e+00	
			         0.86500	6.00000e+00	
			         0.86667	6.00000e+00	
			         0.86833	6.00000e+00	
			         0.87000	6.00000e+00	
			         0.87167	6.00000e+00	
			         0.87333	6.00000e+00	
			         0.87500	6.00000e+00	
			         0.87667	6.00000e+00	
			         0.87833	6.00000e+00	
			         0.88000	6.00000e+00	
			         0.88167	5.00000e+00	
			         0.88333	5.00000e+00	
			         0.88500	5.00000e+00	
			         0.88667	5.00000e+00	
			         0.88833	6.00000e+00	
			         0.89000	6.00000e+00	
			         0.89167	6.00000e+00	
			         0.89333	7.00000e+00	
			         0.89500	7.00000e+00	
			         0.89667	8.00000e+00	
			         0.89833	9.00000e+00	
			         0.90000	1.00000e+01	
			         0.90167	1.10000e+01	
			         0.90333	1.20000e+01	
			         0.90500	1.30000e+01	
			         0.90667	1.40000e+01	
			         0.90833	1.50000e+01	
			         0.91000	1.60000e+01	
			         0.91167	1.60000e+01	
			         0.91333	1.70000e+01	
			         0.91500	1.80000e+01	
			         0.91667	1.90000e+01	
			         0.91833	1.90000e+01	
			         0.92000	1.90000e+01	
			         0.92167	2.00000e+01	
			         0.92333	2.00000e+01	
			         0.92500	2.00000e+01	
			         0.92667	1.90000e+01	
			         0.92833	1.90000e+01	
			         0.93000	1.90000e+01	
			         0.93167	1.80000e+01	
			         0.93333	1.80000e+01	
			         0.93500	1.70000e+01	
			         0.93667	1.60000e+01	
			         0.93833	1.50000e+01	
			         0.94000	1.40000e+01	
			         0.94167	1.30000e+01	
			         0.94333	1.10000e+01	
			         0.94500	9.00000e+00	
			         0.94667	7.00000e+00	
			         0.94833	5.00000e+00	
			         0.95000	3.00000e+00	
			         0.95167	1.00000e+00	
			         0.95333	-1.00000e+00	
			         0.95500	-4.00000e+00	
			         0.95667	-6.00000e+00	
			         0.95833	-7.00000e+00	
			         0.96000	-9.00000e+00	
			         0.96167	-1.00000e+01	
			         0.96333	-1.10000e+01	
			         0.96500	-1.10000e+01	
			         0.96667	-1.20000e+01	
			         0.96833	-1.20000e+01	
			         0.97000	-1.20000e+01	
			         0.97167	-1.20000e+01	
			         0.97333	-1.20000e+01	
			         0.97500	-1.10000e+01	
			         0.97667	-1.10000e+01	
			         0.97833	-1.10000e+01	
			         0.98000	-1.10000e+01	
			         0.98167	-1.20000e+01	
			         0.98333	-1.20000e+01	
			         0.98500	-1.20000e+01	
			         0.98667	-1.20000e+01	
			         0.98833	-1.20000e+01	
			         0.99000	-1.20000e+01	
			         0.99167	-1.20000e+01	
			         0.99333	-1.20000e+01	
			         0.99500	-1.20000e+01	
			         0.99667	-1.10000e+01	
			         0.99833	-1.10000e+01	
			         1.00000	-1.10000e+01	
			         1.00167	-1.00000e+01	
			         1.00333	-1.00000e+01	
			         1.00500	-1.00000e+01	
			         1.00667	-9.00000e+00	
			         1.00833	-9.00000e+00	
			         1.01000	-9.00000e+00	
			         1.01167	-9.00000e+00	
			         1.01333	-9.00000e+00	
			         1.01500	-9.00000e+00	
			         1.01667	-1.00000e+01	
			         1.01833	-1.00000e+01	
			         1.02000	-1.00000e+01	
			         1.02167	-1.00000e+01	
			         1.02333	-1.10000e+01	
			         1.02500	-1.10000e+01	
			         1.02667	-1.10000e+01	
			         1.02833	-1.10000e+01	
			         1.03000	-1.10000e+01	
			         1.03167	-1.10000e+01	
			         1.03333	-1.00000e+01	
			         1.03500	-1.00000e+01	
			         1.03667	-1.00000e+01	
			         1.03833	-1.00000e+01	
			         1.04000	-9.00000e+00	
			         1.04167	-8.00000e+00	
			         1.04333	-7.00000e+00	
			         1.04500	-6.00000e+00	
			         1.04667	-4.00000e+00	
			         1.04833	-2.00000e+00	
			         1.05000	0.00000e+00	
			         1.05167	3.00000e+00	
			         1.05333	7.00000e+00	
			         1.05500	1.00000e+01	
			         1.05667	1.50000e+01	
			         1.05833	2.00000e+01	
			         1.06000	2.50000e+01	
			         1.06167	3.00000e+01	
			         1.06333	3.50000e+01	
			         1.06500	4.00000e+01	
			         1.06667	4.40000e+01	
			         1.06833	4.80000e+01	
			         1.07000	5.10000e+01	
			         1.07167	5.40000e+01	
			         1.07333	5.50000e+01	
			         1.07500	5.60000e+01	
			         1.07667	5.50000e+01	
			         1.07833	5.40000e+01	
			         1.08000	5.20000e+01	
			         1.08167	4.80000e+01	
			         1.08333	4.40000e+01	
			         1.08500	4.00000e+01	
			         1.08667	3.40000e+01	
			         1.08833	2.90000e+01	
			         1.09000	2.40000e+01	
			         1.09167	1.80000e+01	
			         1.09333	1.30000e+01	
			         1.09500	8.00000e+00	
			         1.09667	4.00000e+00	
			         1.09833	0.00000e+00	
			         1.10000	-4.00000e+00	
			         1.10167	-7.00000e+00	
			         1.10333	-1.00000e+01	
			         1.10500	-1.20000e+01	
			         1.10667	-1.40000e+01	
			         1.10833	-1.50000e+01	
			         1.11000	-1.70000e+01	
			         1.11167	-1.70000e+01	
			         1.11333	-1.80000e+01	
			         1.11500	-1.80000e+01	
			         1.11667	-1.90000e+01	
			         1.11833	-1.90000e+01	
			         1.12000	-1.90000e+01	
			         1.12167	-1.90000e+01	
			         1.12333	-1.90000e+01	
			         1.12500	-1.90000e+01	
			         1.12667	-1.90000e+01	
			         1.12833	-1.80000e+01	
			         1.13000	-1.80000e+01	
			         1.13167	-1.80000e+01	
			         1.13333	-1.80000e+01	
			         1.13500	-1.70000e+01	
			         1.13667	-1.70000e+01	
			         1.13833	-1.70000e+01	
			         1.14000	-1.60000e+01	
			         1.14167	-1.60000e+01	
			         1.14333	-1.50000e+01	
			         1.14500	-1.50000e+01	
			         1.14667	-1.40000e+01	
			         1.14833	-1.30000e+01	
			         1.15000	-1.30000e+01	
			         1.15167	-1.20000e+01	
			         1.15333	-1.20000e+01	
			         1.15500	-1.10000e+01	
			         1.15667	-1.10000e+01	
			         1.15833	-1.00000e+01	
			         1.16000	-1.00000e+01	
			         1.16167	-9.00000e+00	
			         1.16333	-9.00000e+00	
			         1.16500	-8.00000e+00	
			         1.16667	-8.00000e+00	
			         1.16833	-7.00000e+00	
			         1.17000	-7.00000e+00	
			         1.17167	-6.00000e+00	
			         1.17333	-6.00000e+00	
			         1.17500	-5.00000e+00	
			         1.17667	-5.00000e+00	
			         1.17833	-4.00000e+00	
			         1.18000	-4.00000e+00	
			         1.18167	-4.00000e+00	
			         1.18333	-4.00000e+00	
			         1.18500	-4.00000e+00	
			         1.18667	-5.00000e+00	
			         1.18833	-5.00000e+00	
			         1.19000	-6.00000e+00	
			         1.19167	-6.00000e+00	
			         1.19333	-6.00000e+00	
			         1.19500	-7.00000e+00	
			         1.19667	-7.00000e+00	
			         1.19833	-7.00000e+00	
			         1.20000	-8.00000e+00	
			         1.20167	-8.00000e+00	
			         1.20333	-8.00000e+00	
			         1.20500	-7.00000e+00	
			         1.20667	-7.00000e+00	
			         1.20833	-7.00000e+00	
			         1.21000	-7.00000e+00	
			         1.21167	-7.00000e+00	
			         1.21333	-7.00000e+00	
			         1.21500	-6.00000e+00	
			         1.21667	-6.00000e+00	
			         1.21833	-5.00000e+00	
			         1.22000	-5.00000e+00	
			         1.22167	-4.00000e+00	
			         1.22333	-4.00000e+00	
			         1.22500	-4.00000e+00	
			         1.22667	-4.00000e+00	
			         1.22833	-4.00000e+00	
			         1.23000	-4.00000e+00	
			         1.23167	-4.00000e+00	
			         1.23333	-4.00000e+00	
			         1.23500	-5.00000e+00	
			         1.23667	-5.00000e+00	
			         1.23833	-6.00000e+00	
			         1.24000	-6.00000e+00	
			         1.24167	-6.00000e+00	
			         1.24333	-6.00000e+00	
			         1.24500	-6.00000e+00	
			         1.24667	-6.00000e+00	
			         1.24833	-5.00000e+00	
			         1.25000	-4.00000e+00	
			         1.25167	-4.00000e+00	
			         1.25333	-3.00000e+00	
			         1.25500	-2.00000e+00	
			         1.25667	-1.00000e+00	
			         1.25833	0.00000e+00	
			         1.26000	0.00000e+00	
			         1.26167	1.00000e+00	
			         1.26333	1.00000e+00	
			         1.26500	1.00000e+00	
			         1.26667	1.00000e+00	
			         1.26833	1.00000e+00	
			         1.27000	1.00000e+00	
			         1.27167	1.00000e+00	
			         1.27333	1.00000e+00	
			         1.27500	0.00000e+00	
			         1.27667	0.00000e+00	
			         1.27833	0.00000e+00	
			         1.28000	0.00000e+00	
			         1.28167	1.00000e+00	
			         1.28333	1.00000e+00	
			         1.28500	1.00000e+00	
			         1.28667	1.00000e+00	
			         1.28833	2.00000e+00	
			         1.29000	2.00000e+00	
			         1.29167	3.00000e+00	
			         1.29333	3.00000e+00	
			         1.29500	3.00000e+00	
			         1.29667	3.00000e+00	
			         1.29833	3.00000e+00	
			         1.30000	4.00000e+00	
			         1.30167	4.00000e+00	
			         1.30333	4.00000e+00	
			         1.30500	4.00000e+00	
			         1.30667	5.00000e+00	
			         1.30833	5.00000e+00	
			         1.31000	6.00000e+00	
			         1.31167	6.00000e+00	
			         1.31333	7.00000e+00	
			         1.31500	7.00000e+00	
			         1.31667	7.00000e+00	
			         1.31833	8.00000e+00	
			         1.32000	8.00000e+00	
			         1.32167	8.00000e+00	
			         1.32333	7.00000e+00	
			         1.32500	7.00000e+00	
			         1.32667	7.00000e+00	
			         1.32833	6.00000e+00	
			         1.33000	6.00000e+00	
			         1.33167	5.00000e+00	
			         1.33333	5.00000e+00	
			         1.33500	5.00000e+00	
			         1.33667	5.00000e+00	
			         1.33833	6.00000e+00	
			         1.34000	6.00000e+00	
			         1.34167	6.00000e+00	
			         1.34333	7.00000e+00	
			         1.34500	7.00000e+00	
			         1.34667	7.00000e+00	
			         1.34833	8.00000e+00	
			         1.35000	8.00000e+00	
			         1.35167	8.00000e+00	
			         1.35333	7.00000e+00	
			         1.35500	7.00000e+00	
			         1.35667	6.00000e+00	
			         1.35833	5.00000e+00	
			         1.36000	5.00000e+00	
			         1.36167	4.00000e+00	
			         1.36333	3.00000e+00	
			         1.36500	2.00000e+00	
			         1.36667	1.00000e+00	
			         1.36833	0.00000e+00	
			         1.37000	-1.00000e+00	
			         1.37167	-2.00000e+00	
			         1.37333	-3.00000e+00	
			         1.37500	-3.00000e+00	
			         1.37667	-4.00000e+00	
			         1.37833	-4.00000e+00	
			         1.38000	-4.00000e+00	
			         1.38167	-4.00000e+00	
			         1.38333	-4.00000e+00	
			         1.38500	-5.00000e+00	
			         1.38667	-5.00000e+00	
			         1.38833	-5.00000e+00	
			         1.39000	-6.00000e+00	
			         1.39167	-6.00000e+00	
			         1.39333	-6.00000e+00	
			         1.39500	-7.00000e+00	
			         1.39667	-7.00000e+00	
			         1.39833	-8.00000e+00	
			         1.40000	-8.00000e+00	
			         1.40167	-8.00000e+00	
			         1.40333	-9.00000e+00	
			         1.40500	-9.00000e+00	
			         1.40667	-9.00000e+00	
			         1.40833	-9.00000e+00	
			         1.41000	-9.00000e+00	
			         1.41167	-9.00000e+00	
			         1.41333	-9.00000e+00	
			         1.41500	-9.00000e+00	
			         1.41667	-9.00000e+00	
			         1.41833	-8.00000e+00	
			         1.42000	-8.00000e+00	
			         1.42167	-8.00000e+00	
			         1.42333	-7.00000e+00	
			         1.42500	-7.00000e+00	
			         1.42667	-6.00000e+00	
			         1.42833	-6.00000e+00	
			         1.43000	-6.00000e+00	
			         1.43167	-5.00000e+00	
			         1.43333	-5.00000e+00	
			         1.43500	-5.00000e+00	
			         1.43667	-5.00000e+00	
			         1.43833	-5.00000e+00	
			         1.44000	-5.00000e+00	
			         1.44167	-6.00000e+00	
			         1.44333	-6.00000e+00	
			         1.44500	-6.00000e+00	
			         1.44667	-7.00000e+00	
			         1.44833	-6.00000e+00	
			         1.45000	-6.00000e+00	
			         1.45167	-6.00000e+00	
			         1.45333	-6.00000e+00	
			         1.45500	-5.00000e+00	
			         1.45667	-5.00000e+00	
			         1.45833	-5.00000e+00	
			         1.46000	-5.00000e+00	
			         1.46167	-4.00000e+00	
			         1.46333	-4.00000e+00	
			         1.46500	-4.00000e+00	
			         1.46667	-5.00000e+00	
			         1.46833	-5.00000e+00	
			         1.47000	-6.00000e+00	
			         1.47167	-6.00000e+00	
			         1.47333	-7.00000e+00	
			         1.47500	-7.00000e+00	
			         1.47667	-8.00000e+00	
			         1.47833	-8.00000e+00	
			         1.48000	-8.00000e+00	
			         1.48167	-8.00000e+00	
			         1.48333	-8.00000e+00	
			         1.48500	-9.00000e+00	
			         1.48667	-9.00000e+00	
			         1.48833	-9.00000e+00	
			         1.49000	-9.00000e+00	
			         1.49167	-9.00000e+00	
			         1.49333	-9.00000e+00	
			         1.49500	-9.00000e+00	
			         1.49667	-9.00000e+00	
			         1.49833	-8.00000e+00	
			         1.50000	-8.00000e+00	
			         1.50167	-8.00000e+00	
			         1.50333	-8.00000e+00	
			         1.50500	-7.00000e+00	
			         1.50667	-7.00000e+00	
			         1.50833	-6.00000e+00	
			         1.51000	-6.00000e+00	
			         1.51167	-5.00000e+00	
			         1.51333	-5.00000e+00	
			         1.51500	-4.00000e+00	
			         1.51667	-3.00000e+00	
			         1.51833	-3.00000e+00	
			         1.52000	-2.00000e+00	
			         1.52167	-2.00000e+00	
			         1.52333	-2.00000e+00	
			         1.52500	-1.00000e+00	
			         1.52667	-1.00000e+00	
			         1.52833	-1.00000e+00	
			         1.53000	-1.00000e+00	
			         1.53167	-1.00000e+00	
			         1.53333	-1.00000e+00	
			         1.53500	-1.00000e+00	
			         1.53667	-1.00000e+00	
			         1.53833	-1.00000e+00	
			         1.54000	-1.00000e+00	
			         1.54167	-1.00000e+00	
			         1.54333	-1.00000e+00	
			         1.54500	-1.00000e+00	
			         1.54667	-1.00000e+00	
			         1.54833	-1.00000e+00	
			         1.55000	-1.00000e+00	
			         1.55167	0.00000e+00	
			         1.55333	0.00000e+00	
			         1.55500	0.00000e+00	
			         1.55667	1.00000e+00	
			         1.55833	1.00000e+00	
			         1.56000	1.00000e+00	
			         1.56167	1.00000e+00	
			         1.56333	1.00000e+00	
			         1.56500	0.00000e+00	
			         1.56667	0.00000e+00	
			         1.56833	0.00000e+00	
			         1.57000	-1.00000e+00	
			         1.57167	-1.00000e+00	
			         1.57333	-2.00000e+00	
			         1.57500	-3.00000e+00	
			         1.57667	-3.00000e+00	
			         1.57833	-4.00000e+00	
			         1.58000	-5.00000e+00	
			         1.58167	-5.00000e+00	
			         1.58333	-5.00000e+00	
			         1.58500	-5.00000e+00	
			         1.58667	-5.00000e+00	
			         1.58833	-5.00000e+00	
			         1.59000	-5.00000e+00	
			         1.59167	-5.00000e+00	
			         1.59333	-5.00000e+00	
			         1.59500	-5.00000e+00	
			         1.59667	-5.00000e+00	
			         1.59833	-4.00000e+00	
			         1.60000	-4.00000e+00	
			         1.60167	-4.00000e+00	
			         1.60333	-3.00000e+00	
			         1.60500	-3.00000e+00	
			         1.60667	-2.00000e+00	
			         1.60833	-2.00000e+00	
			         1.61000	-1.00000e+00	
			         1.61167	0.00000e+00	
			         1.61333	0.00000e+00	
			         1.61500	1.00000e+00	
			         1.61667	1.00000e+00	
			         1.61833	1.00000e+00	
			         1.62000	1.00000e+00	
			         1.62167	1.00000e+00	
			         1.62333	1.00000e+00	
			         1.62500	1.00000e+00	
			         1.62667	0.00000e+00	
			         1.62833	0.00000e+00	
			         1.63000	-1.00000e+00	
			         1.63167	-2.00000e+00	
			         1.63333	-3.00000e+00	
			         1.63500	-4.00000e+00	
			         1.63667	-5.00000e+00	
			         1.63833	-6.00000e+00	
			         1.64000	-7.00000e+00	
			         1.64167	-8.00000e+00	
			         1.64333	-9.00000e+00	
			         1.64500	-1.00000e+01	
			         1.64667	-1.00000e+01	
			         1.64833	-1.00000e+01	
			         1.65000	-9.00000e+00	
			         1.65167	-9.00000e+00	
			         1.65333	-9.00000e+00	
			         1.65500	-9.00000e+00	
			         1.65667	-8.00000e+00	
			         1.65833	-8.00000e+00	
			         1.66000	-7.00000e+00	
			         1.66167	-6.00000e+00	
			         1.66333	-6.00000e+00	
			         1.66500	-6.00000e+00	
			         1.66667	-6.00000e+00	
			         1.66833	-6.00000e+00	
			         1.67000	-6.00000e+00	
			         1.67167	-6.00000e+00	
			         1.67333	-6.00000e+00	
			         1.67500	-6.00000e+00	
			         1.67667	-6.00000e+00	
			         1.67833	-7.00000e+00	
			         1.68000	-7.00000e+00	
			         1.68167	-7.00000e+00	
			         1.68333	-7.00000e+00	
			         1.68500	-8.00000e+00	
			         1.68667	-8.00000e+00	
			         1.68833	-8.00000e+00	
			         1.69000	-8.00000e+00	
			         1.69167	-8.00000e+00	
			         1.69333	-8.00000e+00	
			         1.69500	-7.00000e+00	
			         1.69667	-7.00000e+00	
			         1.69833	-7.00000e+00	
			         1.70000	-6.00000e+00	
			         1.70167	-5.00000e+00	
			         1.70333	-5.00000e+00	
			         1.70500	-4.00000e+00	
			         1.70667	-4.00000e+00	
			         1.70833	-3.00000e+00	
			         1.71000	-3.00000e+00	
			         1.71167	-3.00000e+00	
			         1.71333	-3.00000e+00	
			         1.71500	-3.00000e+00	
			         1.71667	-3.00000e+00	
			         1.71833	-3.00000e+00	
			         1.72000	-3.00000e+00	
			         1.72167	-3.00000e+00	
			         1.72333	-3.00000e+00	
			         1.72500	-3.00000e+00	
			         1.72667	-3.00000e+00	
			         1.72833	-3.00000e+00	
			         1.73000	-3.00000e+00	
			         1.73167	-3.00000e+00	
			         1.73333	-3.00000e+00	
			         1.73500	-3.00000e+00	
			         1.73667	-3.00000e+00	
			         1.73833	-4.00000e+00	
			         1.74000	-4.00000e+00	
			         1.74167	-5.00000e+00	
			         1.74333	-6.00000e+00	
			         1.74500	-7.00000e+00	
			         1.74667	-8.00000e+00	
			         1.74833	-9.00000e+00	
			         1.75000	-1.00000e+01	
			         1.75167	-1.00000e+01	
			         1.75333	-1.10000e+01	
			         1.75500	-1.10000e+01	
			         1.75667	-1.10000e+01	
			         1.75833	-1.10000e+01	
			         1.76000	-1.00000e+01	
			         1.76167	-1.00000e+01	
			         1.76333	-9.00000e+00	
			         1.76500	-8.00000e+00	
			         1.76667	-8.00000e+00	
			         1.76833	-7.00000e+00	
			         1.77000	-7.00000e+00	
			         1.77167	-6.00000e+00	
			         1.77333	-6.00000e+00	
			         1.77500	-6.00000e+00	
			         1.77667	-7.00000e+00	
			         1.77833	-7.00000e+00	
			         1.78000	-7.00000e+00	
			         1.78167	-7.00000e+00	
			         1.78333	-7.00000e+00	
			         1.78500	-7.00000e+00	
			         1.78667	-7.00000e+00	
			         1.78833	-7.00000e+00	
			         1.79000	-7.00000e+00	
			         1.79167	-6.00000e+00	
			         1.79333	-5.00000e+00	
			         1.79500	-5.00000e+00	
			         1.79667	-4.00000e+00	
			         1.79833	-3.00000e+00	
			         1.80000	-2.00000e+00	
			         1.80167	-2.00000e+00	
			         1.80333	-1.00000e+00	
			         1.80500	-1.00000e+00	
			         1.80667	0.00000e+00	
			         1.80833	0.00000e+00	
			         1.81000	0.00000e+00	
			         1.81167	0.00000e+00	
			         1.81333	0.00000e+00	
			         1.81500	0.00000e+00	
			         1.81667	0.00000e+00	
			         1.81833	0.00000e+00	
			         1.82000	-1.00000e+00	
			         1.82167	-1.00000e+00	
			         1.82333	-1.00000e+00	
			         1.82500	-1.00000e+00	
			         1.82667	-1.00000e+00	
			         1.82833	-2.00000e+00	
			         1.83000	-2.00000e+00	
			         1.83167	-2.00000e+00	
			         1.83333	-2.00000e+00	
			         1.83500	-3.00000e+00	
			         1.83667	-4.00000e+00	
			         1.83833	-4.00000e+00	
			         1.84000	-5.00000e+00	
			         1.84167	-5.00000e+00	
			         1.84333	-6.00000e+00	
			         1.84500	-6.00000e+00	
			         1.84667	-6.00000e+00	
			         1.84833	-6.00000e+00	
			         1.85000	-6.00000e+00	
			         1.85167	-5.00000e+00	
			         1.85333	-4.00000e+00	
			         1.85500	-4.00000e+00	
			         1.85667	-3.00000e+00	
			         1.85833	-3.00000e+00	
			         1.86000	-2.00000e+00	
			         1.86167	-2.00000e+00	
			         1.86333	-2.00000e+00	
			         1.86500	-1.00000e+00	
			         1.86667	-1.00000e+00	
			         1.86833	-2.00000e+00	
			         1.87000	-2.00000e+00	
			         1.87167	-2.00000e+00	
			         1.87333	-3.00000e+00	
			         1.87500	-3.00000e+00	
			         1.87667	-4.00000e+00	
			         1.87833	-4.00000e+00	
			         1.88000	-4.00000e+00	
			         1.88167	-4.00000e+00	
			         1.88333	-4.00000e+00	
			         1.88500	-3.00000e+00	
			         1.88667	-3.00000e+00	
			         1.88833	-3.00000e+00	
			         1.89000	-3.00000e+00	
			         1.89167	-3.00000e+00	
			         1.89333	-3.00000e+00	
			         1.89500	-3.00000e+00	
			         1.89667	-3.00000e+00	
			         1.89833	-3.00000e+00	
			         1.90000	-2.00000e+00	
			         1.90167	-2.00000e+00	
			         1.90333	-2.00000e+00	
			         1.90500	-2.00000e+00	
			         1.90667	-1.00000e+00	
			         1.90833	-1.00000e+00	
			         1.91000	0.00000e+00	
			         1.91167	1.00000e+00	
			         1.91333	1.00000e+00	
			         1.91500	2.00000e+00	
			         1.91667	2.00000e+00	
			         1.91833	2.00000e+00	
			         1.92000	2.00000e+00	
			         1.92167	2.00000e+00	
			         1.92333	2.00000e+00	
			         1.92500	2.00000e+00	
			         1.92667	2.00000e+00	
			         1.92833	3.00000e+00	
			         1.93000	3.00000e+00	
			         1.93167	3.00000e+00	
			         1.93333	4.00000e+00	
			         1.93500	4.00000e+00	
			         1.93667	5.00000e+00	
			         1.93833	7.00000e+00	
			         1.94000	8.00000e+00	
			         1.94167	9.00000e+00	
			         1.94333	1.00000e+01	
			         1.94500	1.10000e+01	
			         1.94667	1.20000e+01	
			         1.94833	1.30000e+01	
			         1.95000	1.40000e+01	
			         1.95167	1.50000e+01	
			         1.95333	1.50000e+01	
			         1.95500	1.60000e+01	
			         1.95667	1.60000e+01	
			         1.95833	1.70000e+01	
			         1.96000	1.70000e+01	
			         1.96167	1.80000e+01	
			         1.96333	1.80000e+01	
			         1.96500	1.90000e+01	
			         1.96667	2.00000e+01	
			         1.96833	2.00000e+01	
			         1.97000	2.10000e+01	
			         1.97167	2.10000e+01	
			         1.97333	2.10000e+01	
			         1.97500	2.10000e+01	
			         1.97667	2.00000e+01	
			         1.97833	1.90000e+01	
			         1.98000	1.70000e+01	
			         1.98167	1.60000e+01	
			         1.98333	1.40000e+01	
			         1.98500	1.10000e+01	
			         1.98667	9.00000e+00	
			         1.98833	7.00000e+00	
			         1.99000	5.00000e+00	
			         1.99167	2.00000e+00	
			         1.99333	0.00000e+00	
			         1.99500	-1.00000e+00	
			         1.99667	-3.00000e+00	
			         1.99833	-4.00000e+00	
			         2.00000	-5.00000e+00	
			         2.00167	-6.00000e+00	
			         2.00333	-7.00000e+00	
			         2.00500	-7.00000e+00	
			         2.00667	-7.00000e+00	
			         2.00833	-8.00000e+00	
			         2.01000	-8.00000e+00	
			         2.01167	-8.00000e+00	
			         2.01333	-8.00000e+00	
			         2.01500	-9.00000e+00	
			         2.01667	-9.00000e+00	
			         2.01833	-9.00000e+00	
			         2.02000	-1.00000e+01	
			         2.02167	-1.00000e+01	
			         2.02333	-1.10000e+01	
			         2.02500	-1.10000e+01	
			         2.02667	-1.10000e+01	
			         2.02833	-1.10000e+01	
			         2.03000	-1.10000e+01	
			         2.03167	-1.10000e+01	
			         2.03333	-1.10000e+01	
			         2.03500	-1.10000e+01	
			         2.03667	-1.00000e+01	
			         2.03833	-9.00000e+00	
			         2.04000	-9.00000e+00	
			         2.04167	-8.00000e+00	
			         2.04333	-8.00000e+00	
			         2.04500	-8.00000e+00	
			         2.04667	-8.00000e+00	
			         2.04833	-8.00000e+00	
			         2.05000	-9.00000e+00	
			         2.05167	-9.00000e+00	
			         2.05333	-9.00000e+00	
			         2.05500	-1.00000e+01	
			         2.05667	-1.00000e+01	
			         2.05833	-1.00000e+01	
			         2.06000	-1.10000e+01	
			         2.06167	-1.10000e+01	
			         2.06333	-1.10000e+01	
			         2.06500	-1.00000e+01	
			         2.06667	-1.00000e+01	
			         2.06833	-1.00000e+01	
			         2.07000	-9.00000e+00	
			         2.07167	-9.00000e+00	
			         2.07333	-8.00000e+00	
			         2.07500	-8.00000e+00	
			         2.07667	-7.00000e+00	
			         2.07833	-6.00000e+00	
			         2.08000	-6.00000e+00	
			         2.08167	-5.00000e+00	
			         2.08333	-5.00000e+00	
			         2.08500	-4.00000e+00	
			         2.08667	-3.00000e+00	
			         2.08833	-1.00000e+00	
			         2.09000	1.00000e+00	
			         2.09167	4.00000e+00	
			         2.09333	8.00000e+00	
			         2.09500	1.20000e+01	
			         2.09667	1.60000e+01	
			         2.09833	2.10000e+01	
			         2.10000	2.60000e+01	
			         2.10167	3.20000e+01	
			         2.10333	3.80000e+01	
			         2.10500	4.30000e+01	
			         2.10667	4.80000e+01	
			         2.10833	5.20000e+01	
			         2.11000	5.60000e+01	
			         2.11167	5.80000e+01	
			         2.11333	5.90000e+01	
			         2.11500	5.90000e+01	
			         2.11667	5.80000e+01	
			         2.11833	5.60000e+01	
			         2.12000	5.30000e+01	
			         2.12167	4.90000e+01	
			         2.12333	4.40000e+01	
			         2.12500	3.80000e+01	
			         2.12667	3.20000e+01	
			         2.12833	2.50000e+01	
			         2.13000	1.90000e+01	
			         2.13167	1.30000e+01	
			         2.13333	7.00000e+00	
			         2.13500	2.00000e+00	
			         2.13667	-3.00000e+00	
			         2.13833	-7.00000e+00	
			         2.14000	-1.10000e+01	
			         2.14167	-1.40000e+01	
			         2.14333	-1.60000e+01	
			         2.14500	-1.80000e+01	
			         2.14667	-2.00000e+01	
			         2.14833	-2.00000e+01	
			         2.15000	-2.10000e+01	
			         2.15167	-2.10000e+01	
			         2.15333	-2.10000e+01	
			         2.15500	-2.10000e+01	
			         2.15667	-2.00000e+01	
			         2.15833	-2.00000e+01	
			         2.16000	-1.90000e+01	
			         2.16167	-1.90000e+01	
			         2.16333	-1.90000e+01	
			         2.16500	-1.90000e+01	
			         2.16667	-1.80000e+01	
			         2.16833	-1.80000e+01	
			         2.17000	-1.80000e+01	
			         2.17167	-1.80000e+01	
			         2.17333	-1.80000e+01	
			         2.17500	-1.70000e+01	
			         2.17667	-1.70000e+01	
			         2.17833	-1.60000e+01	
			         2.18000	-1.50000e+01	
			         2.18167	-1.40000e+01	
			         2.18333	-1.30000e+01	
			         2.18500	-1.30000e+01	
			         2.18667	-1.20000e+01	
			         2.18833	-1.10000e+01	
			         2.19000	-1.10000e+01	
			         2.19167	-1.10000e+01	
			         2.19333	-1.10000e+01	
			         2.19500	-1.10000e+01	
			         2.19667	-1.10000e+01	
			         2.19833	-1.20000e+01	
			         2.20000	-1.20000e+01	
			         2.20167	-1.30000e+01	
			         2.20333	-1.30000e+01	
			         2.20500	-1.30000e+01	
			         2.20667	-1.30000e+01	
			         2.20833	-1.30000e+01	
			         2.21000	-1.20000e+01	
			         2.21167	-1.20000e+01	
			         2.21333	-1.20000e+01	
			         2.21500	-1.10000e+01	
			         2.21667	-1.10000e+01	
			         2.21833	-1.10000e+01	
			         2.22000	-1.10000e+01	
			         2.22167	-1.00000e+01	
			         2.22333	-1.00000e+01	
			         2.22500	-1.00000e+01	
			         2.22667	-1.00000e+01	
			         2.22833	-9.00000e+00	
			         2.23000	-9.00000e+00	
			         2.23167	-8.00000e+00	
			         2.23333	-8.00000e+00	
			         2.23500	-7.00000e+00	
			         2.23667	-6.00000e+00	
			         2.23833	-5.00000e+00	
			         2.24000	-4.00000e+00	
			         2.24167	-3.00000e+00	
			         2.24333	-2.00000e+00	
			         2.24500	-2.00000e+00	
			         2.24667	-1.00000e+00	
			         2.24833	-1.00000e+00	
			         2.25000	0.00000e+00	
			         2.25167	0.00000e+00	
			         2.25333	0.00000e+00	
			         2.25500	-1.00000e+00	
			         2.25667	-1.00000e+00	
			         2.25833	-1.00000e+00	
			         2.26000	-2.00000e+00	
			         2.26167	-2.00000e+00	
			         2.26333	-3.00000e+00	
			         2.26500	-4.00000e+00	
			         2.26667	-4.00000e+00	
			         2.26833	-4.00000e+00	
			         2.27000	-5.00000e+00	
			         2.27167	-5.00000e+00	
			         2.27333	-4.00000e+00	
			         2.27500	-4.00000e+00	
			         2.27667	-4.00000e+00	
			         2.27833	-4.00000e+00	
			         2.28000	-3.00000e+00	
			         2.28167	-3.00000e+00	
			         2.28333	-3.00000e+00	
			         2.28500	-3.00000e+00	
			         2.28667	-3.00000e+00	
			         2.28833	-3.00000e+00	
			         2.29000	-3.00000e+00	
			         2.29167	-3.00000e+00	
			         2.29333	-4.00000e+00	
			         2.29500	-4.00000e+00	
			         2.29667	-4.00000e+00	
			         2.29833	-5.00000e+00	
			         2.30000	-5.00000e+00	
			         2.30167	-4.00000e+00	
			         2.30333	-4.00000e+00	
			         2.30500	-3.00000e+00	
			         2.30667	-3.00000e+00	
			         2.30833	-2.00000e+00	
			         2.31000	-1.00000e+00	
			         2.31167	0.00000e+00	
			         2.31333	0.00000e+00	
			         2.31500	1.00000e+00	
			         2.31667	2.00000e+00	
			         2.31833	2.00000e+00	
			         2.32000	2.00000e+00	
			         2.32167	3.00000e+00	
			         2.32333	3.00000e+00	
			         2.32500	3.00000e+00	
			         2.32667	4.00000e+00	
			         2.32833	4.00000e+00	
			         2.33000	5.00000e+00	
			         2.33167	5.00000e+00	
			         2.33333	5.00000e+00	
			         2.33500	6.00000e+00	
			         2.33667	6.00000e+00	
			         2.33833	7.00000e+00	
			         2.34000	7.00000e+00	
			         2.34167	7.00000e+00	
			         2.34333	8.00000e+00	
			         2.34500	8.00000e+00	
			         2.34667	8.00000e+00	
			         2.34833	8.00000e+00	
			         2.35000	9.00000e+00	
			         2.35167	9.00000e+00	
			         2.35333	1.00000e+01	
			         2.35500	1.00000e+01	
			         2.35667	1.10000e+01	
			         2.35833	1.20000e+01	
			         2.36000	1.30000e+01	
			         2.36167	1.40000e+01	
			         2.36333	1.40000e+01	
			         2.36500	1.40000e+01	
			         2.36667	1.40000e+01	
			         2.36833	1.40000e+01	
			         2.37000	1.40000e+01	
			         2.37167	1.30000e+01	
			         2.37333	1.30000e+01	
			         2.37500	1.20000e+01	
			         2.37667	1.10000e+01	
			         2.37833	1.10000e+01	
			         2.38000	1.10000e+01	
			         2.38167	1.00000e+01	
			         2.38333	1.00000e+01	
			         2.38500	1.00000e+01	
			         2.38667	1.00000e+01	
			         2.38833	1.00000e+01	
			         2.39000	1.00000e+01	
			         2.39167	1.00000e+01	
			         2.39333	1.10000e+01	
			         2.39500	1.10000e+01	
			         2.39667	1.10000e+01	
			         2.39833	1.10000e+01	
			         2.40000	1.10000e+01	
			         2.40167	1.10000e+01	
			         2.40333	1.00000e+01	
			         2.40500	9.00000e+00	
			         2.40667	8.00000e+00	
			         2.40833	7.00000e+00	
			         2.41000	6.00000e+00	
			         2.41167	4.00000e+00	
			         2.41333	2.00000e+00	
			         2.41500	0.00000e+00	
			         2.41667	-1.00000e+00	
			         2.41833	-3.00000e+00	
			         2.42000	-4.00000e+00	
			         2.42167	-6.00000e+00	
			         2.42333	-7.00000e+00	
			         2.42500	-8.00000e+00	
			         2.42667	-9.00000e+00	
			         2.42833	-9.00000e+00	
			         2.43000	-1.00000e+01	
			         2.43167	-1.00000e+01	
			         2.43333	-1.00000e+01	
			         2.43500	-1.00000e+01	
			         2.43667	-1.00000e+01	
			         2.43833	-1.00000e+01	
			         2.44000	-1.00000e+01	
			         2.44167	-9.00000e+00	
			         2.44333	-9.00000e+00	
			         2.44500	-8.00000e+00	
			         2.44667	-8.00000e+00	
			         2.44833	-7.00000e+00	
			         2.45000	-6.00000e+00	
			         2.45167	-5.00000e+00	
			         2.45333	-4.00000e+00	
			         2.45500	-4.00000e+00	
			         2.45667	-4.00000e+00	
			         2.45833	-4.00000e+00	
			         2.46000	-4.00000e+00	
			         2.46167	-4.00000e+00	
			         2.46333	-5.00000e+00	
			         2.46500	-5.00000e+00	
			         2.46667	-6.00000e+00	
			         2.46833	-7.00000e+00	
			         2.47000	-7.00000e+00	
			         2.47167	-8.00000e+00	
			         2.47333	-9.00000e+00	
			         2.47500	-9.00000e+00	
			         2.47667	-9.00000e+00	
			         2.47833	-9.00000e+00	
			         2.48000	-9.00000e+00	
			         2.48167	-9.00000e+00	
			         2.48333	-9.00000e+00	
			         2.48500	-9.00000e+00	
			         2.48667	-9.00000e+00	
			         2.48833	-9.00000e+00	
			         2.49000	-9.00000e+00	
			         2.49167	-9.00000e+00	
			         2.49333	-9.00000e+00	
			         2.49500	-9.00000e+00	
			         2.49667	-9.00000e+00	
			         2.49833	-9.00000e+00	
			         2.50000	-9.00000e+00	
			         2.50167	-9.00000e+00	
			         2.50333	-9.00000e+00	
			         2.50500	-9.00000e+00	
			         2.50667	-8.00000e+00	
			         2.50833	-8.00000e+00	
			         2.51000	-7.00000e+00	
			         2.51167	-7.00000e+00	
			         2.51333	-7.00000e+00	
			         2.51500	-6.00000e+00	
			         2.51667	-6.00000e+00	
			         2.51833	-6.00000e+00	
			         2.52000	-6.00000e+00	
			         2.52167	-5.00000e+00	
			         2.52333	-5.00000e+00	
			         2.52500	-6.00000e+00	
			         2.52667	-6.00000e+00	
			         2.52833	-6.00000e+00	
			         2.53000	-6.00000e+00	
			         2.53167	-6.00000e+00	
			         2.53333	-6.00000e+00	
			         2.53500	-6.00000e+00	
			         2.53667	-5.00000e+00	
			         2.53833	-5.00000e+00	
			         2.54000	-4.00000e+00	
			         2.54167	-3.00000e+00	
			         2.54333	-2.00000e+00	
			         2.54500	-1.00000e+00	
			         2.54667	0.00000e+00	
			         2.54833	1.00000e+00	
			         2.55000	2.00000e+00	
			         2.55167	2.00000e+00	
			         2.55333	2.00000e+00	
			         2.55500	2.00000e+00	
			         2.55667	1.00000e+00	
			         2.55833	1.00000e+00	
			         2.56000	0.00000e+00	
			         2.56167	0.00000e+00	
			         2.56333	-1.00000e+00	
			         2.56500	-1.00000e+00	
			         2.56667	-2.00000e+00	
			         2.56833	-2.00000e+00	
			         2.57000	-3.00000e+00	
			         2.57167	-3.00000e+00	
			         2.57333	-3.00000e+00	
			         2.57500	-3.00000e+00	
			         2.57667	-3.00000e+00	
			         2.57833	-3.00000e+00	
			         2.58000	-3.00000e+00	
			         2.58167	-3.00000e+00	
			         2.58333	-3.00000e+00	
			         2.58500	-3.00000e+00	
			         2.58667	-3.00000e+00	
			         2.58833	-3.00000e+00	
			         2.59000	-3.00000e+00	
			         2.59167	-2.00000e+00	
			         2.59333	-2.00000e+00	
			         2.59500	-2.00000e+00	
			         2.59667	-2.00000e+00	
			         2.59833	-1.00000e+00	
			         2.60000	-1.00000e+00	
			         2.60167	-1.00000e+00	
			         2.60333	-1.00000e+00	
			         2.60500	-1.00000e+00	
			         2.60667	-1.00000e+00	
			         2.60833	-1.00000e+00	
			         2.61000	-1.00000e+00	
			         2.61167	-1.00000e+00	
			         2.61333	-1.00000e+00	
			         2.61500	-1.00000e+00	
			         2.61667	-1.00000e+00	
			         2.61833	0.00000e+00	
			         2.62000	0.00000e+00	
			         2.62167	0.00000e+00	
			         2.62333	0.00000e+00	
			         2.62500	0.00000e+00	
			         2.62667	0.00000e+00	
			         2.62833	0.00000e+00	
			         2.63000	0.00000e+00	
			         2.63167	0.00000e+00	
			         2.63333	0.00000e+00	
			         2.63500	0.00000e+00	
			         2.63667	0.00000e+00	
			         2.63833	1.00000e+00	
			         2.64000	1.00000e+00	
			         2.64167	1.00000e+00	
			         2.64333	1.00000e+00	
			         2.64500	2.00000e+00	
			         2.64667	1.00000e+00	
			         2.64833	1.00000e+00	
			         2.65000	1.00000e+00	
			         2.65167	1.00000e+00	
			         2.65333	0.00000e+00	
			         2.65500	-1.00000e+00	
			         2.65667	-2.00000e+00	
			         2.65833	-3.00000e+00	
			         2.66000	-3.00000e+00	
			         2.66167	-4.00000e+00	
			         2.66333	-5.00000e+00	
			         2.66500	-5.00000e+00	
			         2.66667	-6.00000e+00	
			         2.66833	-6.00000e+00	
			         2.67000	-6.00000e+00	
			         2.67167	-7.00000e+00	
			         2.67333	-7.00000e+00	
			         2.67500	-7.00000e+00	
			         2.67667	-7.00000e+00	
			         2.67833	-7.00000e+00	
			         2.68000	-7.00000e+00	
			         2.68167	-7.00000e+00	
			         2.68333	-6.00000e+00	
			         2.68500	-6.00000e+00	
			         2.68667	-6.00000e+00	
			         2.68833	-5.00000e+00	
			         2.69000	-5.00000e+00	
			         2.69167	-5.00000e+00	
			         2.69333	-5.00000e+00	
			         2.69500	-5.00000e+00	
			         2.69667	-5.00000e+00	
			         2.69833	-5.00000e+00	
			         2.70000	-5.00000e+00	
			         2.70167	-5.00000e+00	
			         2.70333	-5.00000e+00	
			         2.70500	-5.00000e+00	
			         2.70667	-5.00000e+00	
			         2.70833	-5.00000e+00	
			         2.71000	-5.00000e+00	
			         2.71167	-5.00000e+00	
			         2.71333	-5.00000e+00	
			         2.71500	-4.00000e+00	
			         2.71667	-4.00000e+00	
			         2.71833	-4.00000e+00	
			         2.72000	-3.00000e+00	
			         2.72167	-3.00000e+00	
			         2.72333	-2.00000e+00	
			         2.72500	-2.00000e+00	
			         2.72667	-2.00000e+00	
			         2.72833	-2.00000e+00	
			         2.73000	-2.00000e+00	
			         2.73167	-3.00000e+00	
			         2.73333	-3.00000e+00	
			         2.73500	-3.00000e+00	
			         2.73667	-4.00000e+00	
			         2.73833	-4.00000e+00	
			         2.74000	-4.00000e+00	
			         2.74167	-4.00000e+00	
			         2.74333	-5.00000e+00	
			         2.74500	-5.00000e+00	
			         2.74667	-5.00000e+00	
			         2.74833	-5.00000e+00	
			         2.75000	-4.00000e+00	
			         2.75167	-4.00000e+00	
			         2.75333	-4.00000e+00	
			         2.75500	-4.00000e+00	
			         2.75667	-4.00000e+00	
			         2.75833	-3.00000e+00	
			         2.76000	-3.00000e+00	
			         2.76167	-3.00000e+00	
			         2.76333	-3.00000e+00	
			         2.76500	-3.00000e+00	
			         2.76667	-2.00000e+00	
			         2.76833	-2.00000e+00	
			         2.77000	-1.00000e+00	
			         2.77167	-1.00000e+00	
			         2.77333	0.00000e+00	
			         2.77500	0.00000e+00	
			         2.77667	1.00000e+00	
			         2.77833	1.00000e+00	
			         2.78000	1.00000e+00	
			         2.78167	1.00000e+00	
			         2.78333	1.00000e+00	
			         2.78500	1.00000e+00	
			         2.78667	1.00000e+00	
			         2.78833	1.00000e+00	
			         2.79000	0.00000e+00	
			         2.79167	0.00000e+00	
			         2.79333	-1.00000e+00	
			         2.79500	-2.00000e+00	
			         2.79667	-2.00000e+00	
			         2.79833	-3.00000e+00	
			         2.80000	-3.00000e+00	
			         2.80167	-3.00000e+00	
			         2.80333	-4.00000e+00	
			         2.80500	-4.00000e+00	
			         2.80667	-4.00000e+00	
			         2.80833	-4.00000e+00	
			         2.81000	-5.00000e+00	
			         2.81167	-5.00000e+00	
			         2.81333	-5.00000e+00	
			         2.81500	-5.00000e+00	
			         2.81667	-5.00000e+00	
			         2.81833	-5.00000e+00	
			         2.82000	-5.00000e+00	
			         2.82167	-5.00000e+00	
			         2.82333	-5.00000e+00	
			         2.82500	-4.00000e+00	
			         2.82667	-4.00000e+00	
			         2.82833	-3.00000e+00	
			         2.83000	-3.00000e+00	
			         2.83167	-2.00000e+00	
			         2.83333	-2.00000e+00	
			         2.83500	-1.00000e+00	
			         2.83667	-1.00000e+00	
			         2.83833	0.00000e+00	
			         2.84000	0.00000e+00	
			         2.84167	1.00000e+00	
			         2.84333	1.00000e+00	
			         2.84500	1.00000e+00	
			         2.84667	1.00000e+00	
			         2.84833	1.00000e+00	
			         2.85000	0.00000e+00	
			         2.85167	0.00000e+00	
			         2.85333	0.00000e+00	
			         2.85500	0.00000e+00	
			         2.85667	-1.00000e+00	
			         2.85833	-1.00000e+00	
			         2.86000	-1.00000e+00	
			         2.86167	-2.00000e+00	
			         2.86333	-2.00000e+00	
			         2.86500	-2.00000e+00	
			         2.86667	-2.00000e+00	
			         2.86833	-2.00000e+00	
			         2.87000	-2.00000e+00	
			         2.87167	-2.00000e+00	
			         2.87333	-2.00000e+00	
			         2.87500	-2.00000e+00	
			         2.87667	-3.00000e+00	
			         2.87833	-3.00000e+00	
			         2.88000	-3.00000e+00	
			         2.88167	-3.00000e+00	
			         2.88333	-3.00000e+00	
			         2.88500	-4.00000e+00	
			         2.88667	-4.00000e+00	
			         2.88833	-4.00000e+00	
			         2.89000	-4.00000e+00	
			         2.89167	-4.00000e+00	
			         2.89333	-3.00000e+00	
			         2.89500	-3.00000e+00	
			         2.89667	-2.00000e+00	
			         2.89833	-2.00000e+00	
			         2.90000	-1.00000e+00	
			         2.90167	0.00000e+00	
			         2.90333	1.00000e+00	
			         2.90500	2.00000e+00	
			         2.90667	3.00000e+00	
			         2.90833	4.00000e+00	
			         2.91000	5.00000e+00	
			         2.91167	6.00000e+00	
			         2.91333	6.00000e+00	
			         2.91500	6.00000e+00	
			         2.91667	6.00000e+00	
			         2.91833	6.00000e+00	
			         2.92000	6.00000e+00	
			         2.92167	6.00000e+00	
			         2.92333	5.00000e+00	
			         2.92500	5.00000e+00	
			         2.92667	4.00000e+00	
			         2.92833	4.00000e+00	
			         2.93000	3.00000e+00	
			         2.93167	3.00000e+00	
			         2.93333	2.00000e+00	
			         2.93500	2.00000e+00	
			         2.93667	2.00000e+00	
			         2.93833	2.00000e+00	
			         2.94000	2.00000e+00	
			         2.94167	2.00000e+00	
			         2.94333	2.00000e+00	
			         2.94500	1.00000e+00	
			         2.94667	1.00000e+00	
			         2.94833	1.00000e+00	
			         2.95000	1.00000e+00	
			         2.95167	1.00000e+00	
			         2.95333	1.00000e+00	
			         2.95500	1.00000e+00	
			         2.95667	1.00000e+00	
			         2.95833	1.00000e+00	
			         2.96000	2.00000e+00	
			         2.96167	2.00000e+00	
			         2.96333	2.00000e+00	
			         2.96500	2.00000e+00	
			         2.96667	2.00000e+00	
			         2.96833	3.00000e+00	
			         2.97000	3.00000e+00	
			         2.97167	4.00000e+00	
			         2.97333	4.00000e+00	
			         2.97500	5.00000e+00	
			         2.97667	5.00000e+00	
			         2.97833	5.00000e+00	
			         2.98000	6.00000e+00	
			         2.98167	7.00000e+00	
			         2.98333	8.00000e+00	
			         2.98500	9.00000e+00	
			         2.98667	1.00000e+01	
			         2.98833	1.10000e+01	
			         2.99000	1.20000e+01	
			         2.99167	1.40000e+01	
			         2.99333	1.60000e+01	
			         2.99500	1.70000e+01	
			         2.99667	1.80000e+01	
			         2.99833	2.00000e+01	
			         3.00000	2.10000e+01	
			         3.00167	2.20000e+01	
			         3.00333	2.30000e+01	
			         3.00500	2.30000e+01	
			         3.00667	2.40000e+01	
			         3.00833	2.40000e+01	
			         3.01000	2.30000e+01	
			         3.01167	2.30000e+01	
			         3.01333	2.20000e+01	
			         3.01500	2.20000e+01	
			         3.01667	2.10000e+01	
			         3.01833	1.90000e+01	
			         3.02000	1.80000e+01	
			         3.02167	1.70000e+01	
			         3.02333	1.50000e+01	
			         3.02500	1.40000e+01	
			         3.02667	1.20000e+01	
			         3.02833	1.00000e+01	
			         3.03000	8.00000e+00	
			         3.03167	6.00000e+00	
			         3.03333	3.00000e+00	
			         3.03500	1.00000e+00	
			         3.03667	-1.00000e+00	
			         3.03833	-2.00000e+00	
			         3.04000	-4.00000e+00	
			         3.04167	-6.00000e+00	
			         3.04333	-7.00000e+00	
			         3.04500	-8.00000e+00	
			         3.04667	-9.00000e+00	
			         3.04833	-1.00000e+01	
			         3.05000	-1.10000e+01	
			         3.05167	-1.20000e+01	
			         3.05333	-1.30000e+01	
			         3.05500	-1.40000e+01	
			         3.05667	-1.50000e+01	
			         3.05833	-1.50000e+01	
			         3.06000	-1.60000e+01	
			         3.06167	-1.60000e+01	
			         3.06333	-1.60000e+01	
			         3.06500	-1.60000e+01	
			         3.06667	-1.60000e+01	
			         3.06833	-1.60000e+01	
			         3.07000	-1.50000e+01	
			         3.07167	-1.40000e+01	
			         3.07333	-1.30000e+01	
			         3.07500	-1.20000e+01	
			         3.07667	-1.00000e+01	
			         3.07833	-9.00000e+00	
			         3.08000	-8.00000e+00	
			         3.08167	-6.00000e+00	
			         3.08333	-5.00000e+00	
			         3.08500	-4.00000e+00	
			         3.08667	-4.00000e+00	
			         3.08833	-3.00000e+00	
			         3.09000	-3.00000e+00	
			         3.09167	-3.00000e+00	
			         3.09333	-3.00000e+00	
			         3.09500	-3.00000e+00	
			         3.09667	-4.00000e+00	
			         3.09833	-5.00000e+00	
			         3.10000	-5.00000e+00	
			         3.10167	-6.00000e+00	
			         3.10333	-7.00000e+00	
			         3.10500	-8.00000e+00	
			         3.10667	-8.00000e+00	
			         3.10833	-9.00000e+00	
			         3.11000	-9.00000e+00	
			         3.11167	-1.00000e+01	
			         3.11333	-1.00000e+01	
			         3.11500	-1.00000e+01	
			         3.11667	-1.10000e+01	
			         3.11833	-1.10000e+01	
			         3.12000	-1.10000e+01	
			         3.12167	-1.10000e+01	
			         3.12333	-1.10000e+01	
			         3.12500	-1.10000e+01	
			         3.12667	-1.00000e+01	
			         3.12833	-9.00000e+00	
			         3.13000	-7.00000e+00	
			         3.13167	-5.00000e+00	
			         3.13333	-2.00000e+00	
			         3.13500	1.00000e+00	
			         3.13667	4.00000e+00	
			         3.13833	9.00000e+00	
			         3.14000	1.30000e+01	
			         3.14167	1.80000e+01	
			         3.14333	2.30000e+01	
			         3.14500	2.80000e+01	
			         3.14667	3.30000e+01	
			         3.14833	3.80000e+01	
			         3.15000	4.20000e+01	
			         3.15167	4.60000e+01	
			         3.15333	4.90000e+01	
			         3.15500	5.10000e+01	
			         3.15667	5.20000e+01	
			         3.15833	5.20000e+01	
			         3.16000	5.20000e+01	
			         3.16167	5.00000e+01	
			         3.16333	4.70000e+01	
			         3.16500	4.40000e+01	
			         3.16667	3.90000e+01	
			         3.16833	3.40000e+01	
			         3.17000	2.90000e+01	
			         3.17167	2.20000e+01	
			         3.17333	1.60000e+01	
			         3.17500	1.00000e+01	
			         3.17667	4.00000e+00	
			         3.17833	-2.00000e+00	
			         3.18000	-8.00000e+00	
			         3.18167	-1.30000e+01	
			         3.18333	-1.70000e+01	
			         3.18500	-2.00000e+01	
			         3.18667	-2.30000e+01	
			         3.18833	-2.50000e+01	
			         3.19000	-2.60000e+01	
			         3.19167	-2.70000e+01	
			         3.19333	-2.70000e+01	
			         3.19500	-2.70000e+01	
			         3.19667	-2.70000e+01	
			         3.19833	-2.60000e+01	
			         3.20000	-2.50000e+01	
			         3.20167	-2.50000e+01	
			         3.20333	-2.40000e+01	
			         3.20500	-2.40000e+01	
			         3.20667	-2.40000e+01	
			         3.20833	-2.40000e+01	
			         3.21000	-2.40000e+01	
			         3.21167	-2.40000e+01	
			         3.21333	-2.40000e+01	
			         3.21500	-2.40000e+01	
			         3.21667	-2.40000e+01	
			         3.21833	-2.50000e+01	
			         3.22000	-2.40000e+01	
			         3.22167	-2.40000e+01	
			         3.22333	-2.40000e+01	
			         3.22500	-2.40000e+01	
			         3.22667	-2.30000e+01	
