Velocity (TVI), in cm/s

Time (s) :	Trace 1 : 		Ecg : 		
0.00865   	2.26200e+00		         0.00000	1.66000e+02	
0.01779   	2.70181e+00		         0.00167	1.78000e+02	
0.02692   	2.91539e+00		         0.00333	1.89000e+02	
0.03606   	1.65740e+00		         0.00500	1.97000e+02	
0.04568   	8.45313e-01		         0.00667	2.01000e+02	
0.05461   	4.41451e-01		         0.00833	2.02000e+02	
0.06374   	8.78219e-01		         0.01000	1.99000e+02	
0.07288   	6.77669e-01		         0.01167	1.91000e+02	
0.08232   	7.16077e-01		         0.01333	1.78000e+02	
0.09143   	1.35637e+00		         0.01500	1.60000e+02	
0.10057   	2.19937e+00		         0.01667	1.36000e+02	
0.10970   	2.91663e+00		         0.01833	1.09000e+02	
0.11914   	3.39226e+00		         0.02000	7.70000e+01	
0.12825   	3.53812e+00		         0.02167	4.40000e+01	
0.13739   	3.53553e+00		         0.02333	8.00000e+00	
0.14653   	3.44680e+00		         0.02500	-2.70000e+01	
0.15595   	3.46497e+00		         0.02667	-6.20000e+01	
0.16507   	3.63985e+00		         0.02833	-9.50000e+01	
0.17421   	3.80245e+00		         0.03000	-1.24000e+02	
0.18335   	3.91589e+00		         0.03167	-1.49000e+02	
0.19276   	3.95603e+00		         0.03333	-1.70000e+02	
0.20189   	3.92918e+00		         0.03500	-1.84000e+02	
0.21103   	3.92072e+00		         0.03667	-1.93000e+02	
0.22017   	3.85116e+00		         0.03833	-1.96000e+02	
0.22960   	3.80263e+00		         0.04000	-1.94000e+02	
0.23872   	3.72560e+00		         0.04167	-1.87000e+02	
0.24785   	3.62543e+00		         0.04333	-1.77000e+02	
0.25699   	3.51862e+00		         0.04500	-1.64000e+02	
0.26641   	3.38368e+00		         0.04667	-1.49000e+02	
0.27554   	3.27467e+00		         0.04833	-1.33000e+02	
0.28468   	3.17669e+00		         0.05000	-1.15000e+02	
0.29381   	3.09016e+00		         0.05167	-9.80000e+01	
0.30325   	2.98190e+00		         0.05333	-8.10000e+01	
0.31236   	2.87173e+00		         0.05500	-6.40000e+01	
0.32150   	2.78459e+00		         0.05667	-5.00000e+01	
0.33064   	2.62951e+00		         0.05833	-3.70000e+01	
0.34006   	2.46608e+00		         0.06000	-2.60000e+01	
0.34918   	2.28480e+00		         0.06167	-1.70000e+01	
0.35832   	2.12016e+00		         0.06333	-1.10000e+01	
0.36746   	1.87092e+00		         0.06500	-6.00000e+00	
0.37689   	1.57703e+00		         0.06667	-2.00000e+00	
0.38601   	1.23508e+00		         0.06833	0.00000e+00	
0.39514   	7.06519e-01		         0.07000	1.00000e+00	
0.40428   	-1.34447e-02		         0.07167	2.00000e+00	
0.41370   	-7.94813e-01		         0.07333	2.00000e+00	
0.42283   	-1.33036e+00		         0.07500	2.00000e+00	
0.43196   	-1.29514e+00		         0.07667	3.00000e+00	
0.44110   	-8.33409e-01		         0.07833	3.00000e+00	
0.45054   	-1.88533e-01		         0.08000	4.00000e+00	
0.45965   	2.25630e-01		         0.08167	5.00000e+00	
0.46879   	4.57789e-01		         0.08333	7.00000e+00	
0.47792   	5.12193e-01		         0.08500	9.00000e+00	
0.48734   	5.90057e-01		         0.08667	1.10000e+01	
0.49647   	5.16905e-01		         0.08833	1.30000e+01	
0.50561   	4.11089e-01		         0.09000	1.50000e+01	
0.51475   	1.40692e-01		         0.09167	1.70000e+01	
0.52417   	-1.16277e-01		         0.09333	1.80000e+01	
0.53329   	-1.07826e+00		         0.09500	1.90000e+01	
0.54243   	-2.43119e+00		         0.09667	2.00000e+01	
0.55157   	-3.94148e+00		         0.09833	2.00000e+01	
0.56099   	-4.67824e+00		         0.10000	1.90000e+01	
0.57012   	-4.81443e+00		         0.10167	1.80000e+01	
0.57925   	-4.50613e+00		         0.10333	1.70000e+01	
0.58839   	-4.01472e+00		         0.10500	1.50000e+01	
0.59781   	-3.38463e+00		         0.10667	1.30000e+01	
0.60694   	-2.78685e+00		         0.10833	1.10000e+01	
0.61607   	-2.20854e+00		         0.11000	9.00000e+00	
0.62521   	-1.89664e+00		         0.11167	7.00000e+00	
0.63465   	-1.76566e+00		         0.11333	5.00000e+00	
0.64376   	-1.92783e+00		         0.11500	4.00000e+00	
0.65290   	-2.25589e+00		         0.11667	4.00000e+00	
0.66204   	-2.88652e+00		         0.11833	4.00000e+00	
0.67147   	-3.66859e+00		         0.12000	4.00000e+00	
0.68059   	-4.82394e+00		         0.12167	5.00000e+00	
0.68972   	-6.02532e+00		         0.12333	6.00000e+00	
0.69886   	-7.27799e+00		         0.12500	7.00000e+00	
0.70827   	-7.96186e+00		         0.12667	8.00000e+00	
0.71740   	-8.23936e+00		         0.12833	1.00000e+01	
0.72654   	-7.95805e+00		         0.13000	1.10000e+01	
0.73568   	-7.36511e+00		         0.13167	1.20000e+01	
0.74511   	-6.36906e+00		         0.13333	1.40000e+01	
0.75423   	-5.10305e+00		         0.13500	1.50000e+01	
0.76337   	-3.83986e+00		         0.13667	1.50000e+01	
0.77250   	-2.72634e+00		         0.13833	1.60000e+01	
0.78192   	-2.07029e+00		         0.14000	1.70000e+01	
0.79105   	-1.71450e+00		         0.14167	1.70000e+01	
0.80019   	-1.35927e+00		         0.14333	1.80000e+01	
0.80945   	-7.02941e-01		         0.14500	1.80000e+01	
0.81875   	5.58416e-01		         0.14667	1.80000e+01	
0.82787   	1.86727e+00		         0.14833	1.90000e+01	
0.83701   	2.95249e+00		         0.15000	1.90000e+01	
0.84615   	2.62389e+00		         0.15167	1.90000e+01	
0.85558   	1.32588e+00		         0.15333	1.90000e+01	
0.86469   	7.58709e-01		         0.15500	1.90000e+01	
0.87383   	6.55848e-01		         0.15667	1.80000e+01	
0.88297   	9.14770e-01		         0.15833	1.70000e+01	
0.89257   	4.97526e-01		         0.16000	1.70000e+01	
0.90151   	7.50637e-01		         0.16167	1.60000e+01	
0.91065   	1.64737e+00		         0.16333	1.50000e+01	
0.91979   	2.55603e+00		         0.16500	1.40000e+01	
0.92921   	3.20773e+00		         0.16667	1.30000e+01	
0.93834   	3.52928e+00		         0.16833	1.20000e+01	
0.94748   	3.62279e+00		         0.17000	1.20000e+01	
0.95661   	3.58879e+00		         0.17167	1.10000e+01	
0.96605   	3.57613e+00		         0.17333	1.00000e+01	
0.97516   	3.67384e+00		         0.17500	9.00000e+00	
0.98430   	3.80556e+00		         0.17667	1.00000e+01	
0.99344   	3.85625e+00		         0.17833	1.00000e+01	
1.00287   	3.87619e+00		         0.18000	1.10000e+01	
1.01198   	3.86322e+00		         0.18167	1.30000e+01	
1.02112   	3.86259e+00		         0.18333	1.40000e+01	
1.03026   	3.80944e+00		         0.18500	1.60000e+01	
1.03968   	3.75522e+00		         0.18667	1.80000e+01	
1.04880   	3.67425e+00		         0.18833	2.00000e+01	
1.05794   	3.61762e+00		         0.19000	2.20000e+01	
1.06708   	3.54285e+00		         0.19167	2.40000e+01	
1.07650   	3.49073e+00		         0.19333	2.60000e+01	
1.08562   	3.43255e+00		         0.19500	2.80000e+01	
1.09476   	3.37915e+00		         0.19667	3.00000e+01	
1.10390   	3.26201e+00		         0.19833	3.10000e+01	
1.11334   	3.17031e+00		         0.20000	3.20000e+01	
1.12245   	3.05814e+00		         0.20167	3.20000e+01	
1.13158   	2.92759e+00		         0.20333	3.30000e+01	
1.14072   	2.75556e+00		         0.20500	3.30000e+01	
1.15016   	2.57922e+00		         0.20667	3.30000e+01	
1.15927   	2.47329e+00		         0.20833	3.30000e+01	
1.16840   	2.34760e+00		         0.21000	3.30000e+01	
1.17755   	2.16898e+00		         0.21167	3.30000e+01	
1.18697   	1.93166e+00		         0.21333	3.40000e+01	
1.19609   	1.60407e+00		         0.21500	3.40000e+01	
1.20523   	1.25119e+00		         0.21667	3.40000e+01	
1.21437   	8.06535e-01		         0.21833	3.40000e+01	
1.22379   	2.27306e-01		         0.22000	3.50000e+01	
1.23291   	-4.01837e-01		         0.22167	3.60000e+01	
1.24205   	-7.85342e-01		         0.22333	3.70000e+01	
1.25119   	-5.07276e-01		         0.22500	3.80000e+01	
1.26061   	2.62640e-02		         0.22667	3.90000e+01	
1.26974   	5.59336e-01		         0.22833	3.90000e+01	
1.27887   	8.37354e-01		         0.23000	4.00000e+01	
1.28801   	1.04958e+00		         0.23167	4.10000e+01	
1.29744   	1.20425e+00		         0.23333	4.10000e+01	
1.30656   	1.18226e+00		         0.23500	4.20000e+01	
1.31570   	1.16817e+00		         0.23667	4.20000e+01	
1.32483   	1.08006e+00		         0.23833	4.10000e+01	
1.33425   	6.46440e-01		         0.24000	4.00000e+01	
1.34338   	-6.42969e-02		         0.24167	3.90000e+01	
1.35252   	-1.36240e+00		         0.24333	3.80000e+01	
1.36166   	-2.76151e+00		         0.24500	3.70000e+01	
1.37107   	-4.07366e+00		         0.24667	3.60000e+01	
1.38020   	-4.77292e+00		         0.24833	3.50000e+01	
1.38934   	-4.70909e+00		         0.25000	3.50000e+01	
1.39848   	-4.25173e+00		         0.25167	3.50000e+01	
1.40791   	-3.50052e+00		         0.25333	3.60000e+01	
1.41702   	-2.80746e+00		         0.25500	3.60000e+01	
1.42616   	-2.10717e+00		         0.25667	3.70000e+01	
1.43530   	-1.59876e+00		         0.25833	3.90000e+01	
1.44474   	-1.27078e+00		         0.26000	4.00000e+01	
1.45384   	-1.22144e+00		         0.26167	4.10000e+01	
1.46299   	-1.34854e+00		         0.26333	4.10000e+01	
1.47212   	-1.81501e+00		         0.26500	4.10000e+01	
1.48154   	-2.48304e+00		         0.26667	4.00000e+01	
1.49067   	-3.57602e+00		         0.26833	3.90000e+01	
1.49981   	-4.81470e+00		         0.27000	3.60000e+01	
1.50894   	-6.25677e+00		         0.27167	3.20000e+01	
1.51836   	-7.37394e+00		         0.27333	2.80000e+01	
1.52749   	-8.18892e+00		         0.27500	2.30000e+01	
1.53663   	-8.20320e+00		         0.27667	1.80000e+01	
1.54577   	-7.86755e+00		         0.27833	1.30000e+01	
1.55518   	-6.94850e+00		         0.28000	9.00000e+00	
1.56431   	-5.85112e+00		         0.28167	4.00000e+00	
1.57345   	-4.40181e+00		         0.28333	0.00000e+00	
1.58259   	-3.03428e+00		         0.28500	-3.00000e+00	
1.59202   	-2.13572e+00		         0.28667	-6.00000e+00	
1.60114   	-1.58798e+00		         0.28833	-8.00000e+00	
1.61028   	-1.27916e+00		         0.29000	-1.00000e+01	
1.61942   	-7.61140e-01		         0.29167	-1.10000e+01	
1.62884   	1.28260e-01		         0.29333	-1.20000e+01	
1.63796   	1.30657e+00		         0.29500	-1.20000e+01	
1.64710   	2.34319e+00		         0.29667	-1.30000e+01	
1.65623   	2.48263e+00		         0.29833	-1.40000e+01	
1.66566   	1.15704e+00		         0.30000	-1.60000e+01	
1.67478   	4.03602e-01		         0.30167	-1.70000e+01	
1.68392   	-1.85469e-02		         0.30333	-1.90000e+01	
1.69306   	2.81683e-01		         0.30500	-2.20000e+01	
1.70248   	1.82061e-02		         0.30667	-2.40000e+01	
1.71160   	2.17242e-01		         0.30833	-2.70000e+01	
1.72074   	1.09809e+00		         0.31000	-3.00000e+01	
1.72988   	2.04737e+00		         0.31167	-3.30000e+01	
1.73929   	2.66872e+00		         0.31333	-3.60000e+01	
1.74842   	3.01674e+00		         0.31500	-3.90000e+01	
1.75756   	3.21656e+00		         0.31667	-4.10000e+01	
1.76670   	3.32952e+00		         0.31833	-4.40000e+01	
1.77612   	3.41958e+00		         0.32000	-4.60000e+01	
1.78525   	3.48887e+00		         0.32167	-4.80000e+01	
1.79438   	3.58355e+00		         0.32333	-4.90000e+01	
1.80352   	3.71725e+00		         0.32500	-5.10000e+01	
1.81295   	3.82008e+00		         0.32667	-5.10000e+01	
1.82245   	3.86101e+00		         0.32833	-5.20000e+01	
1.83121   	3.88568e+00		         0.33000	-5.20000e+01	
1.84034   	3.81825e+00		         0.33167	-5.20000e+01	
1.84978   	3.71476e+00		         0.33333	-5.20000e+01	
1.85889   	3.55904e+00		         0.33500	-5.20000e+01	
1.86803   	3.47646e+00		         0.33667	-5.10000e+01	
1.87717   	3.44238e+00		         0.33833	-5.00000e+01	
1.88659   	3.35243e+00		         0.34000	-4.90000e+01	
1.89571   	3.26218e+00		         0.34167	-4.70000e+01	
1.90485   	3.19563e+00		         0.34333	-4.60000e+01	
1.91399   	3.15437e+00		         0.34500	-4.40000e+01	
1.92343   	3.07947e+00		         0.34667	-4.30000e+01	
1.93254   	2.94867e+00		         0.34833	-4.20000e+01	
1.94167   	2.80022e+00		         0.35000	-4.10000e+01	
1.95081   	2.65989e+00		         0.35167	-4.10000e+01	
1.96023   	2.51527e+00		         0.35333	-4.00000e+01	
1.96936   	2.33917e+00		         0.35500	-4.00000e+01	
1.97850   	2.14508e+00		         0.35667	-4.00000e+01	
1.98763   	1.96498e+00		         0.35833	-3.90000e+01	
1.99707   	1.76625e+00		         0.36000	-3.80000e+01	
2.00618   	1.55206e+00		         0.36167	-3.80000e+01	
2.01532   	1.21061e+00		         0.36333	-3.70000e+01	
2.02446   	7.96735e-01		         0.36500	-3.60000e+01	
2.03388   	2.86933e-01		         0.36667	-3.50000e+01	
2.04300   	-2.27635e-01		         0.36833	-3.40000e+01	
2.05214   	-6.20841e-01		         0.37000	-3.30000e+01	
2.06128   	-5.90760e-01		         0.37167	-3.20000e+01	
2.07070   	-1.98167e-01		         0.37333	-3.10000e+01	
2.07982   	3.77864e-01		         0.37500	-3.00000e+01	
2.08896   	7.90532e-01		         0.37667	-2.90000e+01	
2.09810   	1.05776e+00		         0.37833	-2.80000e+01	
2.10752   	1.19432e+00		         0.38000	-2.70000e+01	
2.11665   	1.20084e+00		         0.38167	-2.60000e+01	
2.12579   	1.12583e+00		         0.38333	-2.50000e+01	
2.13492   	8.93624e-01		         0.38500	-2.50000e+01	
2.14434   	4.88334e-01		         0.38667	-2.40000e+01	
2.15347   	-3.85421e-01		         0.38833	-2.30000e+01	
2.16261   	-1.50111e+00		         0.39000	-2.30000e+01	
2.17174   	-3.00716e+00		         0.39167	-2.20000e+01	
2.18117   	-4.14515e+00		         0.39333	-2.20000e+01	
2.19029   	-4.89658e+00		         0.39500	-2.20000e+01	
2.19943   	-4.89596e+00		         0.39667	-2.20000e+01	
2.20857   	-4.52846e+00		         0.39833	-2.10000e+01	
2.21799   	-3.90202e+00		         0.40000	-2.10000e+01	
2.22711   	-3.15463e+00		         0.40167	-2.10000e+01	
2.23625   	-2.50650e+00		         0.40333	-2.10000e+01	
2.24539   	-2.00148e+00		         0.40500	-2.10000e+01	
2.25481   	-1.67106e+00		         0.40667	-2.00000e+01	
2.26393   	-1.51410e+00		         0.40833	-2.00000e+01	
2.27307   	-1.63106e+00		         0.41000	-2.00000e+01	
2.28221   	-2.10052e+00		         0.41167	-2.00000e+01	
2.29164   	-2.63903e+00		         0.41333	-2.00000e+01	
2.30075   	-3.49003e+00		         0.41500	-2.00000e+01	
2.30989   	-4.53062e+00		         0.41667	-2.00000e+01	
2.31903   	-5.92985e+00		         0.41833	-2.00000e+01	
2.32845   	-7.34221e+00		         0.42000	-2.10000e+01	
2.33758   	-8.30376e+00		         0.42167	-2.10000e+01	
2.34672   	-8.72532e+00		         0.42333	-2.10000e+01	
2.35585   	-8.35911e+00		         0.42500	-2.10000e+01	
2.36529   	-7.56288e+00		         0.42667	-2.10000e+01	
2.37440   	-6.43144e+00		         0.42833	-2.10000e+01	
2.38354   	-5.10857e+00		         0.43000	-2.10000e+01	
2.39268   	-3.74520e+00		         0.43167	-2.10000e+01	
2.40210   	-2.64075e+00		         0.43333	-2.10000e+01	
2.41122   	-1.87477e+00		         0.43500	-2.10000e+01	
2.42036   	-1.40231e+00		         0.43667	-2.10000e+01	
2.42950   	-8.63156e-01		         0.43833	-2.20000e+01	
2.43891   	-3.53958e-02		         0.44000	-2.20000e+01	
2.44805   	9.37785e-01		         0.44167	-2.30000e+01	
2.45718   	2.02261e+00		         0.44333	-2.40000e+01	
2.46632   	2.62862e+00		         0.44500	-2.40000e+01	
2.47575   	2.92678e+00		         0.44667	-2.50000e+01	
			         0.44833	-2.50000e+01	
			         0.45000	-2.50000e+01	
			         0.45167	-2.40000e+01	
			         0.45333	-2.30000e+01	
			         0.45500	-2.10000e+01	
			         0.45667	-1.90000e+01	
			         0.45833	-1.70000e+01	
			         0.46000	-1.50000e+01	
			         0.46167	-1.30000e+01	
			         0.46333	-1.10000e+01	
			         0.46500	-9.00000e+00	
			         0.46667	-7.00000e+00	
			         0.46833	-6.00000e+00	
			         0.47000	-5.00000e+00	
			         0.47167	-4.00000e+00	
			         0.47333	-4.00000e+00	
			         0.47500	-3.00000e+00	
			         0.47667	-3.00000e+00	
			         0.47833	-2.00000e+00	
			         0.48000	-2.00000e+00	
			         0.48167	-2.00000e+00	
			         0.48333	-2.00000e+00	
			         0.48500	-2.00000e+00	
			         0.48667	-3.00000e+00	
			         0.48833	-3.00000e+00	
			         0.49000	-4.00000e+00	
			         0.49167	-5.00000e+00	
			         0.49333	-6.00000e+00	
			         0.49500	-7.00000e+00	
			         0.49667	-7.00000e+00	
			         0.49833	-8.00000e+00	
			         0.50000	-9.00000e+00	
			         0.50167	-9.00000e+00	
			         0.50333	-9.00000e+00	
			         0.50500	-9.00000e+00	
			         0.50667	-9.00000e+00	
			         0.50833	-8.00000e+00	
			         0.51000	-8.00000e+00	
			         0.51167	-7.00000e+00	
			         0.51333	-7.00000e+00	
			         0.51500	-6.00000e+00	
			         0.51667	-5.00000e+00	
			         0.51833	-5.00000e+00	
			         0.52000	-4.00000e+00	
			         0.52167	-4.00000e+00	
			         0.52333	-3.00000e+00	
			         0.52500	-3.00000e+00	
			         0.52667	-2.00000e+00	
			         0.52833	-2.00000e+00	
			         0.53000	-2.00000e+00	
			         0.53167	-3.00000e+00	
			         0.53333	-4.00000e+00	
			         0.53500	-4.00000e+00	
			         0.53667	-5.00000e+00	
			         0.53833	-6.00000e+00	
			         0.54000	-6.00000e+00	
			         0.54167	-6.00000e+00	
			         0.54333	-6.00000e+00	
			         0.54500	-5.00000e+00	
			         0.54667	-4.00000e+00	
			         0.54833	-2.00000e+00	
			         0.55000	0.00000e+00	
			         0.55167	3.00000e+00	
			         0.55333	5.00000e+00	
			         0.55500	8.00000e+00	
			         0.55667	1.00000e+01	
			         0.55833	1.30000e+01	
			         0.56000	1.40000e+01	
			         0.56167	1.50000e+01	
			         0.56333	1.60000e+01	
			         0.56500	1.70000e+01	
			         0.56667	1.60000e+01	
			         0.56833	1.60000e+01	
			         0.57000	1.50000e+01	
			         0.57167	1.40000e+01	
			         0.57333	1.30000e+01	
			         0.57500	1.20000e+01	
			         0.57667	1.10000e+01	
			         0.57833	1.10000e+01	
			         0.58000	1.00000e+01	
			         0.58167	1.00000e+01	
			         0.58333	9.00000e+00	
			         0.58500	9.00000e+00	
			         0.58667	8.00000e+00	
			         0.58833	7.00000e+00	
			         0.59000	7.00000e+00	
			         0.59167	6.00000e+00	
			         0.59333	6.00000e+00	
			         0.59500	7.00000e+00	
			         0.59667	7.00000e+00	
			         0.59833	8.00000e+00	
			         0.60000	9.00000e+00	
			         0.60167	1.00000e+01	
			         0.60333	1.10000e+01	
			         0.60500	1.20000e+01	
			         0.60667	1.40000e+01	
			         0.60833	1.50000e+01	
			         0.61000	1.60000e+01	
			         0.61167	1.70000e+01	
			         0.61333	1.60000e+01	
			         0.61500	1.60000e+01	
			         0.61667	1.40000e+01	
			         0.61833	1.20000e+01	
			         0.62000	1.00000e+01	
			         0.62167	8.00000e+00	
			         0.62333	5.00000e+00	
			         0.62500	3.00000e+00	
			         0.62667	1.00000e+00	
			         0.62833	0.00000e+00	
			         0.63000	-1.00000e+00	
			         0.63167	-1.00000e+00	
			         0.63333	-1.00000e+00	
			         0.63500	-1.00000e+00	
			         0.63667	0.00000e+00	
			         0.63833	2.00000e+00	
			         0.64000	4.00000e+00	
			         0.64167	6.00000e+00	
			         0.64333	8.00000e+00	
			         0.64500	9.00000e+00	
			         0.64667	1.00000e+01	
			         0.64833	1.10000e+01	
			         0.65000	1.20000e+01	
			         0.65167	1.30000e+01	
			         0.65333	1.30000e+01	
			         0.65500	1.30000e+01	
			         0.65667	1.20000e+01	
			         0.65833	1.10000e+01	
			         0.66000	1.00000e+01	
			         0.66167	9.00000e+00	
			         0.66333	7.00000e+00	
			         0.66500	5.00000e+00	
			         0.66667	3.00000e+00	
			         0.66833	0.00000e+00	
			         0.67000	-2.00000e+00	
			         0.67167	-5.00000e+00	
			         0.67333	-8.00000e+00	
			         0.67500	-1.10000e+01	
			         0.67667	-1.40000e+01	
			         0.67833	-1.60000e+01	
			         0.68000	-1.70000e+01	
			         0.68167	-1.90000e+01	
			         0.68333	-1.90000e+01	
			         0.68500	-1.90000e+01	
			         0.68667	-1.80000e+01	
			         0.68833	-1.70000e+01	
			         0.69000	-1.50000e+01	
			         0.69167	-1.30000e+01	
			         0.69333	-1.00000e+01	
			         0.69500	-8.00000e+00	
			         0.69667	-6.00000e+00	
			         0.69833	-4.00000e+00	
			         0.70000	-3.00000e+00	
			         0.70167	-1.00000e+00	
			         0.70333	0.00000e+00	
			         0.70500	1.00000e+00	
			         0.70667	2.00000e+00	
			         0.70833	3.00000e+00	
			         0.71000	3.00000e+00	
			         0.71167	3.00000e+00	
			         0.71333	4.00000e+00	
			         0.71500	4.00000e+00	
			         0.71667	4.00000e+00	
			         0.71833	4.00000e+00	
			         0.72000	3.00000e+00	
			         0.72167	3.00000e+00	
			         0.72333	1.00000e+00	
			         0.72500	0.00000e+00	
			         0.72667	-2.00000e+00	
			         0.72833	-4.00000e+00	
			         0.73000	-6.00000e+00	
			         0.73167	-8.00000e+00	
			         0.73333	-9.00000e+00	
			         0.73500	-1.00000e+01	
			         0.73667	-1.10000e+01	
			         0.73833	-1.10000e+01	
			         0.74000	-1.10000e+01	
			         0.74167	-1.00000e+01	
			         0.74333	-9.00000e+00	
			         0.74500	-7.00000e+00	
			         0.74667	-6.00000e+00	
			         0.74833	-4.00000e+00	
			         0.75000	-2.00000e+00	
			         0.75167	0.00000e+00	
			         0.75333	1.00000e+00	
			         0.75500	1.00000e+00	
			         0.75667	1.00000e+00	
			         0.75833	0.00000e+00	
			         0.76000	-1.00000e+00	
			         0.76167	-3.00000e+00	
			         0.76333	-6.00000e+00	
			         0.76500	-8.00000e+00	
			         0.76667	-9.00000e+00	
			         0.76833	-1.10000e+01	
			         0.77000	-1.20000e+01	
			         0.77167	-1.30000e+01	
			         0.77333	-1.30000e+01	
			         0.77500	-1.30000e+01	
			         0.77667	-1.30000e+01	
			         0.77833	-1.10000e+01	
			         0.78000	-1.00000e+01	
			         0.78167	-8.00000e+00	
			         0.78333	-5.00000e+00	
			         0.78500	-3.00000e+00	
			         0.78667	0.00000e+00	
			         0.78833	3.00000e+00	
			         0.79000	5.00000e+00	
			         0.79167	8.00000e+00	
			         0.79333	1.20000e+01	
			         0.79500	1.60000e+01	
			         0.79667	2.10000e+01	
			         0.79833	2.60000e+01	
			         0.80000	3.30000e+01	
			         0.80167	4.20000e+01	
			         0.80333	5.20000e+01	
			         0.80500	6.30000e+01	
			         0.80667	7.60000e+01	
			         0.80833	9.00000e+01	
			         0.81000	1.05000e+02	
			         0.81167	1.20000e+02	
			         0.81333	1.36000e+02	
			         0.81500	1.51000e+02	
			         0.81667	1.65000e+02	
			         0.81833	1.77000e+02	
			         0.82000	1.88000e+02	
			         0.82167	1.96000e+02	
			         0.82333	2.01000e+02	
			         0.82500	2.02000e+02	
			         0.82667	1.99000e+02	
			         0.82833	1.91000e+02	
			         0.83000	1.78000e+02	
			         0.83167	1.61000e+02	
			         0.83333	1.38000e+02	
			         0.83500	1.12000e+02	
			         0.83667	8.20000e+01	
			         0.83833	5.00000e+01	
			         0.84000	1.60000e+01	
			         0.84167	-1.80000e+01	
			         0.84333	-5.10000e+01	
			         0.84500	-8.30000e+01	
			         0.84667	-1.12000e+02	
			         0.84833	-1.37000e+02	
			         0.85000	-1.57000e+02	
			         0.85167	-1.72000e+02	
			         0.85333	-1.81000e+02	
			         0.85500	-1.85000e+02	
			         0.85667	-1.85000e+02	
			         0.85833	-1.80000e+02	
			         0.86000	-1.71000e+02	
			         0.86167	-1.61000e+02	
			         0.86333	-1.48000e+02	
			         0.86500	-1.35000e+02	
			         0.86667	-1.21000e+02	
			         0.86833	-1.07000e+02	
			         0.87000	-9.30000e+01	
			         0.87167	-8.00000e+01	
			         0.87333	-6.80000e+01	
			         0.87500	-5.70000e+01	
			         0.87667	-4.70000e+01	
			         0.87833	-3.90000e+01	
			         0.88000	-3.10000e+01	
			         0.88167	-2.40000e+01	
			         0.88333	-1.80000e+01	
			         0.88500	-1.20000e+01	
			         0.88667	-7.00000e+00	
			         0.88833	-2.00000e+00	
			         0.89000	3.00000e+00	
			         0.89167	7.00000e+00	
			         0.89333	1.00000e+01	
			         0.89500	1.40000e+01	
			         0.89667	1.70000e+01	
			         0.89833	2.00000e+01	
			         0.90000	2.10000e+01	
			         0.90167	2.20000e+01	
			         0.90333	2.30000e+01	
			         0.90500	2.20000e+01	
			         0.90667	2.10000e+01	
			         0.90833	2.00000e+01	
			         0.91000	1.80000e+01	
			         0.91167	1.60000e+01	
			         0.91333	1.40000e+01	
			         0.91500	1.20000e+01	
			         0.91667	1.00000e+01	
			         0.91833	9.00000e+00	
			         0.92000	8.00000e+00	
			         0.92167	7.00000e+00	
			         0.92333	7.00000e+00	
			         0.92500	7.00000e+00	
			         0.92667	8.00000e+00	
			         0.92833	8.00000e+00	
			         0.93000	9.00000e+00	
			         0.93167	9.00000e+00	
			         0.93333	1.00000e+01	
			         0.93500	1.00000e+01	
			         0.93667	1.00000e+01	
			         0.93833	9.00000e+00	
			         0.94000	9.00000e+00	
			         0.94167	9.00000e+00	
			         0.94333	8.00000e+00	
			         0.94500	8.00000e+00	
			         0.94667	8.00000e+00	
			         0.94833	7.00000e+00	
			         0.95000	7.00000e+00	
			         0.95167	7.00000e+00	
			         0.95333	7.00000e+00	
			         0.95500	7.00000e+00	
			         0.95667	7.00000e+00	
			         0.95833	8.00000e+00	
			         0.96000	9.00000e+00	
			         0.96167	1.00000e+01	
			         0.96333	1.10000e+01	
			         0.96500	1.20000e+01	
			         0.96667	1.30000e+01	
			         0.96833	1.40000e+01	
			         0.97000	1.60000e+01	
			         0.97167	1.70000e+01	
			         0.97333	1.90000e+01	
			         0.97500	2.00000e+01	
			         0.97667	2.10000e+01	
			         0.97833	2.10000e+01	
			         0.98000	2.20000e+01	
			         0.98167	2.20000e+01	
			         0.98333	2.20000e+01	
			         0.98500	2.20000e+01	
			         0.98667	2.20000e+01	
			         0.98833	2.10000e+01	
			         0.99000	2.00000e+01	
			         0.99167	1.90000e+01	
			         0.99333	1.70000e+01	
			         0.99500	1.50000e+01	
			         0.99667	1.30000e+01	
			         0.99833	1.00000e+01	
			         1.00000	8.00000e+00	
			         1.00167	7.00000e+00	
			         1.00333	6.00000e+00	
			         1.00500	5.00000e+00	
			         1.00667	5.00000e+00	
			         1.00833	6.00000e+00	
			         1.01000	7.00000e+00	
			         1.01167	9.00000e+00	
			         1.01333	1.20000e+01	
			         1.01500	1.50000e+01	
			         1.01667	1.90000e+01	
			         1.01833	2.30000e+01	
			         1.02000	2.70000e+01	
			         1.02167	3.10000e+01	
			         1.02333	3.40000e+01	
			         1.02500	3.60000e+01	
			         1.02667	3.80000e+01	
			         1.02833	3.80000e+01	
			         1.03000	3.80000e+01	
			         1.03167	3.80000e+01	
			         1.03333	3.70000e+01	
			         1.03500	3.60000e+01	
			         1.03667	3.60000e+01	
			         1.03833	3.60000e+01	
			         1.04000	3.50000e+01	
			         1.04167	3.50000e+01	
			         1.04333	3.60000e+01	
			         1.04500	3.70000e+01	
			         1.04667	3.80000e+01	
			         1.04833	3.90000e+01	
			         1.05000	4.10000e+01	
			         1.05167	4.20000e+01	
			         1.05333	4.40000e+01	
			         1.05500	4.50000e+01	
			         1.05667	4.60000e+01	
			         1.05833	4.70000e+01	
			         1.06000	4.80000e+01	
			         1.06167	4.80000e+01	
			         1.06333	4.90000e+01	
			         1.06500	4.90000e+01	
			         1.06667	4.90000e+01	
			         1.06833	4.80000e+01	
			         1.07000	4.70000e+01	
			         1.07167	4.60000e+01	
			         1.07333	4.40000e+01	
			         1.07500	4.30000e+01	
			         1.07667	4.10000e+01	
			         1.07833	3.90000e+01	
			         1.08000	3.60000e+01	
			         1.08167	3.40000e+01	
			         1.08333	3.20000e+01	
			         1.08500	3.00000e+01	
			         1.08667	2.80000e+01	
			         1.08833	2.60000e+01	
			         1.09000	2.50000e+01	
			         1.09167	2.30000e+01	
			         1.09333	2.20000e+01	
			         1.09500	2.00000e+01	
			         1.09667	1.80000e+01	
			         1.09833	1.60000e+01	
			         1.10000	1.30000e+01	
			         1.10167	1.00000e+01	
			         1.10333	7.00000e+00	
			         1.10500	3.00000e+00	
			         1.10667	-1.00000e+00	
			         1.10833	-5.00000e+00	
			         1.11000	-9.00000e+00	
			         1.11167	-1.30000e+01	
			         1.11333	-1.70000e+01	
			         1.11500	-2.00000e+01	
			         1.11667	-2.40000e+01	
			         1.11833	-2.70000e+01	
			         1.12000	-3.00000e+01	
			         1.12167	-3.30000e+01	
			         1.12333	-3.60000e+01	
			         1.12500	-3.90000e+01	
			         1.12667	-4.10000e+01	
			         1.12833	-4.40000e+01	
			         1.13000	-4.50000e+01	
			         1.13167	-4.70000e+01	
			         1.13333	-4.80000e+01	
			         1.13500	-4.90000e+01	
			         1.13667	-5.00000e+01	
			         1.13833	-5.00000e+01	
			         1.14000	-5.10000e+01	
			         1.14167	-5.00000e+01	
			         1.14333	-5.00000e+01	
			         1.14500	-4.90000e+01	
			         1.14667	-4.80000e+01	
			         1.14833	-4.70000e+01	
			         1.15000	-4.60000e+01	
			         1.15167	-4.60000e+01	
			         1.15333	-4.50000e+01	
			         1.15500	-4.40000e+01	
			         1.15667	-4.30000e+01	
			         1.15833	-4.30000e+01	
			         1.16000	-4.20000e+01	
			         1.16167	-4.10000e+01	
			         1.16333	-4.00000e+01	
			         1.16500	-4.00000e+01	
			         1.16667	-3.90000e+01	
			         1.16833	-3.90000e+01	
			         1.17000	-3.90000e+01	
			         1.17167	-4.00000e+01	
			         1.17333	-4.10000e+01	
			         1.17500	-4.10000e+01	
			         1.17667	-4.20000e+01	
			         1.17833	-4.20000e+01	
			         1.18000	-4.20000e+01	
			         1.18167	-4.20000e+01	
			         1.18333	-4.20000e+01	
			         1.18500	-4.10000e+01	
			         1.18667	-4.00000e+01	
			         1.18833	-3.90000e+01	
			         1.19000	-3.80000e+01	
			         1.19167	-3.60000e+01	
			         1.19333	-3.40000e+01	
			         1.19500	-3.20000e+01	
			         1.19667	-3.00000e+01	
			         1.19833	-2.90000e+01	
			         1.20000	-2.70000e+01	
			         1.20167	-2.60000e+01	
			         1.20333	-2.50000e+01	
			         1.20500	-2.50000e+01	
			         1.20667	-2.40000e+01	
			         1.20833	-2.40000e+01	
			         1.21000	-2.30000e+01	
			         1.21167	-2.20000e+01	
			         1.21333	-2.20000e+01	
			         1.21500	-2.10000e+01	
			         1.21667	-2.00000e+01	
			         1.21833	-1.90000e+01	
			         1.22000	-1.80000e+01	
			         1.22167	-1.80000e+01	
			         1.22333	-1.80000e+01	
			         1.22500	-1.80000e+01	
			         1.22667	-1.90000e+01	
			         1.22833	-2.10000e+01	
			         1.23000	-2.30000e+01	
			         1.23167	-2.50000e+01	
			         1.23333	-2.70000e+01	
			         1.23500	-3.00000e+01	
			         1.23667	-3.30000e+01	
			         1.23833	-3.50000e+01	
			         1.24000	-3.60000e+01	
			         1.24167	-3.70000e+01	
			         1.24333	-3.70000e+01	
			         1.24500	-3.50000e+01	
			         1.24667	-3.30000e+01	
			         1.24833	-3.00000e+01	
			         1.25000	-2.60000e+01	
			         1.25167	-2.20000e+01	
			         1.25333	-1.80000e+01	
			         1.25500	-1.40000e+01	
			         1.25667	-1.10000e+01	
			         1.25833	-8.00000e+00	
			         1.26000	-6.00000e+00	
			         1.26167	-4.00000e+00	
			         1.26333	-4.00000e+00	
			         1.26500	-3.00000e+00	
			         1.26667	-4.00000e+00	
			         1.26833	-4.00000e+00	
			         1.27000	-5.00000e+00	
			         1.27167	-5.00000e+00	
			         1.27333	-6.00000e+00	
			         1.27500	-6.00000e+00	
			         1.27667	-6.00000e+00	
			         1.27833	-6.00000e+00	
			         1.28000	-5.00000e+00	
			         1.28167	-5.00000e+00	
			         1.28333	-5.00000e+00	
			         1.28500	-5.00000e+00	
			         1.28667	-4.00000e+00	
			         1.28833	-5.00000e+00	
			         1.29000	-5.00000e+00	
			         1.29167	-6.00000e+00	
			         1.29333	-7.00000e+00	
			         1.29500	-8.00000e+00	
			         1.29667	-1.00000e+01	
			         1.29833	-1.20000e+01	
			         1.30000	-1.30000e+01	
			         1.30167	-1.50000e+01	
			         1.30333	-1.60000e+01	
			         1.30500	-1.80000e+01	
			         1.30667	-1.90000e+01	
			         1.30833	-2.00000e+01	
			         1.31000	-2.10000e+01	
			         1.31167	-2.10000e+01	
			         1.31333	-2.10000e+01	
			         1.31500	-2.10000e+01	
			         1.31667	-2.10000e+01	
			         1.31833	-2.10000e+01	
			         1.32000	-2.00000e+01	
			         1.32167	-1.90000e+01	
			         1.32333	-1.80000e+01	
			         1.32500	-1.60000e+01	
			         1.32667	-1.40000e+01	
			         1.32833	-1.20000e+01	
			         1.33000	-1.00000e+01	
			         1.33167	-8.00000e+00	
			         1.33333	-6.00000e+00	
			         1.33500	-3.00000e+00	
			         1.33667	-1.00000e+00	
			         1.33833	1.00000e+00	
			         1.34000	4.00000e+00	
			         1.34167	6.00000e+00	
			         1.34333	9.00000e+00	
			         1.34500	1.00000e+01	
			         1.34667	1.20000e+01	
			         1.34833	1.30000e+01	
			         1.35000	1.30000e+01	
			         1.35167	1.40000e+01	
			         1.35333	1.40000e+01	
			         1.35500	1.40000e+01	
			         1.35667	1.30000e+01	
			         1.35833	1.30000e+01	
			         1.36000	1.20000e+01	
			         1.36167	1.10000e+01	
			         1.36333	1.00000e+01	
			         1.36500	9.00000e+00	
			         1.36667	8.00000e+00	
			         1.36833	7.00000e+00	
			         1.37000	6.00000e+00	
			         1.37167	5.00000e+00	
			         1.37333	4.00000e+00	
			         1.37500	4.00000e+00	
			         1.37667	4.00000e+00	
			         1.37833	4.00000e+00	
			         1.38000	4.00000e+00	
			         1.38167	4.00000e+00	
			         1.38333	4.00000e+00	
			         1.38500	4.00000e+00	
			         1.38667	5.00000e+00	
			         1.38833	5.00000e+00	
			         1.39000	6.00000e+00	
			         1.39167	6.00000e+00	
			         1.39333	6.00000e+00	
			         1.39500	6.00000e+00	
			         1.39667	7.00000e+00	
			         1.39833	7.00000e+00	
			         1.40000	7.00000e+00	
			         1.40167	7.00000e+00	
			         1.40333	7.00000e+00	
			         1.40500	7.00000e+00	
			         1.40667	7.00000e+00	
			         1.40833	6.00000e+00	
			         1.41000	6.00000e+00	
			         1.41167	5.00000e+00	
			         1.41333	5.00000e+00	
			         1.41500	5.00000e+00	
			         1.41667	4.00000e+00	
			         1.41833	4.00000e+00	
			         1.42000	4.00000e+00	
			         1.42167	4.00000e+00	
			         1.42333	5.00000e+00	
			         1.42500	5.00000e+00	
			         1.42667	7.00000e+00	
			         1.42833	8.00000e+00	
			         1.43000	1.00000e+01	
			         1.43167	1.20000e+01	
			         1.43333	1.30000e+01	
			         1.43500	1.50000e+01	
			         1.43667	1.60000e+01	
			         1.43833	1.70000e+01	
			         1.44000	1.80000e+01	
			         1.44167	1.80000e+01	
			         1.44333	1.80000e+01	
			         1.44500	1.80000e+01	
			         1.44667	1.70000e+01	
			         1.44833	1.60000e+01	
			         1.45000	1.50000e+01	
			         1.45167	1.30000e+01	
			         1.45333	1.20000e+01	
			         1.45500	1.00000e+01	
			         1.45667	8.00000e+00	
			         1.45833	6.00000e+00	
			         1.46000	4.00000e+00	
			         1.46167	3.00000e+00	
			         1.46333	1.00000e+00	
			         1.46500	0.00000e+00	
			         1.46667	-1.00000e+00	
			         1.46833	-2.00000e+00	
			         1.47000	-3.00000e+00	
			         1.47167	-4.00000e+00	
			         1.47333	-5.00000e+00	
			         1.47500	-5.00000e+00	
			         1.47667	-6.00000e+00	
			         1.47833	-6.00000e+00	
			         1.48000	-7.00000e+00	
			         1.48167	-7.00000e+00	
			         1.48333	-7.00000e+00	
			         1.48500	-7.00000e+00	
			         1.48667	-7.00000e+00	
			         1.48833	-7.00000e+00	
			         1.49000	-6.00000e+00	
			         1.49167	-6.00000e+00	
			         1.49333	-5.00000e+00	
			         1.49500	-4.00000e+00	
			         1.49667	-3.00000e+00	
			         1.49833	-3.00000e+00	
			         1.50000	-2.00000e+00	
			         1.50167	-2.00000e+00	
			         1.50333	-1.00000e+00	
			         1.50500	-1.00000e+00	
			         1.50667	-1.00000e+00	
			         1.50833	-1.00000e+00	
			         1.51000	-1.00000e+00	
			         1.51167	-2.00000e+00	
			         1.51333	-2.00000e+00	
			         1.51500	-3.00000e+00	
			         1.51667	-4.00000e+00	
			         1.51833	-6.00000e+00	
			         1.52000	-8.00000e+00	
			         1.52167	-9.00000e+00	
			         1.52333	-1.10000e+01	
			         1.52500	-1.20000e+01	
			         1.52667	-1.30000e+01	
			         1.52833	-1.40000e+01	
			         1.53000	-1.40000e+01	
			         1.53167	-1.30000e+01	
			         1.53333	-1.20000e+01	
			         1.53500	-1.10000e+01	
			         1.53667	-8.00000e+00	
			         1.53833	-6.00000e+00	
			         1.54000	-4.00000e+00	
			         1.54167	-1.00000e+00	
			         1.54333	1.00000e+00	
			         1.54500	3.00000e+00	
			         1.54667	4.00000e+00	
			         1.54833	5.00000e+00	
			         1.55000	5.00000e+00	
			         1.55167	4.00000e+00	
			         1.55333	3.00000e+00	
			         1.55500	2.00000e+00	
			         1.55667	0.00000e+00	
			         1.55833	-1.00000e+00	
			         1.56000	-2.00000e+00	
			         1.56167	-3.00000e+00	
			         1.56333	-4.00000e+00	
			         1.56500	-5.00000e+00	
			         1.56667	-5.00000e+00	
			         1.56833	-5.00000e+00	
			         1.57000	-5.00000e+00	
			         1.57167	-5.00000e+00	
			         1.57333	-5.00000e+00	
			         1.57500	-5.00000e+00	
			         1.57667	-4.00000e+00	
			         1.57833	-4.00000e+00	
			         1.58000	-4.00000e+00	
			         1.58167	-4.00000e+00	
			         1.58333	-4.00000e+00	
			         1.58500	-4.00000e+00	
			         1.58667	-4.00000e+00	
			         1.58833	-4.00000e+00	
			         1.59000	-4.00000e+00	
			         1.59167	-4.00000e+00	
			         1.59333	-4.00000e+00	
			         1.59500	-4.00000e+00	
			         1.59667	-4.00000e+00	
			         1.59833	-4.00000e+00	
			         1.60000	-3.00000e+00	
			         1.60167	-3.00000e+00	
			         1.60333	-1.00000e+00	
			         1.60500	2.00000e+00	
			         1.60667	5.00000e+00	
			         1.60833	9.00000e+00	
			         1.61000	1.50000e+01	
			         1.61167	2.20000e+01	
			         1.61333	3.10000e+01	
			         1.61500	4.10000e+01	
			         1.61667	5.30000e+01	
			         1.61833	6.70000e+01	
			         1.62000	8.20000e+01	
			         1.62167	9.80000e+01	
			         1.62333	1.14000e+02	
			         1.62500	1.31000e+02	
			         1.62667	1.47000e+02	
			         1.62833	1.61000e+02	
			         1.63000	1.74000e+02	
			         1.63167	1.86000e+02	
			         1.63333	1.94000e+02	
			         1.63500	2.00000e+02	
			         1.63667	2.02000e+02	
			         1.63833	1.99000e+02	
			         1.64000	1.92000e+02	
			         1.64167	1.80000e+02	
			         1.64333	1.64000e+02	
			         1.64500	1.42000e+02	
			         1.64667	1.17000e+02	
			         1.64833	8.80000e+01	
			         1.65000	5.70000e+01	
			         1.65167	2.40000e+01	
			         1.65333	-1.00000e+01	
			         1.65500	-4.30000e+01	
			         1.65667	-7.40000e+01	
			         1.65833	-1.03000e+02	
			         1.66000	-1.28000e+02	
			         1.66167	-1.48000e+02	
			         1.66333	-1.64000e+02	
			         1.66500	-1.74000e+02	
			         1.66667	-1.79000e+02	
			         1.66833	-1.79000e+02	
			         1.67000	-1.75000e+02	
			         1.67167	-1.67000e+02	
			         1.67333	-1.56000e+02	
			         1.67500	-1.44000e+02	
			         1.67667	-1.31000e+02	
			         1.67833	-1.17000e+02	
			         1.68000	-1.03000e+02	
			         1.68167	-8.90000e+01	
			         1.68333	-7.70000e+01	
			         1.68500	-6.50000e+01	
			         1.68667	-5.40000e+01	
			         1.68833	-4.40000e+01	
			         1.69000	-3.60000e+01	
			         1.69167	-2.80000e+01	
			         1.69333	-2.10000e+01	
			         1.69500	-1.50000e+01	
			         1.69667	-1.00000e+01	
			         1.69833	-5.00000e+00	
			         1.70000	-2.00000e+00	
			         1.70167	1.00000e+00	
			         1.70333	4.00000e+00	
			         1.70500	6.00000e+00	
			         1.70667	8.00000e+00	
			         1.70833	1.00000e+01	
			         1.71000	1.10000e+01	
			         1.71167	1.20000e+01	
			         1.71333	1.20000e+01	
			         1.71500	1.20000e+01	
			         1.71667	1.10000e+01	
			         1.71833	9.00000e+00	
			         1.72000	7.00000e+00	
			         1.72167	4.00000e+00	
			         1.72333	1.00000e+00	
			         1.72500	-2.00000e+00	
			         1.72667	-5.00000e+00	
			         1.72833	-7.00000e+00	
			         1.73000	-9.00000e+00	
			         1.73167	-9.00000e+00	
			         1.73333	-1.00000e+01	
			         1.73500	-9.00000e+00	
			         1.73667	-7.00000e+00	
			         1.73833	-3.00000e+00	
			         1.74000	1.00000e+00	
			         1.74167	6.00000e+00	
			         1.74333	1.10000e+01	
			         1.74500	1.60000e+01	
			         1.74667	2.00000e+01	
			         1.74833	2.40000e+01	
			         1.75000	2.70000e+01	
			         1.75167	2.90000e+01	
			         1.75333	3.00000e+01	
			         1.75500	3.00000e+01	
			         1.75667	2.90000e+01	
			         1.75833	2.80000e+01	
			         1.76000	2.60000e+01	
			         1.76167	2.40000e+01	
			         1.76333	2.10000e+01	
			         1.76500	1.80000e+01	
			         1.76667	1.60000e+01	
			         1.76833	1.30000e+01	
			         1.77000	1.10000e+01	
			         1.77167	9.00000e+00	
			         1.77333	8.00000e+00	
			         1.77500	7.00000e+00	
			         1.77667	7.00000e+00	
			         1.77833	6.00000e+00	
			         1.78000	7.00000e+00	
			         1.78167	7.00000e+00	
			         1.78333	8.00000e+00	
			         1.78500	9.00000e+00	
			         1.78667	1.00000e+01	
			         1.78833	1.10000e+01	
			         1.79000	1.30000e+01	
			         1.79167	1.40000e+01	
			         1.79333	1.50000e+01	
			         1.79500	1.60000e+01	
			         1.79667	1.70000e+01	
			         1.79833	1.80000e+01	
			         1.80000	1.90000e+01	
			         1.80167	2.00000e+01	
			         1.80333	2.00000e+01	
			         1.80500	2.00000e+01	
			         1.80667	2.00000e+01	
			         1.80833	2.00000e+01	
			         1.81000	2.00000e+01	
			         1.81167	1.90000e+01	
			         1.81333	1.70000e+01	
			         1.81500	1.50000e+01	
			         1.81667	1.30000e+01	
			         1.81833	1.10000e+01	
			         1.82000	9.00000e+00	
			         1.82167	7.00000e+00	
			         1.82333	5.00000e+00	
			         1.82500	5.00000e+00	
			         1.82667	5.00000e+00	
			         1.82833	5.00000e+00	
			         1.83000	7.00000e+00	
			         1.83167	9.00000e+00	
			         1.83333	1.20000e+01	
			         1.83500	1.60000e+01	
			         1.83667	2.10000e+01	
			         1.83833	2.60000e+01	
			         1.84000	3.10000e+01	
			         1.84167	3.50000e+01	
			         1.84333	4.00000e+01	
			         1.84500	4.40000e+01	
			         1.84667	4.70000e+01	
			         1.84833	5.00000e+01	
			         1.85000	5.20000e+01	
			         1.85167	5.40000e+01	
			         1.85333	5.50000e+01	
			         1.85500	5.60000e+01	
			         1.85667	5.60000e+01	
			         1.85833	5.50000e+01	
			         1.86000	5.40000e+01	
			         1.86167	5.30000e+01	
			         1.86333	5.10000e+01	
			         1.86500	5.00000e+01	
			         1.86667	4.80000e+01	
			         1.86833	4.60000e+01	
			         1.87000	4.50000e+01	
			         1.87167	4.40000e+01	
			         1.87333	4.30000e+01	
			         1.87500	4.20000e+01	
			         1.87667	4.10000e+01	
			         1.87833	4.10000e+01	
			         1.88000	4.10000e+01	
			         1.88167	4.00000e+01	
			         1.88333	4.00000e+01	
			         1.88500	3.90000e+01	
			         1.88667	3.80000e+01	
			         1.88833	3.70000e+01	
			         1.89000	3.60000e+01	
			         1.89167	3.40000e+01	
			         1.89333	3.10000e+01	
			         1.89500	2.90000e+01	
			         1.89667	2.60000e+01	
			         1.89833	2.30000e+01	
			         1.90000	2.00000e+01	
			         1.90167	1.70000e+01	
			         1.90333	1.50000e+01	
			         1.90500	1.20000e+01	
			         1.90667	1.00000e+01	
			         1.90833	7.00000e+00	
			         1.91000	4.00000e+00	
			         1.91167	1.00000e+00	
			         1.91333	-2.00000e+00	
			         1.91500	-5.00000e+00	
			         1.91667	-8.00000e+00	
			         1.91833	-1.10000e+01	
			         1.92000	-1.30000e+01	
			         1.92167	-1.60000e+01	
			         1.92333	-1.80000e+01	
			         1.92500	-1.90000e+01	
			         1.92667	-2.10000e+01	
			         1.92833	-2.20000e+01	
			         1.93000	-2.20000e+01	
			         1.93167	-2.20000e+01	
			         1.93333	-2.20000e+01	
			         1.93500	-2.10000e+01	
			         1.93667	-2.10000e+01	
			         1.93833	-2.10000e+01	
			         1.94000	-2.20000e+01	
			         1.94167	-2.30000e+01	
			         1.94333	-2.40000e+01	
			         1.94500	-2.60000e+01	
			         1.94667	-2.90000e+01	
			         1.94833	-3.20000e+01	
			         1.95000	-3.50000e+01	
			         1.95167	-3.80000e+01	
			         1.95333	-4.20000e+01	
			         1.95500	-4.40000e+01	
			         1.95667	-4.70000e+01	
			         1.95833	-4.90000e+01	
			         1.96000	-5.10000e+01	
			         1.96167	-5.20000e+01	
			         1.96333	-5.30000e+01	
			         1.96500	-5.40000e+01	
			         1.96667	-5.50000e+01	
			         1.96833	-5.50000e+01	
			         1.97000	-5.40000e+01	
			         1.97167	-5.30000e+01	
			         1.97333	-5.20000e+01	
			         1.97500	-5.10000e+01	
			         1.97667	-4.90000e+01	
			         1.97833	-4.80000e+01	
			         1.98000	-4.60000e+01	
			         1.98167	-4.30000e+01	
			         1.98333	-4.10000e+01	
			         1.98500	-3.80000e+01	
			         1.98667	-3.60000e+01	
			         1.98833	-3.30000e+01	
			         1.99000	-3.10000e+01	
			         1.99167	-2.90000e+01	
			         1.99333	-2.70000e+01	
			         1.99500	-2.60000e+01	
			         1.99667	-2.50000e+01	
			         1.99833	-2.50000e+01	
			         2.00000	-2.50000e+01	
			         2.00167	-2.50000e+01	
			         2.00333	-2.50000e+01	
			         2.00500	-2.60000e+01	
			         2.00667	-2.70000e+01	
			         2.00833	-2.70000e+01	
			         2.01000	-2.80000e+01	
			         2.01167	-2.90000e+01	
			         2.01333	-3.00000e+01	
			         2.01500	-3.20000e+01	
			         2.01667	-3.30000e+01	
			         2.01833	-3.50000e+01	
			         2.02000	-3.70000e+01	
			         2.02167	-3.80000e+01	
			         2.02333	-3.90000e+01	
			         2.02500	-3.90000e+01	
			         2.02667	-3.90000e+01	
			         2.02833	-3.80000e+01	
			         2.03000	-3.70000e+01	
			         2.03167	-3.50000e+01	
			         2.03333	-3.20000e+01	
			         2.03500	-2.80000e+01	
			         2.03667	-2.40000e+01	
			         2.03833	-2.10000e+01	
			         2.04000	-1.70000e+01	
			         2.04167	-1.40000e+01	
			         2.04333	-1.20000e+01	
			         2.04500	-1.00000e+01	
			         2.04667	-9.00000e+00	
			         2.04833	-8.00000e+00	
			         2.05000	-8.00000e+00	
			         2.05167	-9.00000e+00	
			         2.05333	-1.00000e+01	
			         2.05500	-1.10000e+01	
			         2.05667	-1.20000e+01	
			         2.05833	-1.30000e+01	
			         2.06000	-1.40000e+01	
			         2.06167	-1.50000e+01	
			         2.06333	-1.50000e+01	
			         2.06500	-1.60000e+01	
			         2.06667	-1.70000e+01	
			         2.06833	-1.80000e+01	
			         2.07000	-1.90000e+01	
			         2.07167	-2.10000e+01	
			         2.07333	-2.20000e+01	
			         2.07500	-2.40000e+01	
			         2.07667	-2.60000e+01	
			         2.07833	-2.80000e+01	
			         2.08000	-3.00000e+01	
			         2.08167	-3.10000e+01	
			         2.08333	-3.20000e+01	
			         2.08500	-3.20000e+01	
			         2.08667	-3.20000e+01	
			         2.08833	-3.20000e+01	
			         2.09000	-3.10000e+01	
			         2.09167	-2.90000e+01	
			         2.09333	-2.70000e+01	
			         2.09500	-2.40000e+01	
			         2.09667	-2.10000e+01	
			         2.09833	-1.80000e+01	
			         2.10000	-1.50000e+01	
			         2.10167	-1.20000e+01	
			         2.10333	-9.00000e+00	
			         2.10500	-6.00000e+00	
			         2.10667	-4.00000e+00	
			         2.10833	-2.00000e+00	
			         2.11000	0.00000e+00	
			         2.11167	1.00000e+00	
			         2.11333	2.00000e+00	
			         2.11500	2.00000e+00	
			         2.11667	2.00000e+00	
			         2.11833	1.00000e+00	
			         2.12000	0.00000e+00	
			         2.12167	-1.00000e+00	
			         2.12333	-3.00000e+00	
			         2.12500	-4.00000e+00	
			         2.12667	-5.00000e+00	
			         2.12833	-6.00000e+00	
			         2.13000	-7.00000e+00	
			         2.13167	-7.00000e+00	
			         2.13333	-7.00000e+00	
			         2.13500	-8.00000e+00	
			         2.13667	-8.00000e+00	
			         2.13833	-8.00000e+00	
			         2.14000	-8.00000e+00	
			         2.14167	-8.00000e+00	
			         2.14333	-7.00000e+00	
			         2.14500	-7.00000e+00	
			         2.14667	-7.00000e+00	
			         2.14833	-7.00000e+00	
			         2.15000	-6.00000e+00	
			         2.15167	-6.00000e+00	
			         2.15333	-6.00000e+00	
			         2.15500	-6.00000e+00	
			         2.15667	-6.00000e+00	
			         2.15833	-5.00000e+00	
			         2.16000	-5.00000e+00	
			         2.16167	-4.00000e+00	
			         2.16333	-4.00000e+00	
			         2.16500	-3.00000e+00	
			         2.16667	-1.00000e+00	
			         2.16833	0.00000e+00	
			         2.17000	1.00000e+00	
			         2.17167	2.00000e+00	
			         2.17333	4.00000e+00	
			         2.17500	6.00000e+00	
			         2.17667	7.00000e+00	
			         2.17833	8.00000e+00	
			         2.18000	9.00000e+00	
			         2.18167	1.00000e+01	
			         2.18333	1.10000e+01	
			         2.18500	1.20000e+01	
			         2.18667	1.20000e+01	
			         2.18833	1.30000e+01	
			         2.19000	1.30000e+01	
			         2.19167	1.40000e+01	
			         2.19333	1.40000e+01	
			         2.19500	1.40000e+01	
			         2.19667	1.40000e+01	
			         2.19833	1.40000e+01	
			         2.20000	1.40000e+01	
			         2.20167	1.30000e+01	
			         2.20333	1.30000e+01	
			         2.20500	1.20000e+01	
			         2.20667	1.20000e+01	
			         2.20833	1.10000e+01	
			         2.21000	1.00000e+01	
			         2.21167	1.00000e+01	
			         2.21333	1.00000e+01	
			         2.21500	1.10000e+01	
			         2.21667	1.20000e+01	
			         2.21833	1.20000e+01	
			         2.22000	1.30000e+01	
			         2.22167	1.40000e+01	
			         2.22333	1.50000e+01	
			         2.22500	1.60000e+01	
			         2.22667	1.70000e+01	
			         2.22833	1.70000e+01	
			         2.23000	1.70000e+01	
			         2.23167	1.60000e+01	
			         2.23333	1.50000e+01	
			         2.23500	1.40000e+01	
			         2.23667	1.30000e+01	
			         2.23833	1.10000e+01	
			         2.24000	1.00000e+01	
			         2.24167	9.00000e+00	
			         2.24333	8.00000e+00	
			         2.24500	8.00000e+00	
			         2.24667	7.00000e+00	
			         2.24833	7.00000e+00	
			         2.25000	7.00000e+00	
			         2.25167	7.00000e+00	
			         2.25333	7.00000e+00	
			         2.25500	7.00000e+00	
			         2.25667	6.00000e+00	
			         2.25833	4.00000e+00	
			         2.26000	1.00000e+00	
			         2.26167	-1.00000e+00	
			         2.26333	-4.00000e+00	
			         2.26500	-6.00000e+00	
			         2.26667	-8.00000e+00	
			         2.26833	-9.00000e+00	
			         2.27000	-9.00000e+00	
			         2.27167	-8.00000e+00	
			         2.27333	-7.00000e+00	
			         2.27500	-5.00000e+00	
			         2.27667	-2.00000e+00	
			         2.27833	1.00000e+00	
			         2.28000	5.00000e+00	
			         2.28167	9.00000e+00	
			         2.28333	1.20000e+01	
			         2.28500	1.50000e+01	
			         2.28667	1.70000e+01	
			         2.28833	1.70000e+01	
			         2.29000	1.70000e+01	
			         2.29167	1.60000e+01	
			         2.29333	1.40000e+01	
			         2.29500	1.10000e+01	
			         2.29667	9.00000e+00	
			         2.29833	6.00000e+00	
			         2.30000	4.00000e+00	
			         2.30167	1.00000e+00	
			         2.30333	-1.00000e+00	
			         2.30500	-3.00000e+00	
			         2.30667	-4.00000e+00	
			         2.30833	-5.00000e+00	
			         2.31000	-6.00000e+00	
			         2.31167	-7.00000e+00	
			         2.31333	-7.00000e+00	
			         2.31500	-8.00000e+00	
			         2.31667	-1.00000e+01	
			         2.31833	-1.20000e+01	
			         2.32000	-1.40000e+01	
			         2.32167	-1.60000e+01	
			         2.32333	-1.80000e+01	
			         2.32500	-2.00000e+01	
			         2.32667	-2.10000e+01	
			         2.32833	-2.20000e+01	
			         2.33000	-2.30000e+01	
			         2.33167	-2.30000e+01	
			         2.33333	-2.30000e+01	
			         2.33500	-2.10000e+01	
			         2.33667	-1.80000e+01	
			         2.33833	-1.50000e+01	
			         2.34000	-1.00000e+01	
			         2.34167	-6.00000e+00	
			         2.34333	-1.00000e+00	
			         2.34500	3.00000e+00	
			         2.34667	7.00000e+00	
			         2.34833	1.00000e+01	
			         2.35000	1.30000e+01	
			         2.35167	1.50000e+01	
			         2.35333	1.60000e+01	
			         2.35500	1.70000e+01	
			         2.35667	1.70000e+01	
			         2.35833	1.60000e+01	
			         2.36000	1.50000e+01	
			         2.36167	1.30000e+01	
			         2.36333	1.20000e+01	
			         2.36500	1.00000e+01	
			         2.36667	8.00000e+00	
			         2.36833	6.00000e+00	
			         2.37000	4.00000e+00	
			         2.37167	2.00000e+00	
			         2.37333	0.00000e+00	
			         2.37500	-2.00000e+00	
			         2.37667	-3.00000e+00	
			         2.37833	-5.00000e+00	
			         2.38000	-6.00000e+00	
			         2.38167	-7.00000e+00	
			         2.38333	-8.00000e+00	
			         2.38500	-9.00000e+00	
			         2.38667	-1.00000e+01	
			         2.38833	-1.00000e+01	
			         2.39000	-1.00000e+01	
			         2.39167	-1.10000e+01	
			         2.39333	-1.10000e+01	
			         2.39500	-1.00000e+01	
			         2.39667	-1.00000e+01	
			         2.39833	-9.00000e+00	
			         2.40000	-8.00000e+00	
			         2.40167	-8.00000e+00	
			         2.40333	-7.00000e+00	
			         2.40500	-6.00000e+00	
			         2.40667	-5.00000e+00	
			         2.40833	-3.00000e+00	
			         2.41000	-2.00000e+00	
			         2.41167	0.00000e+00	
			         2.41333	1.00000e+00	
			         2.41500	2.00000e+00	
			         2.41667	4.00000e+00	
			         2.41833	5.00000e+00	
			         2.42000	7.00000e+00	
			         2.42167	9.00000e+00	
			         2.42333	1.20000e+01	
			         2.42500	1.60000e+01	
			         2.42667	2.20000e+01	
			         2.42833	2.90000e+01	
			         2.43000	3.80000e+01	
			         2.43167	4.80000e+01	
			         2.43333	6.10000e+01	
			         2.43500	7.50000e+01	
			         2.43667	9.10000e+01	
			         2.43833	1.08000e+02	
			         2.44000	1.26000e+02	
			         2.44167	1.44000e+02	
			         2.44333	1.61000e+02	
			         2.44500	1.77000e+02	
			         2.44667	1.91000e+02	
			         2.44833	2.02000e+02	
			         2.45000	2.10000e+02	
			         2.45167	2.14000e+02	
			         2.45333	2.14000e+02	
			         2.45500	2.08000e+02	
			         2.45667	1.97000e+02	
			         2.45833	1.81000e+02	
			         2.46000	1.59000e+02	
			         2.46167	1.32000e+02	
			         2.46333	1.02000e+02	
			         2.46500	6.90000e+01	
			         2.46667	3.40000e+01	
			         2.46833	-2.00000e+00	
			         2.47000	-3.70000e+01	
			         2.47167	-7.10000e+01	
			         2.47333	-1.02000e+02	
			         2.47500	-1.30000e+02	
			         2.47667	-1.53000e+02	
			         2.47833	-1.71000e+02	
			         2.48000	-1.84000e+02	
			         2.48167	-1.91000e+02	
			         2.48333	-1.94000e+02	
			         2.48500	-1.92000e+02	
			         2.48667	-1.86000e+02	
			         2.48833	-1.77000e+02	
			         2.49000	-1.65000e+02	
			         2.49167	-1.51000e+02	
			         2.49333	-1.36000e+02	
			         2.49500	-1.20000e+02	
			         2.49667	-1.04000e+02	
			         2.49833	-8.70000e+01	
			         2.50000	-7.10000e+01	
			         2.50167	-5.60000e+01	
			         2.50333	-4.20000e+01	
			         2.50500	-3.00000e+01	
			         2.50667	-1.90000e+01	
			         2.50833	-1.00000e+01	
			         2.51000	-2.00000e+00	
			         2.51167	4.00000e+00	
			         2.51333	8.00000e+00	
			         2.51500	1.10000e+01	
			         2.51667	1.20000e+01	
			         2.51833	1.30000e+01	
			         2.52000	1.30000e+01	
			         2.52167	1.20000e+01	
			         2.52333	1.10000e+01	
			         2.52500	1.00000e+01	
			         2.52667	8.00000e+00	
			         2.52833	6.00000e+00	
			         2.53000	3.00000e+00	
			         2.53167	1.00000e+00	
			         2.53333	-1.00000e+00	
			         2.53500	-3.00000e+00	
			         2.53667	-4.00000e+00	
			         2.53833	-4.00000e+00	
			         2.54000	-3.00000e+00	
			         2.54167	-2.00000e+00	
