Velocity (TVI), in cm/s

Time (s) :	Trace 1 : 		Ecg : 		
0.01121   	-6.50856e-01		         0.00000	-1.00000e+00	
0.01733   	-4.91149e-01		         0.00167	9.00000e+00	
0.02346   	-3.33676e-01		         0.00333	2.10000e+01	
0.02985   	1.51170e-01		         0.00500	3.40000e+01	
0.03597   	9.48786e-01		         0.00667	4.90000e+01	
0.04210   	1.78818e+00		         0.00833	6.50000e+01	
0.04821   	2.48308e+00		         0.01000	8.20000e+01	
0.05460   	3.00571e+00		         0.01167	1.01000e+02	
0.06072   	3.17359e+00		         0.01333	1.20000e+02	
0.06685   	2.90264e+00		         0.01500	1.39000e+02	
0.07297   	2.56092e+00		         0.01667	1.59000e+02	
0.07936   	2.44810e+00		         0.01833	1.77000e+02	
0.08548   	2.65821e+00		         0.02000	1.93000e+02	
0.09160   	3.10633e+00		         0.02167	2.07000e+02	
0.09773   	3.76667e+00		         0.02333	2.16000e+02	
0.10412   	4.53617e+00		         0.02500	2.21000e+02	
0.11024   	5.19543e+00		         0.02667	2.20000e+02	
0.11636   	5.64046e+00		         0.02833	2.14000e+02	
0.12248   	5.95341e+00		         0.03000	2.02000e+02	
0.12888   	6.09636e+00		         0.03167	1.84000e+02	
0.13500   	6.10722e+00		         0.03333	1.59000e+02	
0.14112   	5.98669e+00		         0.03500	1.29000e+02	
0.14724   	5.83239e+00		         0.03667	9.40000e+01	
0.15363   	5.65539e+00		         0.03833	5.50000e+01	
0.15975   	5.50259e+00		         0.04000	1.40000e+01	
0.16588   	5.29060e+00		         0.04167	-2.90000e+01	
0.17200   	5.14716e+00		         0.04333	-7.10000e+01	
0.17839   	5.02851e+00		         0.04500	-1.10000e+02	
0.18451   	4.85593e+00		         0.04667	-1.46000e+02	
0.19063   	4.67040e+00		         0.04833	-1.76000e+02	
0.19676   	4.55173e+00		         0.05000	-1.99000e+02	
0.20315   	4.39658e+00		         0.05167	-2.17000e+02	
0.20927   	4.26706e+00		         0.05333	-2.27000e+02	
0.21539   	4.21773e+00		         0.05500	-2.31000e+02	
0.22151   	4.16456e+00		         0.05667	-2.30000e+02	
0.22791   	4.11218e+00		         0.05833	-2.23000e+02	
0.23402   	4.09564e+00		         0.06000	-2.11000e+02	
0.24015   	4.00115e+00		         0.06167	-1.97000e+02	
0.24627   	3.90294e+00		         0.06333	-1.80000e+02	
0.25266   	3.82407e+00		         0.06500	-1.61000e+02	
0.25879   	3.67761e+00		         0.06667	-1.42000e+02	
0.26491   	3.63374e+00		         0.06833	-1.24000e+02	
0.27103   	3.61909e+00		         0.07000	-1.06000e+02	
0.27742   	3.54547e+00		         0.07167	-9.00000e+01	
0.28354   	3.45766e+00		         0.07333	-7.60000e+01	
0.28966   	3.41996e+00		         0.07500	-6.40000e+01	
0.29578   	3.27811e+00		         0.07667	-5.30000e+01	
0.30218   	3.13603e+00		         0.07833	-4.40000e+01	
0.30830   	3.01972e+00		         0.08000	-3.70000e+01	
0.31442   	2.89459e+00		         0.08167	-3.20000e+01	
0.32054   	2.73550e+00		         0.08333	-2.80000e+01	
0.32693   	2.56249e+00		         0.08500	-2.40000e+01	
0.33305   	2.37918e+00		         0.08667	-2.20000e+01	
0.33918   	2.23679e+00		         0.08833	-2.00000e+01	
0.34530   	2.10262e+00		         0.09000	-1.90000e+01	
0.35181   	1.93309e+00		         0.09167	-1.80000e+01	
0.35781   	1.77189e+00		         0.09333	-1.80000e+01	
0.36393   	1.63402e+00		         0.09500	-1.80000e+01	
0.37006   	1.49505e+00		         0.09667	-1.70000e+01	
0.37644   	1.33085e+00		         0.09833	-1.70000e+01	
0.38257   	1.17885e+00		         0.10000	-1.70000e+01	
0.38869   	9.88811e-01		         0.10167	-1.70000e+01	
0.39481   	7.88512e-01		         0.10333	-1.60000e+01	
0.40120   	5.35580e-01		         0.10500	-1.60000e+01	
0.40733   	3.27445e-01		         0.10667	-1.60000e+01	
0.41344   	-2.11151e-01		         0.10833	-1.60000e+01	
0.41957   	-7.33414e-01		         0.11000	-1.50000e+01	
0.42596   	-1.08524e+00		         0.11167	-1.50000e+01	
0.43208   	-1.52835e+00		         0.11333	-1.50000e+01	
0.43820   	-1.78156e+00		         0.11500	-1.50000e+01	
0.44433   	-1.59037e+00		         0.11667	-1.50000e+01	
0.45072   	-1.31511e+00		         0.11833	-1.50000e+01	
0.45684   	-1.20593e+00		         0.12000	-1.40000e+01	
0.46297   	-1.00888e+00		         0.12167	-1.40000e+01	
0.46909   	-1.06950e+00		         0.12333	-1.40000e+01	
0.47548   	-1.29223e+00		         0.12500	-1.40000e+01	
0.48160   	-1.53708e+00		         0.12667	-1.40000e+01	
0.48772   	-1.84553e+00		         0.12833	-1.40000e+01	
0.49384   	-2.11318e+00		         0.13000	-1.30000e+01	
0.50023   	-2.37303e+00		         0.13167	-1.30000e+01	
0.50636   	-2.60786e+00		         0.13333	-1.30000e+01	
0.51248   	-3.01267e+00		         0.13500	-1.20000e+01	
0.51860   	-3.50230e+00		         0.13667	-1.20000e+01	
0.52499   	-4.08882e+00		         0.13833	-1.10000e+01	
0.53112   	-4.66617e+00		         0.14000	-1.10000e+01	
0.53723   	-5.25090e+00		         0.14167	-1.00000e+01	
0.54336   	-5.67011e+00		         0.14333	-1.00000e+01	
0.54975   	-5.91221e+00		         0.14500	-9.00000e+00	
0.55587   	-5.99670e+00		         0.14667	-8.00000e+00	
0.56199   	-5.90960e+00		         0.14833	-8.00000e+00	
0.56811   	-5.62562e+00		         0.15000	-7.00000e+00	
0.57451   	-5.28978e+00		         0.15167	-7.00000e+00	
0.58063   	-4.84375e+00		         0.15333	-6.00000e+00	
0.58675   	-4.39625e+00		         0.15500	-6.00000e+00	
0.59287   	-4.00541e+00		         0.15667	-5.00000e+00	
0.59926   	-3.64629e+00		         0.15833	-5.00000e+00	
0.60539   	-3.34818e+00		         0.16000	-5.00000e+00	
0.61151   	-3.11539e+00		         0.16167	-5.00000e+00	
0.61769   	-2.89851e+00		         0.16333	-5.00000e+00	
0.62402   	-2.67265e+00		         0.16500	-5.00000e+00	
0.63014   	-2.48147e+00		         0.16667	-5.00000e+00	
0.63626   	-2.19612e+00		         0.16833	-5.00000e+00	
0.64239   	-1.92300e+00		         0.17000	-5.00000e+00	
0.64878   	-1.63891e+00		         0.17167	-5.00000e+00	
0.65490   	-1.38316e+00		         0.17333	-4.00000e+00	
0.66102   	-1.12349e+00		         0.17500	-4.00000e+00	
0.66752   	-9.01834e-01		         0.17667	-4.00000e+00	
0.67354   	-6.88729e-01		         0.17833	-3.00000e+00	
0.67966   	-4.94294e-01		         0.18000	-3.00000e+00	
0.68578   	-3.25173e-01		         0.18167	-2.00000e+00	
0.69190   	-1.93533e-01		         0.18333	-2.00000e+00	
0.69829   	-1.13148e-01		         0.18500	-1.00000e+00	
0.70442   	-6.04612e-02		         0.18667	-1.00000e+00	
0.71054   	-2.76616e-02		         0.18833	0.00000e+00	
0.71666   	-7.78312e-03		         0.19000	0.00000e+00	
0.72305   	-6.71777e-03		         0.19167	1.00000e+00	
0.72917   	-1.63062e-02		         0.19333	2.00000e+00	
0.73529   	-2.14555e-02		         0.19500	2.00000e+00	
0.74142   	-2.72914e-02		         0.19667	3.00000e+00	
0.74781   	-2.96944e-02		         0.19833	3.00000e+00	
0.75393   	-2.31719e-02		         0.20000	4.00000e+00	
0.76005   	2.57466e-03		         0.20167	5.00000e+00	
0.76617   	2.93866e-02		         0.20333	5.00000e+00	
0.77257   	4.89540e-02		         0.20500	6.00000e+00	
0.77869   	5.95960e-02		         0.20667	7.00000e+00	
0.78481   	5.25052e-02		         0.20833	8.00000e+00	
0.79093   	6.84789e-03		         0.21000	9.00000e+00	
0.79732   	-4.29644e-02		         0.21167	1.00000e+01	
0.80344   	-8.93083e-02		         0.21333	1.10000e+01	
0.80956   	-1.29473e-01		         0.21500	1.20000e+01	
0.81569   	-1.59454e-01		         0.21667	1.30000e+01	
0.82208   	-1.54992e-01		         0.21833	1.40000e+01	
0.82820   	-1.45391e-01		         0.22000	1.50000e+01	
0.83432   	-1.34761e-01		         0.22167	1.60000e+01	
0.84044   	-1.27114e-01		         0.22333	1.70000e+01	
0.84684   	-1.21968e-01		         0.22500	1.80000e+01	
0.85296   	-1.27508e-01		         0.22667	1.90000e+01	
0.85908   	-1.38493e-01		         0.22833	2.00000e+01	
0.86520   	-1.49810e-01		         0.23000	2.10000e+01	
0.87160   	-1.58143e-01		         0.23167	2.20000e+01	
0.87772   	-1.62949e-01		         0.23333	2.30000e+01	
0.88384   	-1.67351e-01		         0.23500	2.40000e+01	
0.88996   	-1.70074e-01		         0.23667	2.50000e+01	
0.89635   	-1.72809e-01		         0.23833	2.60000e+01	
0.90248   	-1.75544e-01		         0.24000	2.60000e+01	
0.90860   	-1.75544e-01		         0.24167	2.70000e+01	
0.91471   	-1.74176e-01		         0.24333	2.80000e+01	
0.92111   	-1.71441e-01		         0.24500	2.80000e+01	
0.92723   	-1.74176e-01		         0.24667	2.90000e+01	
0.93350   	-1.75490e-01		         0.24833	3.00000e+01	
0.93947   	-1.92342e-01		         0.25000	3.10000e+01	
0.94587   	-2.15722e-01		         0.25167	3.20000e+01	
0.95199   	-2.65216e-01		         0.25333	3.20000e+01	
0.95811   	-4.00772e-01		         0.25500	3.40000e+01	
0.96423   	-6.94761e-01		         0.25667	3.50000e+01	
0.97062   	-1.25741e+00		         0.25833	3.60000e+01	
0.97674   	-2.12344e+00		         0.26000	3.80000e+01	
0.98307   	-3.24196e+00		         0.26167	4.00000e+01	
0.98899   	-4.42362e+00		         0.26333	4.20000e+01	
0.99538   	-5.54073e+00		         0.26500	4.40000e+01	
1.00150   	-6.35821e+00		         0.26667	4.60000e+01	
1.00762   	-6.82335e+00		         0.26833	4.80000e+01	
1.01374   	-6.91593e+00		         0.27000	5.00000e+01	
1.02014   	-6.68298e+00		         0.27167	5.20000e+01	
1.02626   	-6.12449e+00		         0.27333	5.40000e+01	
1.03238   	-5.39384e+00		         0.27500	5.60000e+01	
1.03850   	-4.55067e+00		         0.27667	5.80000e+01	
1.04490   	-3.70232e+00		         0.27833	6.00000e+01	
1.05102   	-2.93496e+00		         0.28000	6.20000e+01	
1.05714   	-2.24204e+00		         0.28167	6.30000e+01	
1.06326   	-1.66203e+00		         0.28333	6.50000e+01	
1.06966   	-1.21036e+00		         0.28500	6.60000e+01	
1.07577   	-7.98776e-01		         0.28667	6.80000e+01	
1.08190   	-3.88986e-01		         0.28833	7.00000e+01	
1.08802   	2.21163e-02		         0.29000	7.10000e+01	
1.09441   	7.11789e-01		         0.29167	7.30000e+01	
1.10053   	1.58742e+00		         0.29333	7.40000e+01	
1.10665   	2.35037e+00		         0.29500	7.60000e+01	
1.11277   	2.91736e+00		         0.29667	7.70000e+01	
1.11917   	3.22442e+00		         0.29833	7.80000e+01	
1.12529   	3.01667e+00		         0.30000	8.00000e+01	
1.13141   	2.65766e+00		         0.30167	8.10000e+01	
1.13754   	2.45295e+00		         0.30333	8.20000e+01	
1.14393   	2.54094e+00		         0.30500	8.30000e+01	
1.15005   	2.93014e+00		         0.30667	8.40000e+01	
1.15617   	3.56057e+00		         0.30833	8.50000e+01	
1.16229   	4.29377e+00		         0.31000	8.60000e+01	
1.16868   	4.98755e+00		         0.31167	8.70000e+01	
1.17480   	5.51883e+00		         0.31333	8.70000e+01	
1.18092   	5.85502e+00		         0.31500	8.70000e+01	
1.18705   	6.07307e+00		         0.31667	8.70000e+01	
1.19344   	6.14026e+00		         0.31833	8.70000e+01	
1.19956   	6.07235e+00		         0.32000	8.60000e+01	
1.20568   	5.92832e+00		         0.32167	8.50000e+01	
1.21180   	5.75233e+00		         0.32333	8.40000e+01	
1.21820   	5.59680e+00		         0.32500	8.30000e+01	
1.22432   	5.36552e+00		         0.32667	8.20000e+01	
1.23044   	5.16009e+00		         0.32833	8.00000e+01	
1.23656   	5.01341e+00		         0.33000	7.80000e+01	
1.24296   	4.87736e+00		         0.33167	7.60000e+01	
1.24907   	4.65460e+00		         0.33333	7.40000e+01	
1.25520   	4.55031e+00		         0.33500	7.10000e+01	
1.26132   	4.47875e+00		         0.33667	6.90000e+01	
1.26771   	4.38693e+00		         0.33833	6.60000e+01	
1.27383   	4.29276e+00		         0.34000	6.30000e+01	
1.27995   	4.20239e+00		         0.34167	6.00000e+01	
1.28608   	4.13208e+00		         0.34333	5.70000e+01	
1.29247   	4.04028e+00		         0.34500	5.30000e+01	
1.29859   	3.92221e+00		         0.34667	5.00000e+01	
1.30471   	3.80888e+00		         0.34833	4.60000e+01	
1.31083   	3.78682e+00		         0.35000	4.20000e+01	
1.31723   	3.65998e+00		         0.35167	3.80000e+01	
1.32335   	3.58378e+00		         0.35333	3.30000e+01	
1.32947   	3.54565e+00		         0.35500	2.90000e+01	
1.33559   	3.50490e+00		         0.35667	2.40000e+01	
1.34198   	3.42335e+00		         0.35833	1.90000e+01	
1.34810   	3.39530e+00		         0.36000	1.40000e+01	
1.35423   	3.30605e+00		         0.36167	1.00000e+01	
1.36035   	3.21359e+00		         0.36333	5.00000e+00	
1.36674   	3.08345e+00		         0.36500	0.00000e+00	
1.37286   	2.91158e+00		         0.36667	-4.00000e+00	
1.37898   	2.70897e+00		         0.36833	-9.00000e+00	
1.38511   	2.56078e+00		         0.37000	-1.30000e+01	
1.39150   	2.34582e+00		         0.37167	-1.70000e+01	
1.39774   	2.20526e+00		         0.37333	-2.10000e+01	
1.40374   	2.09721e+00		         0.37500	-2.50000e+01	
1.40986   	1.98112e+00		         0.37667	-2.80000e+01	
1.41625   	1.83687e+00		         0.37833	-3.10000e+01	
1.42238   	1.72357e+00		         0.38000	-3.40000e+01	
1.42850   	1.58418e+00		         0.38167	-3.70000e+01	
1.43462   	1.44447e+00		         0.38333	-4.00000e+01	
1.44101   	1.26768e+00		         0.38500	-4.20000e+01	
1.44713   	1.06796e+00		         0.38667	-4.40000e+01	
1.45326   	8.68280e-01		         0.38833	-4.70000e+01	
1.45938   	5.90158e-01		         0.39000	-4.90000e+01	
1.46577   	3.03768e-01		         0.39167	-5.00000e+01	
1.47189   	-4.48168e-02		         0.39333	-5.20000e+01	
1.47801   	-5.16594e-01		         0.39500	-5.40000e+01	
1.48413   	-1.12151e+00		         0.39667	-5.50000e+01	
1.49053   	-1.56156e+00		         0.39833	-5.70000e+01	
1.49665   	-1.87350e+00		         0.40000	-5.70000e+01	
1.50277   	-1.89615e+00		         0.40167	-5.80000e+01	
1.50889   	-1.81604e+00		         0.40333	-5.90000e+01	
1.51528   	-1.43501e+00		         0.40500	-5.90000e+01	
1.52141   	-1.17976e+00		         0.40667	-5.90000e+01	
1.52753   	-1.07602e+00		         0.40833	-5.90000e+01	
1.53365   	-1.22671e+00		         0.41000	-5.90000e+01	
1.54004   	-1.31493e+00		         0.41167	-5.80000e+01	
1.54616   	-1.60954e+00		         0.41333	-5.70000e+01	
1.55228   	-1.95813e+00		         0.41500	-5.70000e+01	
1.55841   	-2.19628e+00		         0.41667	-5.60000e+01	
1.56480   	-2.42423e+00		         0.41833	-5.50000e+01	
1.57092   	-2.76889e+00		         0.42000	-5.40000e+01	
1.57704   	-3.25024e+00		         0.42167	-5.30000e+01	
1.58316   	-3.70323e+00		         0.42333	-5.30000e+01	
1.58955   	-4.28430e+00		         0.42500	-5.20000e+01	
1.59567   	-4.88081e+00		         0.42667	-5.10000e+01	
1.60180   	-5.40229e+00		         0.42833	-5.10000e+01	
1.60792   	-5.69361e+00		         0.43000	-5.00000e+01	
1.61431   	-5.87481e+00		         0.43167	-5.00000e+01	
1.62044   	-5.88114e+00		         0.43333	-4.90000e+01	
1.62656   	-5.67720e+00		         0.43500	-4.90000e+01	
1.63268   	-5.33010e+00		         0.43667	-4.80000e+01	
1.63907   	-4.93125e+00		         0.43833	-4.80000e+01	
1.64519   	-4.50157e+00		         0.44000	-4.70000e+01	
1.65132   	-4.07553e+00		         0.44167	-4.70000e+01	
1.65744   	-3.70438e+00		         0.44333	-4.70000e+01	
1.66383   	-3.39343e+00		         0.44500	-4.60000e+01	
1.66995   	-3.14634e+00		         0.44667	-4.60000e+01	
1.67607   	-2.91988e+00		         0.44833	-4.50000e+01	
1.68219   	-2.70819e+00		         0.45000	-4.50000e+01	
1.68859   	-2.49657e+00		         0.45167	-4.50000e+01	
1.69471   	-2.29086e+00		         0.45333	-4.40000e+01	
1.70083   	-2.00430e+00		         0.45500	-4.40000e+01	
1.70695   	-1.72683e+00		         0.45667	-4.40000e+01	
1.71334   	-1.43708e+00		         0.45833	-4.30000e+01	
1.71946   	-1.16153e+00		         0.46000	-4.30000e+01	
1.72559   	-8.58093e-01		         0.46167	-4.20000e+01	
1.73171   	-6.09696e-01		         0.46333	-4.20000e+01	
1.73810   	-3.74296e-01		         0.46500	-4.10000e+01	
1.74422   	-1.79964e-01		         0.46667	-4.10000e+01	
1.75034   	-4.23567e-02		         0.46833	-4.00000e+01	
1.75647   	1.45691e-02		         0.47000	-4.00000e+01	
1.76305   	2.39018e-02		         0.47167	-3.90000e+01	
1.76898   	-1.70420e-02		         0.47333	-3.90000e+01	
1.77510   	-8.35508e-02		         0.47500	-3.80000e+01	
1.78122   	-1.45937e-01		         0.47667	-3.70000e+01	
1.78761   	-1.72851e-01		         0.47833	-3.70000e+01	
1.79374   	-1.64462e-01		         0.48000	-3.60000e+01	
1.79986   	-1.31526e-01		         0.48167	-3.60000e+01	
1.80598   	-8.90066e-02		         0.48333	-3.50000e+01	
1.81237   	-4.44274e-02		         0.48500	-3.40000e+01	
1.81849   	1.21287e-03		         0.48667	-3.30000e+01	
1.82462   	4.41125e-02		         0.48833	-3.20000e+01	
1.83073   	8.18032e-02		         0.49000	-3.10000e+01	
1.83713   	1.07550e-01		         0.49167	-3.00000e+01	
1.84325   	1.24028e-01		         0.49333	-2.90000e+01	
1.84937   	1.05490e-01		         0.49500	-2.80000e+01	
1.85550   	6.01761e-02		         0.49667	-2.80000e+01	
1.86188   	2.91795e-03		         0.49833	-2.70000e+01	
1.86801   	-4.78887e-02		         0.50000	-2.60000e+01	
1.87413   	-9.86953e-02		         0.50167	-2.50000e+01	
1.88025   	-1.34054e-01		         0.50333	-2.40000e+01	
1.88664   	-1.52248e-01		         0.50500	-2.40000e+01	
1.89276   	-1.56024e-01		         0.50667	-2.30000e+01	
1.89889   	-1.57054e-01		         0.50833	-2.30000e+01	
1.90501   	-1.55332e-01		         0.51000	-2.20000e+01	
1.91140   	-1.52583e-01		         0.51167	-2.20000e+01	
1.91752   	-1.54074e-01		         0.51333	-2.20000e+01	
1.92365   	-1.53412e-01		         0.51500	-2.10000e+01	
1.92976   	-1.57211e-01		         0.51667	-2.10000e+01	
1.93616   	-1.59277e-01		         0.51833	-2.10000e+01	
1.94228   	-1.62026e-01		         0.52000	-2.10000e+01	
1.94840   	-1.61908e-01		         0.52167	-2.00000e+01	
1.95452   	-1.63944e-01		         0.52333	-2.00000e+01	
1.96091   	-1.63920e-01		         0.52500	-1.90000e+01	
1.96704   	-1.60487e-01		         0.52667	-1.90000e+01	
1.97316   	-1.48448e-01		         0.52833	-1.80000e+01	
1.97928   	-1.41240e-01		         0.53000	-1.70000e+01	
1.98567   	-1.50936e-01		         0.53167	-1.70000e+01	
1.99180   	-1.84550e-01		         0.53333	-1.60000e+01	
1.99791   	-2.90621e-01		         0.53500	-1.60000e+01	
2.00404   	-5.78666e-01		         0.53667	-1.50000e+01	
2.01043   	-1.13618e+00		         0.53833	-1.50000e+01	
2.01655   	-1.97623e+00		         0.54000	-1.40000e+01	
2.02267   	-3.10801e+00		         0.54167	-1.40000e+01	
2.02879   	-4.34951e+00		         0.54333	-1.40000e+01	
2.03519   	-5.48382e+00		         0.54500	-1.30000e+01	
2.04131   	-6.32139e+00		         0.54667	-1.30000e+01	
2.04743   	-6.84300e+00		         0.54833	-1.40000e+01	
2.05355   	-6.97819e+00		         0.55000	-1.40000e+01	
2.05994   	-6.79203e+00		         0.55167	-1.40000e+01	
2.06606   	-6.29464e+00		         0.55333	-1.40000e+01	
2.07219   	-5.63475e+00		         0.55500	-1.40000e+01	
2.07858   	-4.84080e+00		         0.55667	-1.40000e+01	
2.08470   	-4.00289e+00		         0.55833	-1.40000e+01	
2.09082   	-3.23883e+00		         0.56000	-1.40000e+01	
2.09694   	-2.55646e+00		         0.56167	-1.40000e+01	
2.10307   	-1.96585e+00		         0.56333	-1.30000e+01	
2.10946   	-1.45982e+00		         0.56500	-1.30000e+01	
2.11558   	-1.08817e+00		         0.56667	-1.30000e+01	
2.12170   	-7.01838e-01		         0.56833	-1.30000e+01	
2.12782   	-2.63420e-01		         0.57000	-1.30000e+01	
2.13422   	3.38224e-01		         0.57167	-1.30000e+01	
2.14034   	1.08772e+00		         0.57333	-1.40000e+01	
2.14646   	1.92688e+00		         0.57500	-1.40000e+01	
2.15258   	2.57339e+00		         0.57667	-1.50000e+01	
2.15897   	2.97322e+00		         0.57833	-1.50000e+01	
2.16509   	2.95894e+00		         0.58000	-1.60000e+01	
2.17122   	2.71436e+00		         0.58167	-1.70000e+01	
2.17734   	2.43519e+00		         0.58333	-1.70000e+01	
2.18373   	2.45887e+00		         0.58500	-1.80000e+01	
2.18985   	2.73435e+00		         0.58667	-1.80000e+01	
2.19597   	3.28949e+00		         0.58833	-1.80000e+01	
2.20210   	4.00598e+00		         0.59000	-1.90000e+01	
2.20849   	4.76117e+00		         0.59167	-1.90000e+01	
2.21461   	5.39685e+00		         0.59333	-1.90000e+01	
2.22073   	5.76868e+00		         0.59500	-1.80000e+01	
2.22685   	5.98463e+00		         0.59667	-1.80000e+01	
2.23325   	6.04400e+00		         0.59833	-1.80000e+01	
2.23937   	6.00619e+00		         0.60000	-1.80000e+01	
2.24549   	5.86176e+00		         0.60167	-1.70000e+01	
2.25161   	5.72711e+00		         0.60333	-1.70000e+01	
2.25800   	5.56431e+00		         0.60500	-1.60000e+01	
2.26412   	5.37004e+00		         0.60667	-1.60000e+01	
2.27025   	5.17701e+00		         0.60833	-1.60000e+01	
2.27637   	4.98125e+00		         0.61000	-1.50000e+01	
2.28276   	4.85725e+00		         0.61167	-1.50000e+01	
2.28888   	4.65202e+00		         0.61333	-1.50000e+01	
2.29500   	4.50736e+00		         0.61500	-1.50000e+01	
2.30113   	4.38614e+00		         0.61667	-1.50000e+01	
2.30752   	4.28999e+00		         0.61833	-1.40000e+01	
2.31364   	4.17417e+00		         0.62000	-1.40000e+01	
2.31976   	4.15015e+00		         0.62167	-1.40000e+01	
2.32588   	4.08311e+00		         0.62333	-1.30000e+01	
2.33228   	3.99512e+00		         0.62500	-1.30000e+01	
2.33840   	3.84188e+00		         0.62667	-1.20000e+01	
2.34452   	3.63556e+00		         0.62833	-1.20000e+01	
2.35064   	3.57891e+00		         0.63000	-1.10000e+01	
2.35703   	3.52718e+00		         0.63167	-1.10000e+01	
2.36315   	3.49114e+00		         0.63333	-1.10000e+01	
2.36927   	3.57421e+00		         0.63500	-1.00000e+01	
2.37540   	3.64384e+00		         0.63667	-1.00000e+01	
2.38179   	3.52178e+00		         0.63833	-1.00000e+01	
2.38791   	3.40765e+00		         0.64000	-1.00000e+01	
2.39403   	3.32312e+00		         0.64167	-9.00000e+00	
2.40015   	3.16046e+00		         0.64333	-1.00000e+01	
2.40655   	2.98724e+00		         0.64500	-1.00000e+01	
2.41267   	2.85087e+00		         0.64667	-1.00000e+01	
2.41879   	2.75411e+00		         0.64833	-1.00000e+01	
2.42491   	2.60060e+00		         0.65000	-1.00000e+01	
2.43130   	2.43455e+00		         0.65167	-1.00000e+01	
2.43743   	2.30359e+00		         0.65333	-1.10000e+01	
2.44376   	2.19065e+00		         0.65500	-1.10000e+01	
2.44967   	2.02224e+00		         0.65667	-1.10000e+01	
2.45606   	1.86167e+00		         0.65833	-1.20000e+01	
2.46218   	1.75297e+00		         0.66000	-1.20000e+01	
2.46830   	1.63568e+00		         0.66167	-1.30000e+01	
2.47443   	1.48531e+00		         0.66333	-1.30000e+01	
2.48082   	1.32226e+00		         0.66500	-1.30000e+01	
2.48694   	1.18776e+00		         0.66667	-1.40000e+01	
2.49306   	9.66718e-01		         0.66833	-1.40000e+01	
2.49919   	7.35863e-01		         0.67000	-1.40000e+01	
2.50558   	4.89091e-01		         0.67167	-1.40000e+01	
2.51170   	2.73355e-01		         0.67333	-1.40000e+01	
2.51782   	-2.26261e-01		         0.67500	-1.40000e+01	
2.52394   	-6.80195e-01		         0.67667	-1.30000e+01	
2.53034   	-1.00822e+00		         0.67833	-1.30000e+01	
2.53646   	-1.39954e+00		         0.68000	-1.20000e+01	
2.54258   	-1.59835e+00		         0.68167	-1.10000e+01	
2.54870   	-1.49036e+00		         0.68333	-1.10000e+01	
2.55509   	-1.30464e+00		         0.68500	-1.00000e+01	
2.56121   	-1.21004e+00		         0.68667	-9.00000e+00	
2.56733   	-9.40869e-01		         0.68833	-8.00000e+00	
2.57346   	-1.00964e+00		         0.69000	-8.00000e+00	
2.57985   	-1.13678e+00		         0.69167	-7.00000e+00	
2.58597   	-1.26873e+00		         0.69333	-7.00000e+00	
2.59209   	-1.52964e+00		         0.69500	-6.00000e+00	
2.59821   	-1.84730e+00		         0.69667	-6.00000e+00	
2.60461   	-2.02717e+00		         0.69833	-6.00000e+00	
2.61073   	-2.35182e+00		         0.70000	-6.00000e+00	
2.61685   	-2.86401e+00		         0.70167	-6.00000e+00	
2.62297   	-3.36704e+00		         0.70333	-6.00000e+00	
2.62936   	-3.97291e+00		         0.70500	-6.00000e+00	
2.63548   	-4.58147e+00		         0.70667	-6.00000e+00	
2.64160   	-5.12592e+00		         0.70833	-6.00000e+00	
2.64773   	-5.51470e+00		         0.71000	-6.00000e+00	
2.65412   	-5.75276e+00		         0.71167	-6.00000e+00	
2.66024   	-5.78419e+00		         0.71333	-6.00000e+00	
2.66636   	-5.71582e+00		         0.71500	-6.00000e+00	
2.67248   	-5.42679e+00		         0.71667	-6.00000e+00	
2.67888   	-5.08265e+00		         0.71833	-6.00000e+00	
2.68500   	-4.67691e+00		         0.72000	-6.00000e+00	
2.69112   	-4.33484e+00		         0.72167	-6.00000e+00	
2.69725   	-3.99010e+00		         0.72333	-6.00000e+00	
2.70363   	-3.64699e+00		         0.72500	-5.00000e+00	
2.70975   	-3.32697e+00		         0.72667	-5.00000e+00	
2.71588   	-3.07114e+00		         0.72833	-5.00000e+00	
2.72200   	-2.77097e+00		         0.73000	-4.00000e+00	
2.72839   	-2.50526e+00		         0.73167	-4.00000e+00	
2.73451   	-2.34521e+00		         0.73333	-3.00000e+00	
2.74063   	-2.14632e+00		         0.73500	-3.00000e+00	
2.74676   	-1.87832e+00		         0.73667	-3.00000e+00	
2.75315   	-1.58533e+00		         0.73833	-3.00000e+00	
2.75927   	-1.29541e+00		         0.74000	-3.00000e+00	
2.76539   	-9.32346e-01		         0.74167	-4.00000e+00	
2.77151   	-6.24716e-01		         0.74333	-4.00000e+00	
2.77791   	-3.85498e-01		         0.74500	-4.00000e+00	
2.78403   	-2.28847e-01		         0.74667	-5.00000e+00	
2.79015   	-1.19741e-01		         0.74833	-5.00000e+00	
2.79627   	-1.01955e-01		         0.75000	-5.00000e+00	
2.80266   	-9.90411e-02		         0.75167	-5.00000e+00	
2.80899   	-1.11002e-01		         0.75333	-5.00000e+00	
2.81491   	-1.17237e-01		         0.75500	-5.00000e+00	
2.82103   	-1.35464e-01		         0.75667	-5.00000e+00	
2.82742   	-1.46481e-01		         0.75833	-5.00000e+00	
2.83354   	-1.60163e-01		         0.76000	-5.00000e+00	
2.83966   	-1.76134e-01		         0.76167	-5.00000e+00	
2.84579   	-1.85099e-01		         0.76333	-5.00000e+00	
2.85218   	-1.67605e-01		         0.76500	-5.00000e+00	
2.85830   	-1.24740e-01		         0.76667	-5.00000e+00	
2.86442   	-7.60255e-02		         0.76833	-5.00000e+00	
2.87055   	-2.76347e-02		         0.77000	-5.00000e+00	
2.87693   	1.45897e-02		         0.77167	-5.00000e+00	
2.88306   	4.52134e-02		         0.77333	-5.00000e+00	
2.88918   	5.24224e-02		         0.77500	-5.00000e+00	
2.89530   	3.76610e-02		         0.77667	-5.00000e+00	
2.90169   	1.43174e-02		         0.77833	-5.00000e+00	
2.90781   	-1.93248e-02		         0.78000	-6.00000e+00	
2.91394   	-6.40232e-02		         0.78167	-6.00000e+00	
2.92006   	-1.03158e-01		         0.78333	-6.00000e+00	
2.92644   	-1.29932e-01		         0.78500	-6.00000e+00	
2.93257   	-1.45036e-01		         0.78667	-6.00000e+00	
2.93869   	-1.50186e-01		         0.78833	-6.00000e+00	
2.94481   	-1.44007e-01		         0.79000	-6.00000e+00	
2.95121   	-1.34051e-01		         0.79167	-6.00000e+00	
2.95733   	-1.33024e-01		         0.79333	-6.00000e+00	
2.96345   	-1.39203e-01		         0.79500	-6.00000e+00	
2.96957   	-1.47777e-01		         0.79667	-5.00000e+00	
2.97596   	-1.54655e-01		         0.79833	-5.00000e+00	
2.98209   	-1.64610e-01		         0.80000	-5.00000e+00	
2.98821   	-1.64953e-01		         0.80167	-5.00000e+00	
2.99433   	-1.65640e-01		         0.80333	-5.00000e+00	
3.00072   	-1.63932e-01		         0.80500	-5.00000e+00	
3.00684   	-1.63920e-01		         0.80667	-5.00000e+00	
3.01296   	-1.63920e-01		         0.80833	-5.00000e+00	
3.01909   	-1.63920e-01		         0.81000	-5.00000e+00	
3.02548   	-1.59435e-01		         0.81167	-5.00000e+00	
3.03160   	-1.67920e-01		         0.81333	-6.00000e+00	
3.03772   	-1.69846e-01		         0.81500	-6.00000e+00	
3.04384   	-2.00898e-01		         0.81667	-6.00000e+00	
3.05024   	-2.91979e-01		         0.81833	-7.00000e+00	
3.05636   	-5.24399e-01		         0.82000	-7.00000e+00	
3.06248   	-1.01830e+00		         0.82167	-7.00000e+00	
3.06860   	-1.81926e+00		         0.82333	-7.00000e+00	
3.07499   	-2.92210e+00		         0.82500	-7.00000e+00	
3.08112   	-4.14855e+00		         0.82667	-7.00000e+00	
3.08724   	-5.36421e+00		         0.82833	-7.00000e+00	
3.09336   	-6.29054e+00		         0.83000	-7.00000e+00	
3.09975   	-6.89570e+00		         0.83167	-7.00000e+00	
3.10587   	-7.06772e+00		         0.83333	-7.00000e+00	
3.11200   	-6.93813e+00		         0.83500	-7.00000e+00	
3.11812   	-6.41251e+00		         0.83667	-6.00000e+00	
3.12456   	-5.72814e+00		         0.83833	-6.00000e+00	
3.13063   	-4.90777e+00		         0.84000	-6.00000e+00	
3.13675   	-4.09161e+00		         0.84167	-5.00000e+00	
3.14287   	-3.26099e+00		         0.84333	-5.00000e+00	
3.14927   	-2.59298e+00		         0.84500	-4.00000e+00	
3.15539   	-1.98511e+00		         0.84667	-4.00000e+00	
3.16151   	-1.47834e+00		         0.84833	-3.00000e+00	
3.16763   	-1.05319e+00		         0.85000	-3.00000e+00	
3.17436   	-6.86998e-01		         0.85167	-2.00000e+00	
3.18014   	-3.07960e-01		         0.85333	-2.00000e+00	
3.18627   	2.64075e-01		         0.85500	-2.00000e+00	
3.19239   	1.10066e+00		         0.85667	-2.00000e+00	
3.19878   	1.49755e+00		         0.85833	-2.00000e+00	
3.20490   	2.03658e+00		         0.86000	-2.00000e+00	
			         0.86167	-2.00000e+00	
			         0.86333	-2.00000e+00	
			         0.86500	-3.00000e+00	
			         0.86667	-3.00000e+00	
			         0.86833	-3.00000e+00	
			         0.87000	-3.00000e+00	
			         0.87167	-4.00000e+00	
			         0.87333	-4.00000e+00	
			         0.87500	-4.00000e+00	
			         0.87667	-5.00000e+00	
			         0.87833	-5.00000e+00	
			         0.88000	-5.00000e+00	
			         0.88167	-5.00000e+00	
			         0.88333	-5.00000e+00	
			         0.88500	-5.00000e+00	
			         0.88667	-4.00000e+00	
			         0.88833	-4.00000e+00	
			         0.89000	-3.00000e+00	
			         0.89167	-1.00000e+00	
			         0.89333	0.00000e+00	
			         0.89500	2.00000e+00	
			         0.89667	4.00000e+00	
			         0.89833	7.00000e+00	
			         0.90000	1.00000e+01	
			         0.90167	1.30000e+01	
			         0.90333	1.60000e+01	
			         0.90500	1.90000e+01	
			         0.90667	2.20000e+01	
			         0.90833	2.60000e+01	
			         0.91000	2.90000e+01	
			         0.91167	3.20000e+01	
			         0.91333	3.40000e+01	
			         0.91500	3.70000e+01	
			         0.91667	3.90000e+01	
			         0.91833	4.10000e+01	
			         0.92000	4.20000e+01	
			         0.92167	4.40000e+01	
			         0.92333	4.50000e+01	
			         0.92500	4.60000e+01	
			         0.92667	4.70000e+01	
			         0.92833	4.70000e+01	
			         0.93000	4.80000e+01	
			         0.93167	4.80000e+01	
			         0.93333	4.90000e+01	
			         0.93500	4.90000e+01	
			         0.93667	4.90000e+01	
			         0.93833	4.90000e+01	
			         0.94000	4.90000e+01	
			         0.94167	4.90000e+01	
			         0.94333	4.90000e+01	
			         0.94500	4.90000e+01	
			         0.94667	4.90000e+01	
			         0.94833	4.90000e+01	
			         0.95000	4.80000e+01	
			         0.95167	4.60000e+01	
			         0.95333	4.40000e+01	
			         0.95500	4.10000e+01	
			         0.95667	3.70000e+01	
			         0.95833	3.20000e+01	
			         0.96000	2.70000e+01	
			         0.96167	2.00000e+01	
			         0.96333	1.30000e+01	
			         0.96500	5.00000e+00	
			         0.96667	-3.00000e+00	
			         0.96833	-1.20000e+01	
			         0.97000	-2.00000e+01	
			         0.97167	-2.80000e+01	
			         0.97333	-3.50000e+01	
			         0.97500	-4.10000e+01	
			         0.97667	-4.60000e+01	
			         0.97833	-5.00000e+01	
			         0.98000	-5.40000e+01	
			         0.98167	-5.60000e+01	
			         0.98333	-5.80000e+01	
			         0.98500	-6.00000e+01	
			         0.98667	-6.10000e+01	
			         0.98833	-6.10000e+01	
			         0.99000	-6.20000e+01	
			         0.99167	-6.20000e+01	
			         0.99333	-6.30000e+01	
			         0.99500	-6.30000e+01	
			         0.99667	-6.30000e+01	
			         0.99833	-6.40000e+01	
			         1.00000	-6.40000e+01	
			         1.00167	-6.40000e+01	
			         1.00333	-6.40000e+01	
			         1.00500	-6.40000e+01	
			         1.00667	-6.30000e+01	
			         1.00833	-6.30000e+01	
			         1.01000	-6.20000e+01	
			         1.01167	-6.00000e+01	
			         1.01333	-5.90000e+01	
			         1.01500	-5.80000e+01	
			         1.01667	-5.60000e+01	
			         1.01833	-5.40000e+01	
			         1.02000	-5.30000e+01	
			         1.02167	-5.10000e+01	
			         1.02333	-4.90000e+01	
			         1.02500	-4.80000e+01	
			         1.02667	-4.60000e+01	
			         1.02833	-4.40000e+01	
			         1.03000	-4.30000e+01	
			         1.03167	-4.10000e+01	
			         1.03333	-4.00000e+01	
			         1.03500	-3.80000e+01	
			         1.03667	-3.70000e+01	
			         1.03833	-3.60000e+01	
			         1.04000	-3.50000e+01	
			         1.04167	-3.40000e+01	
			         1.04333	-3.30000e+01	
			         1.04500	-3.20000e+01	
			         1.04667	-3.10000e+01	
			         1.04833	-3.10000e+01	
			         1.05000	-3.00000e+01	
			         1.05167	-2.80000e+01	
			         1.05333	-2.70000e+01	
			         1.05500	-2.40000e+01	
			         1.05667	-2.10000e+01	
			         1.05833	-1.60000e+01	
			         1.06000	-8.00000e+00	
			         1.06167	1.00000e+00	
			         1.06333	1.20000e+01	
			         1.06500	2.50000e+01	
			         1.06667	4.00000e+01	
			         1.06833	5.60000e+01	
			         1.07000	7.30000e+01	
			         1.07167	9.10000e+01	
			         1.07333	1.10000e+02	
			         1.07500	1.29000e+02	
			         1.07667	1.48000e+02	
			         1.07833	1.67000e+02	
			         1.08000	1.84000e+02	
			         1.08167	1.98000e+02	
			         1.08333	2.09000e+02	
			         1.08500	2.16000e+02	
			         1.08667	2.17000e+02	
			         1.08833	2.13000e+02	
			         1.09000	2.03000e+02	
			         1.09167	1.86000e+02	
			         1.09333	1.64000e+02	
			         1.09500	1.36000e+02	
			         1.09667	1.03000e+02	
			         1.09833	6.50000e+01	
			         1.10000	2.40000e+01	
			         1.10167	-1.80000e+01	
			         1.10333	-6.10000e+01	
			         1.10500	-1.01000e+02	
			         1.10667	-1.38000e+02	
			         1.10833	-1.70000e+02	
			         1.11000	-1.96000e+02	
			         1.11167	-2.16000e+02	
			         1.11333	-2.30000e+02	
			         1.11500	-2.36000e+02	
			         1.11667	-2.37000e+02	
			         1.11833	-2.32000e+02	
			         1.12000	-2.22000e+02	
			         1.12167	-2.09000e+02	
			         1.12333	-1.93000e+02	
			         1.12500	-1.75000e+02	
			         1.12667	-1.56000e+02	
			         1.12833	-1.37000e+02	
			         1.13000	-1.19000e+02	
			         1.13167	-1.02000e+02	
			         1.13333	-8.70000e+01	
			         1.13500	-7.30000e+01	
			         1.13667	-6.10000e+01	
			         1.13833	-5.20000e+01	
			         1.14000	-4.40000e+01	
			         1.14167	-3.70000e+01	
			         1.14333	-3.20000e+01	
			         1.14500	-2.80000e+01	
			         1.14667	-2.50000e+01	
			         1.14833	-2.30000e+01	
			         1.15000	-2.20000e+01	
			         1.15167	-2.10000e+01	
			         1.15333	-2.00000e+01	
			         1.15500	-1.90000e+01	
			         1.15667	-1.90000e+01	
			         1.15833	-1.80000e+01	
			         1.16000	-1.80000e+01	
			         1.16167	-1.70000e+01	
			         1.16333	-1.70000e+01	
			         1.16500	-1.60000e+01	
			         1.16667	-1.60000e+01	
			         1.16833	-1.50000e+01	
			         1.17000	-1.40000e+01	
			         1.17167	-1.30000e+01	
			         1.17333	-1.30000e+01	
			         1.17500	-1.20000e+01	
			         1.17667	-1.10000e+01	
			         1.17833	-1.10000e+01	
			         1.18000	-1.00000e+01	
			         1.18167	-1.00000e+01	
			         1.18333	-1.00000e+01	
			         1.18500	-9.00000e+00	
			         1.18667	-9.00000e+00	
			         1.18833	-9.00000e+00	
			         1.19000	-9.00000e+00	
			         1.19167	-8.00000e+00	
			         1.19333	-8.00000e+00	
			         1.19500	-8.00000e+00	
			         1.19667	-8.00000e+00	
			         1.19833	-8.00000e+00	
			         1.20000	-8.00000e+00	
			         1.20167	-7.00000e+00	
			         1.20333	-7.00000e+00	
			         1.20500	-7.00000e+00	
			         1.20667	-6.00000e+00	
			         1.20833	-6.00000e+00	
			         1.21000	-5.00000e+00	
			         1.21167	-5.00000e+00	
			         1.21333	-5.00000e+00	
			         1.21500	-4.00000e+00	
			         1.21667	-4.00000e+00	
			         1.21833	-4.00000e+00	
			         1.22000	-3.00000e+00	
			         1.22167	-3.00000e+00	
			         1.22333	-2.00000e+00	
			         1.22500	-2.00000e+00	
			         1.22667	-2.00000e+00	
			         1.22833	-2.00000e+00	
			         1.23000	-1.00000e+00	
			         1.23167	-1.00000e+00	
			         1.23333	-1.00000e+00	
			         1.23500	-1.00000e+00	
			         1.23667	-1.00000e+00	
			         1.23833	-1.00000e+00	
			         1.24000	-1.00000e+00	
			         1.24167	-1.00000e+00	
			         1.24333	-1.00000e+00	
			         1.24500	0.00000e+00	
			         1.24667	0.00000e+00	
			         1.24833	1.00000e+00	
			         1.25000	2.00000e+00	
			         1.25167	2.00000e+00	
			         1.25333	3.00000e+00	
			         1.25500	4.00000e+00	
			         1.25667	5.00000e+00	
			         1.25833	6.00000e+00	
			         1.26000	7.00000e+00	
			         1.26167	8.00000e+00	
			         1.26333	8.00000e+00	
			         1.26500	9.00000e+00	
			         1.26667	1.00000e+01	
			         1.26833	1.00000e+01	
			         1.27000	1.10000e+01	
			         1.27167	1.20000e+01	
			         1.27333	1.20000e+01	
			         1.27500	1.20000e+01	
			         1.27667	1.30000e+01	
			         1.27833	1.30000e+01	
			         1.28000	1.40000e+01	
			         1.28167	1.50000e+01	
			         1.28333	1.50000e+01	
			         1.28500	1.60000e+01	
			         1.28667	1.70000e+01	
			         1.28833	1.80000e+01	
			         1.29000	1.90000e+01	
			         1.29167	2.10000e+01	
			         1.29333	2.20000e+01	
			         1.29500	2.30000e+01	
			         1.29667	2.40000e+01	
			         1.29833	2.60000e+01	
			         1.30000	2.70000e+01	
			         1.30167	2.80000e+01	
			         1.30333	2.90000e+01	
			         1.30500	3.00000e+01	
			         1.30667	3.10000e+01	
			         1.30833	3.20000e+01	
			         1.31000	3.30000e+01	
			         1.31167	3.40000e+01	
			         1.31333	3.50000e+01	
			         1.31500	3.60000e+01	
			         1.31667	3.70000e+01	
			         1.31833	3.90000e+01	
			         1.32000	4.00000e+01	
			         1.32167	4.10000e+01	
			         1.32333	4.20000e+01	
			         1.32500	4.40000e+01	
			         1.32667	4.50000e+01	
			         1.32833	4.60000e+01	
			         1.33000	4.80000e+01	
			         1.33167	4.90000e+01	
			         1.33333	5.10000e+01	
			         1.33500	5.20000e+01	
			         1.33667	5.40000e+01	
			         1.33833	5.60000e+01	
			         1.34000	5.80000e+01	
			         1.34167	6.00000e+01	
			         1.34333	6.20000e+01	
			         1.34500	6.50000e+01	
			         1.34667	6.70000e+01	
			         1.34833	6.90000e+01	
			         1.35000	7.10000e+01	
			         1.35167	7.30000e+01	
			         1.35333	7.60000e+01	
			         1.35500	7.80000e+01	
			         1.35667	8.00000e+01	
			         1.35833	8.20000e+01	
			         1.36000	8.40000e+01	
			         1.36167	8.50000e+01	
			         1.36333	8.70000e+01	
			         1.36500	8.80000e+01	
			         1.36667	9.00000e+01	
			         1.36833	9.10000e+01	
			         1.37000	9.10000e+01	
			         1.37167	9.20000e+01	
			         1.37333	9.20000e+01	
			         1.37500	9.20000e+01	
			         1.37667	9.20000e+01	
			         1.37833	9.10000e+01	
			         1.38000	9.10000e+01	
			         1.38167	9.00000e+01	
			         1.38333	8.80000e+01	
			         1.38500	8.70000e+01	
			         1.38667	8.60000e+01	
			         1.38833	8.40000e+01	
			         1.39000	8.20000e+01	
			         1.39167	8.10000e+01	
			         1.39333	7.90000e+01	
			         1.39500	7.70000e+01	
			         1.39667	7.50000e+01	
			         1.39833	7.30000e+01	
			         1.40000	7.00000e+01	
			         1.40167	6.70000e+01	
			         1.40333	6.40000e+01	
			         1.40500	6.10000e+01	
			         1.40667	5.80000e+01	
			         1.40833	5.40000e+01	
			         1.41000	5.00000e+01	
			         1.41167	4.60000e+01	
			         1.41333	4.10000e+01	
			         1.41500	3.60000e+01	
			         1.41667	3.10000e+01	
			         1.41833	2.60000e+01	
			         1.42000	2.00000e+01	
			         1.42167	1.50000e+01	
			         1.42333	1.00000e+01	
			         1.42500	4.00000e+00	
			         1.42667	-1.00000e+00	
			         1.42833	-6.00000e+00	
			         1.43000	-1.10000e+01	
			         1.43167	-1.60000e+01	
			         1.43333	-2.00000e+01	
			         1.43500	-2.40000e+01	
			         1.43667	-2.80000e+01	
			         1.43833	-3.10000e+01	
			         1.44000	-3.50000e+01	
			         1.44167	-3.70000e+01	
			         1.44333	-4.00000e+01	
			         1.44500	-4.20000e+01	
			         1.44667	-4.40000e+01	
			         1.44833	-4.60000e+01	
			         1.45000	-4.80000e+01	
			         1.45167	-4.90000e+01	
			         1.45333	-5.00000e+01	
			         1.45500	-5.20000e+01	
			         1.45667	-5.30000e+01	
			         1.45833	-5.40000e+01	
			         1.46000	-5.50000e+01	
			         1.46167	-5.50000e+01	
			         1.46333	-5.60000e+01	
			         1.46500	-5.60000e+01	
			         1.46667	-5.60000e+01	
			         1.46833	-5.60000e+01	
			         1.47000	-5.50000e+01	
			         1.47167	-5.50000e+01	
			         1.47333	-5.40000e+01	
			         1.47500	-5.30000e+01	
			         1.47667	-5.20000e+01	
			         1.47833	-5.20000e+01	
			         1.48000	-5.10000e+01	
			         1.48167	-5.00000e+01	
			         1.48333	-5.00000e+01	
			         1.48500	-4.90000e+01	
			         1.48667	-4.90000e+01	
			         1.48833	-4.90000e+01	
			         1.49000	-4.80000e+01	
			         1.49167	-4.80000e+01	
			         1.49333	-4.80000e+01	
			         1.49500	-4.80000e+01	
			         1.49667	-4.70000e+01	
			         1.49833	-4.70000e+01	
			         1.50000	-4.60000e+01	
			         1.50167	-4.50000e+01	
			         1.50333	-4.40000e+01	
			         1.50500	-4.20000e+01	
			         1.50667	-4.10000e+01	
			         1.50833	-4.00000e+01	
			         1.51000	-3.80000e+01	
			         1.51167	-3.70000e+01	
			         1.51333	-3.60000e+01	
			         1.51500	-3.40000e+01	
			         1.51667	-3.30000e+01	
			         1.51833	-3.20000e+01	
			         1.52000	-3.10000e+01	
			         1.52167	-3.00000e+01	
			         1.52333	-2.90000e+01	
			         1.52500	-2.80000e+01	
			         1.52667	-2.80000e+01	
			         1.52833	-2.70000e+01	
			         1.53000	-2.60000e+01	
			         1.53167	-2.60000e+01	
			         1.53333	-2.60000e+01	
			         1.53500	-2.60000e+01	
			         1.53667	-2.60000e+01	
			         1.53833	-2.60000e+01	
			         1.54000	-2.60000e+01	
			         1.54167	-2.60000e+01	
			         1.54333	-2.50000e+01	
			         1.54500	-2.50000e+01	
			         1.54667	-2.50000e+01	
			         1.54833	-2.50000e+01	
			         1.55000	-2.50000e+01	
			         1.55167	-2.50000e+01	
			         1.55333	-2.50000e+01	
			         1.55500	-2.50000e+01	
			         1.55667	-2.50000e+01	
			         1.55833	-2.50000e+01	
			         1.56000	-2.50000e+01	
			         1.56167	-2.50000e+01	
			         1.56333	-2.40000e+01	
			         1.56500	-2.40000e+01	
			         1.56667	-2.40000e+01	
			         1.56833	-2.30000e+01	
			         1.57000	-2.30000e+01	
			         1.57167	-2.20000e+01	
			         1.57333	-2.10000e+01	
			         1.57500	-2.10000e+01	
			         1.57667	-2.00000e+01	
			         1.57833	-1.90000e+01	
			         1.58000	-1.80000e+01	
			         1.58167	-1.70000e+01	
			         1.58333	-1.60000e+01	
			         1.58500	-1.50000e+01	
			         1.58667	-1.30000e+01	
			         1.58833	-1.20000e+01	
			         1.59000	-1.10000e+01	
			         1.59167	-1.10000e+01	
			         1.59333	-1.00000e+01	
			         1.59500	-9.00000e+00	
			         1.59667	-8.00000e+00	
			         1.59833	-8.00000e+00	
			         1.60000	-7.00000e+00	
			         1.60167	-7.00000e+00	
			         1.60333	-7.00000e+00	
			         1.60500	-6.00000e+00	
			         1.60667	-6.00000e+00	
			         1.60833	-6.00000e+00	
			         1.61000	-5.00000e+00	
			         1.61167	-5.00000e+00	
			         1.61333	-5.00000e+00	
			         1.61500	-5.00000e+00	
			         1.61667	-4.00000e+00	
			         1.61833	-4.00000e+00	
			         1.62000	-4.00000e+00	
			         1.62167	-4.00000e+00	
			         1.62333	-4.00000e+00	
			         1.62500	-3.00000e+00	
			         1.62667	-3.00000e+00	
			         1.62833	-3.00000e+00	
			         1.63000	-2.00000e+00	
			         1.63167	-2.00000e+00	
			         1.63333	-2.00000e+00	
			         1.63500	-1.00000e+00	
			         1.63667	-1.00000e+00	
			         1.63833	-1.00000e+00	
			         1.64000	-1.00000e+00	
			         1.64167	-1.00000e+00	
			         1.64333	-1.00000e+00	
			         1.64500	-1.00000e+00	
			         1.64667	-1.00000e+00	
			         1.64833	-2.00000e+00	
			         1.65000	-2.00000e+00	
			         1.65167	-2.00000e+00	
			         1.65333	-3.00000e+00	
			         1.65500	-3.00000e+00	
			         1.65667	-3.00000e+00	
			         1.65833	-3.00000e+00	
			         1.66000	-3.00000e+00	
			         1.66167	-3.00000e+00	
			         1.66333	-3.00000e+00	
			         1.66500	-3.00000e+00	
			         1.66667	-3.00000e+00	
			         1.66833	-3.00000e+00	
			         1.67000	-2.00000e+00	
			         1.67167	-2.00000e+00	
			         1.67333	-2.00000e+00	
			         1.67500	-2.00000e+00	
			         1.67667	-1.00000e+00	
			         1.67833	-1.00000e+00	
			         1.68000	-1.00000e+00	
			         1.68167	-1.00000e+00	
			         1.68333	-1.00000e+00	
			         1.68500	-1.00000e+00	
			         1.68667	-1.00000e+00	
			         1.68833	-1.00000e+00	
			         1.69000	-1.00000e+00	
			         1.69167	-2.00000e+00	
			         1.69333	-2.00000e+00	
			         1.69500	-2.00000e+00	
			         1.69667	-2.00000e+00	
			         1.69833	-2.00000e+00	
			         1.70000	-2.00000e+00	
			         1.70167	-2.00000e+00	
			         1.70333	-2.00000e+00	
			         1.70500	-2.00000e+00	
			         1.70667	-2.00000e+00	
			         1.70833	-2.00000e+00	
			         1.71000	-2.00000e+00	
			         1.71167	-3.00000e+00	
			         1.71333	-3.00000e+00	
			         1.71500	-3.00000e+00	
			         1.71667	-3.00000e+00	
			         1.71833	-4.00000e+00	
			         1.72000	-4.00000e+00	
			         1.72167	-5.00000e+00	
			         1.72333	-5.00000e+00	
			         1.72500	-6.00000e+00	
			         1.72667	-6.00000e+00	
			         1.72833	-6.00000e+00	
			         1.73000	-6.00000e+00	
			         1.73167	-6.00000e+00	
			         1.73333	-6.00000e+00	
			         1.73500	-7.00000e+00	
			         1.73667	-7.00000e+00	
			         1.73833	-7.00000e+00	
			         1.74000	-7.00000e+00	
			         1.74167	-7.00000e+00	
			         1.74333	-7.00000e+00	
			         1.74500	-8.00000e+00	
			         1.74667	-8.00000e+00	
			         1.74833	-8.00000e+00	
			         1.75000	-9.00000e+00	
			         1.75167	-9.00000e+00	
			         1.75333	-1.00000e+01	
			         1.75500	-1.00000e+01	
			         1.75667	-1.10000e+01	
			         1.75833	-1.10000e+01	
			         1.76000	-1.10000e+01	
			         1.76167	-1.10000e+01	
			         1.76333	-1.10000e+01	
			         1.76500	-1.10000e+01	
			         1.76667	-1.10000e+01	
			         1.76833	-1.10000e+01	
			         1.77000	-1.00000e+01	
			         1.77167	-1.00000e+01	
			         1.77333	-1.00000e+01	
			         1.77500	-1.00000e+01	
			         1.77667	-9.00000e+00	
			         1.77833	-9.00000e+00	
			         1.78000	-9.00000e+00	
			         1.78167	-8.00000e+00	
			         1.78333	-8.00000e+00	
			         1.78500	-8.00000e+00	
			         1.78667	-8.00000e+00	
			         1.78833	-9.00000e+00	
			         1.79000	-9.00000e+00	
			         1.79167	-9.00000e+00	
			         1.79333	-1.00000e+01	
			         1.79500	-1.00000e+01	
			         1.79667	-1.10000e+01	
			         1.79833	-1.10000e+01	
			         1.80000	-1.20000e+01	
			         1.80167	-1.20000e+01	
			         1.80333	-1.30000e+01	
			         1.80500	-1.30000e+01	
			         1.80667	-1.30000e+01	
			         1.80833	-1.40000e+01	
			         1.81000	-1.40000e+01	
			         1.81167	-1.40000e+01	
			         1.81333	-1.40000e+01	
			         1.81500	-1.40000e+01	
			         1.81667	-1.40000e+01	
			         1.81833	-1.40000e+01	
			         1.82000	-1.40000e+01	
			         1.82167	-1.40000e+01	
			         1.82333	-1.30000e+01	
			         1.82500	-1.30000e+01	
			         1.82667	-1.30000e+01	
			         1.82833	-1.30000e+01	
			         1.83000	-1.30000e+01	
			         1.83167	-1.30000e+01	
			         1.83333	-1.30000e+01	
			         1.83500	-1.30000e+01	
			         1.83667	-1.30000e+01	
			         1.83833	-1.30000e+01	
			         1.84000	-1.30000e+01	
			         1.84167	-1.30000e+01	
			         1.84333	-1.40000e+01	
			         1.84500	-1.40000e+01	
			         1.84667	-1.40000e+01	
			         1.84833	-1.40000e+01	
			         1.85000	-1.50000e+01	
			         1.85167	-1.50000e+01	
			         1.85333	-1.50000e+01	
			         1.85500	-1.50000e+01	
			         1.85667	-1.60000e+01	
			         1.85833	-1.60000e+01	
			         1.86000	-1.60000e+01	
			         1.86167	-1.60000e+01	
			         1.86333	-1.60000e+01	
			         1.86500	-1.60000e+01	
			         1.86667	-1.60000e+01	
			         1.86833	-1.60000e+01	
			         1.87000	-1.60000e+01	
			         1.87167	-1.50000e+01	
			         1.87333	-1.50000e+01	
			         1.87500	-1.50000e+01	
			         1.87667	-1.40000e+01	
			         1.87833	-1.40000e+01	
			         1.88000	-1.30000e+01	
			         1.88167	-1.20000e+01	
			         1.88333	-1.20000e+01	
			         1.88500	-1.20000e+01	
			         1.88667	-1.10000e+01	
			         1.88833	-1.10000e+01	
			         1.89000	-1.00000e+01	
			         1.89167	-1.00000e+01	
			         1.89333	-1.00000e+01	
			         1.89500	-1.00000e+01	
			         1.89667	-1.00000e+01	
			         1.89833	-1.00000e+01	
			         1.90000	-1.10000e+01	
			         1.90167	-1.10000e+01	
			         1.90333	-1.10000e+01	
			         1.90500	-1.10000e+01	
			         1.90667	-1.10000e+01	
			         1.90833	-1.10000e+01	
			         1.91000	-1.20000e+01	
			         1.91167	-1.20000e+01	
			         1.91333	-1.20000e+01	
			         1.91500	-1.20000e+01	
			         1.91667	-1.20000e+01	
			         1.91833	-1.20000e+01	
			         1.92000	-1.10000e+01	
			         1.92167	-1.10000e+01	
			         1.92333	-1.10000e+01	
			         1.92500	-1.10000e+01	
			         1.92667	-1.00000e+01	
			         1.92833	-1.00000e+01	
			         1.93000	-9.00000e+00	
			         1.93167	-8.00000e+00	
			         1.93333	-7.00000e+00	
			         1.93500	-6.00000e+00	
			         1.93667	-4.00000e+00	
			         1.93833	-2.00000e+00	
			         1.94000	1.00000e+00	
			         1.94167	4.00000e+00	
			         1.94333	7.00000e+00	
			         1.94500	1.00000e+01	
			         1.94667	1.40000e+01	
			         1.94833	1.80000e+01	
			         1.95000	2.20000e+01	
			         1.95167	2.60000e+01	
			         1.95333	3.00000e+01	
			         1.95500	3.40000e+01	
			         1.95667	3.70000e+01	
			         1.95833	4.10000e+01	
			         1.96000	4.40000e+01	
			         1.96167	4.60000e+01	
			         1.96333	4.80000e+01	
			         1.96500	5.00000e+01	
			         1.96667	5.10000e+01	
			         1.96833	5.20000e+01	
			         1.97000	5.30000e+01	
			         1.97167	5.30000e+01	
			         1.97333	5.30000e+01	
			         1.97500	5.20000e+01	
			         1.97667	5.10000e+01	
			         1.97833	5.10000e+01	
			         1.98000	5.00000e+01	
			         1.98167	5.00000e+01	
			         1.98333	4.90000e+01	
			         1.98500	4.90000e+01	
			         1.98667	4.80000e+01	
			         1.98833	4.80000e+01	
			         1.99000	4.70000e+01	
			         1.99167	4.60000e+01	
			         1.99333	4.40000e+01	
			         1.99500	4.10000e+01	
			         1.99667	3.70000e+01	
			         1.99833	3.30000e+01	
			         2.00000	2.70000e+01	
			         2.00167	2.10000e+01	
			         2.00333	1.40000e+01	
			         2.00500	6.00000e+00	
			         2.00667	-2.00000e+00	
			         2.00833	-1.10000e+01	
			         2.01000	-1.90000e+01	
			         2.01167	-2.70000e+01	
			         2.01333	-3.40000e+01	
			         2.01500	-4.10000e+01	
			         2.01667	-4.60000e+01	
			         2.01833	-5.10000e+01	
			         2.02000	-5.50000e+01	
			         2.02167	-5.80000e+01	
			         2.02333	-6.00000e+01	
			         2.02500	-6.10000e+01	
			         2.02667	-6.20000e+01	
			         2.02833	-6.30000e+01	
			         2.03000	-6.30000e+01	
			         2.03167	-6.20000e+01	
			         2.03333	-6.20000e+01	
			         2.03500	-6.10000e+01	
			         2.03667	-6.10000e+01	
			         2.03833	-6.00000e+01	
			         2.04000	-6.00000e+01	
			         2.04167	-5.90000e+01	
			         2.04333	-5.80000e+01	
			         2.04500	-5.80000e+01	
			         2.04667	-5.70000e+01	
			         2.04833	-5.60000e+01	
			         2.05000	-5.50000e+01	
			         2.05167	-5.40000e+01	
			         2.05333	-5.30000e+01	
			         2.05500	-5.20000e+01	
			         2.05667	-5.20000e+01	
			         2.05833	-5.10000e+01	
			         2.06000	-5.00000e+01	
			         2.06167	-4.90000e+01	
			         2.06333	-4.80000e+01	
			         2.06500	-4.70000e+01	
			         2.06667	-4.70000e+01	
			         2.06833	-4.60000e+01	
			         2.07000	-4.50000e+01	
			         2.07167	-4.40000e+01	
			         2.07333	-4.40000e+01	
			         2.07500	-4.30000e+01	
			         2.07667	-4.20000e+01	
			         2.07833	-4.10000e+01	
			         2.08000	-3.90000e+01	
			         2.08167	-3.80000e+01	
			         2.08333	-3.60000e+01	
			         2.08500	-3.50000e+01	
			         2.08667	-3.30000e+01	
			         2.08833	-3.10000e+01	
			         2.09000	-3.00000e+01	
			         2.09167	-2.80000e+01	
			         2.09333	-2.60000e+01	
			         2.09500	-2.30000e+01	
			         2.09667	-2.00000e+01	
			         2.09833	-1.60000e+01	
			         2.10000	-1.00000e+01	
			         2.10167	-2.00000e+00	
			         2.10333	7.00000e+00	
			         2.10500	1.90000e+01	
			         2.10667	3.20000e+01	
			         2.10833	4.70000e+01	
			         2.11000	6.30000e+01	
			         2.11167	8.00000e+01	
			         2.11333	9.90000e+01	
			         2.11500	1.18000e+02	
			         2.11667	1.37000e+02	
			         2.11833	1.57000e+02	
			         2.12000	1.76000e+02	
			         2.12167	1.92000e+02	
			         2.12333	2.06000e+02	
			         2.12500	2.16000e+02	
			         2.12667	2.21000e+02	
			         2.12833	2.21000e+02	
			         2.13000	2.15000e+02	
			         2.13167	2.03000e+02	
			         2.13333	1.85000e+02	
			         2.13500	1.61000e+02	
			         2.13667	1.30000e+02	
			         2.13833	9.50000e+01	
			         2.14000	5.60000e+01	
			         2.14167	1.40000e+01	
			         2.14333	-2.90000e+01	
			         2.14500	-7.20000e+01	
			         2.14667	-1.12000e+02	
			         2.14833	-1.48000e+02	
			         2.15000	-1.80000e+02	
			         2.15167	-2.04000e+02	
			         2.15333	-2.23000e+02	
			         2.15500	-2.34000e+02	
			         2.15667	-2.39000e+02	
			         2.15833	-2.38000e+02	
			         2.16000	-2.32000e+02	
			         2.16167	-2.21000e+02	
			         2.16333	-2.07000e+02	
			         2.16500	-1.90000e+02	
			         2.16667	-1.72000e+02	
			         2.16833	-1.53000e+02	
			         2.17000	-1.34000e+02	
			         2.17167	-1.16000e+02	
			         2.17333	-1.00000e+02	
			         2.17500	-8.50000e+01	
			         2.17667	-7.20000e+01	
			         2.17833	-6.20000e+01	
			         2.18000	-5.30000e+01	
			         2.18167	-4.50000e+01	
			         2.18333	-4.00000e+01	
			         2.18500	-3.50000e+01	
			         2.18667	-3.20000e+01	
			         2.18833	-2.90000e+01	
			         2.19000	-2.70000e+01	
			         2.19167	-2.60000e+01	
			         2.19333	-2.50000e+01	
			         2.19500	-2.40000e+01	
			         2.19667	-2.30000e+01	
			         2.19833	-2.20000e+01	
			         2.20000	-2.10000e+01	
			         2.20167	-2.00000e+01	
			         2.20333	-1.90000e+01	
			         2.20500	-1.80000e+01	
			         2.20667	-1.70000e+01	
			         2.20833	-1.60000e+01	
			         2.21000	-1.50000e+01	
			         2.21167	-1.40000e+01	
			         2.21333	-1.30000e+01	
			         2.21500	-1.20000e+01	
			         2.21667	-1.10000e+01	
			         2.21833	-1.00000e+01	
			         2.22000	-9.00000e+00	
			         2.22167	-8.00000e+00	
			         2.22333	-7.00000e+00	
			         2.22500	-7.00000e+00	
			         2.22667	-6.00000e+00	
			         2.22833	-5.00000e+00	
			         2.23000	-4.00000e+00	
			         2.23167	-3.00000e+00	
			         2.23333	-2.00000e+00	
			         2.23500	-2.00000e+00	
			         2.23667	-1.00000e+00	
			         2.23833	-1.00000e+00	
			         2.24000	-1.00000e+00	
			         2.24167	0.00000e+00	
			         2.24333	0.00000e+00	
			         2.24500	0.00000e+00	
			         2.24667	0.00000e+00	
			         2.24833	0.00000e+00	
			         2.25000	0.00000e+00	
			         2.25167	0.00000e+00	
			         2.25333	0.00000e+00	
			         2.25500	0.00000e+00	
			         2.25667	0.00000e+00	
			         2.25833	0.00000e+00	
			         2.26000	0.00000e+00	
			         2.26167	0.00000e+00	
			         2.26333	0.00000e+00	
			         2.26500	1.00000e+00	
			         2.26667	1.00000e+00	
			         2.26833	1.00000e+00	
			         2.27000	1.00000e+00	
			         2.27167	2.00000e+00	
			         2.27333	2.00000e+00	
			         2.27500	2.00000e+00	
			         2.27667	3.00000e+00	
			         2.27833	3.00000e+00	
			         2.28000	4.00000e+00	
			         2.28167	4.00000e+00	
			         2.28333	4.00000e+00	
			         2.28500	5.00000e+00	
			         2.28667	5.00000e+00	
			         2.28833	6.00000e+00	
			         2.29000	6.00000e+00	
			         2.29167	7.00000e+00	
			         2.29333	7.00000e+00	
			         2.29500	8.00000e+00	
			         2.29667	8.00000e+00	
			         2.29833	9.00000e+00	
			         2.30000	9.00000e+00	
			         2.30167	1.00000e+01	
			         2.30333	1.10000e+01	
			         2.30500	1.10000e+01	
			         2.30667	1.10000e+01	
			         2.30833	1.20000e+01	
			         2.31000	1.20000e+01	
			         2.31167	1.30000e+01	
			         2.31333	1.30000e+01	
			         2.31500	1.40000e+01	
			         2.31667	1.40000e+01	
			         2.31833	1.50000e+01	
			         2.32000	1.50000e+01	
			         2.32167	1.60000e+01	
			         2.32333	1.60000e+01	
			         2.32500	1.70000e+01	
			         2.32667	1.80000e+01	
			         2.32833	1.90000e+01	
			         2.33000	2.00000e+01	
			         2.33167	2.10000e+01	
			         2.33333	2.20000e+01	
			         2.33500	2.30000e+01	
			         2.33667	2.40000e+01	
			         2.33833	2.50000e+01	
			         2.34000	2.60000e+01	
			         2.34167	2.70000e+01	
			         2.34333	2.80000e+01	
			         2.34500	2.90000e+01	
			         2.34667	3.10000e+01	
			         2.34833	3.20000e+01	
			         2.35000	3.30000e+01	
			         2.35167	3.40000e+01	
			         2.35333	3.60000e+01	
			         2.35500	3.70000e+01	
			         2.35667	3.80000e+01	
			         2.35833	4.00000e+01	
			         2.36000	4.10000e+01	
			         2.36167	4.20000e+01	
			         2.36333	4.40000e+01	
			         2.36500	4.50000e+01	
			         2.36667	4.70000e+01	
			         2.36833	4.80000e+01	
			         2.37000	5.00000e+01	
			         2.37167	5.20000e+01	
			         2.37333	5.40000e+01	
			         2.37500	5.60000e+01	
			         2.37667	5.80000e+01	
			         2.37833	6.00000e+01	
			         2.38000	6.30000e+01	
			         2.38167	6.50000e+01	
			         2.38333	6.80000e+01	
			         2.38500	7.00000e+01	
			         2.38667	7.20000e+01	
			         2.38833	7.40000e+01	
			         2.39000	7.60000e+01	
			         2.39167	7.80000e+01	
			         2.39333	8.00000e+01	
			         2.39500	8.20000e+01	
			         2.39667	8.30000e+01	
			         2.39833	8.50000e+01	
			         2.40000	8.60000e+01	
			         2.40167	8.70000e+01	
			         2.40333	8.80000e+01	
			         2.40500	9.00000e+01	
			         2.40667	9.10000e+01	
			         2.40833	9.20000e+01	
			         2.41000	9.30000e+01	
			         2.41167	9.30000e+01	
			         2.41333	9.40000e+01	
			         2.41500	9.40000e+01	
			         2.41667	9.40000e+01	
			         2.41833	9.40000e+01	
			         2.42000	9.30000e+01	
			         2.42167	9.30000e+01	
			         2.42333	9.20000e+01	
			         2.42500	9.00000e+01	
			         2.42667	8.90000e+01	
			         2.42833	8.70000e+01	
			         2.43000	8.50000e+01	
			         2.43167	8.30000e+01	
			         2.43333	8.10000e+01	
			         2.43500	7.80000e+01	
			         2.43667	7.60000e+01	
			         2.43833	7.30000e+01	
			         2.44000	7.00000e+01	
			         2.44167	6.60000e+01	
			         2.44333	6.30000e+01	
			         2.44500	5.90000e+01	
			         2.44667	5.50000e+01	
			         2.44833	5.10000e+01	
			         2.45000	4.70000e+01	
			         2.45167	4.30000e+01	
			         2.45333	3.80000e+01	
			         2.45500	3.30000e+01	
			         2.45667	2.90000e+01	
			         2.45833	2.40000e+01	
			         2.46000	1.90000e+01	
			         2.46167	1.40000e+01	
			         2.46333	9.00000e+00	
			         2.46500	5.00000e+00	
			         2.46667	0.00000e+00	
			         2.46833	-4.00000e+00	
			         2.47000	-8.00000e+00	
			         2.47167	-1.20000e+01	
			         2.47333	-1.60000e+01	
			         2.47500	-2.00000e+01	
			         2.47667	-2.30000e+01	
			         2.47833	-2.60000e+01	
			         2.48000	-2.90000e+01	
			         2.48167	-3.20000e+01	
			         2.48333	-3.50000e+01	
			         2.48500	-3.70000e+01	
			         2.48667	-3.90000e+01	
			         2.48833	-4.10000e+01	
			         2.49000	-4.30000e+01	
			         2.49167	-4.50000e+01	
			         2.49333	-4.60000e+01	
			         2.49500	-4.70000e+01	
			         2.49667	-4.80000e+01	
			         2.49833	-4.80000e+01	
			         2.50000	-4.90000e+01	
			         2.50167	-4.90000e+01	
			         2.50333	-5.00000e+01	
			         2.50500	-5.00000e+01	
			         2.50667	-5.00000e+01	
			         2.50833	-4.90000e+01	
			         2.51000	-4.90000e+01	
			         2.51167	-4.90000e+01	
			         2.51333	-4.90000e+01	
			         2.51500	-4.80000e+01	
			         2.51667	-4.80000e+01	
			         2.51833	-4.80000e+01	
			         2.52000	-4.70000e+01	
			         2.52167	-4.70000e+01	
			         2.52333	-4.60000e+01	
			         2.52500	-4.60000e+01	
			         2.52667	-4.50000e+01	
			         2.52833	-4.50000e+01	
			         2.53000	-4.40000e+01	
			         2.53167	-4.40000e+01	
			         2.53333	-4.30000e+01	
			         2.53500	-4.30000e+01	
			         2.53667	-4.20000e+01	
			         2.53833	-4.20000e+01	
			         2.54000	-4.10000e+01	
			         2.54167	-4.00000e+01	
			         2.54333	-4.00000e+01	
			         2.54500	-3.90000e+01	
			         2.54667	-3.80000e+01	
			         2.54833	-3.70000e+01	
			         2.55000	-3.70000e+01	
			         2.55167	-3.60000e+01	
			         2.55333	-3.60000e+01	
			         2.55500	-3.60000e+01	
			         2.55667	-3.60000e+01	
			         2.55833	-3.60000e+01	
			         2.56000	-3.60000e+01	
			         2.56167	-3.60000e+01	
			         2.56333	-3.60000e+01	
			         2.56500	-3.60000e+01	
			         2.56667	-3.60000e+01	
			         2.56833	-3.60000e+01	
			         2.57000	-3.60000e+01	
			         2.57167	-3.50000e+01	
			         2.57333	-3.50000e+01	
			         2.57500	-3.40000e+01	
			         2.57667	-3.30000e+01	
			         2.57833	-3.20000e+01	
			         2.58000	-3.00000e+01	
			         2.58167	-2.90000e+01	
			         2.58333	-2.80000e+01	
			         2.58500	-2.70000e+01	
			         2.58667	-2.60000e+01	
			         2.58833	-2.50000e+01	
			         2.59000	-2.40000e+01	
			         2.59167	-2.30000e+01	
			         2.59333	-2.20000e+01	
			         2.59500	-2.20000e+01	
			         2.59667	-2.10000e+01	
			         2.59833	-2.10000e+01	
			         2.60000	-2.00000e+01	
			         2.60167	-2.00000e+01	
			         2.60333	-2.00000e+01	
			         2.60500	-1.90000e+01	
			         2.60667	-1.90000e+01	
			         2.60833	-1.80000e+01	
			         2.61000	-1.80000e+01	
			         2.61167	-1.80000e+01	
			         2.61333	-1.80000e+01	
			         2.61500	-1.70000e+01	
			         2.61667	-1.70000e+01	
			         2.61833	-1.70000e+01	
			         2.62000	-1.60000e+01	
			         2.62167	-1.60000e+01	
			         2.62333	-1.50000e+01	
			         2.62500	-1.50000e+01	
			         2.62667	-1.50000e+01	
			         2.62833	-1.40000e+01	
			         2.63000	-1.40000e+01	
			         2.63167	-1.30000e+01	
			         2.63333	-1.30000e+01	
			         2.63500	-1.20000e+01	
			         2.63667	-1.20000e+01	
			         2.63833	-1.20000e+01	
			         2.64000	-1.20000e+01	
			         2.64167	-1.10000e+01	
			         2.64333	-1.10000e+01	
			         2.64500	-1.10000e+01	
			         2.64667	-1.00000e+01	
			         2.64833	-1.00000e+01	
			         2.65000	-1.00000e+01	
			         2.65167	-9.00000e+00	
			         2.65333	-9.00000e+00	
			         2.65500	-9.00000e+00	
			         2.65667	-8.00000e+00	
			         2.65833	-8.00000e+00	
			         2.66000	-8.00000e+00	
			         2.66167	-8.00000e+00	
			         2.66333	-8.00000e+00	
			         2.66500	-8.00000e+00	
			         2.66667	-8.00000e+00	
			         2.66833	-8.00000e+00	
			         2.67000	-8.00000e+00	
			         2.67167	-8.00000e+00	
			         2.67333	-8.00000e+00	
			         2.67500	-8.00000e+00	
			         2.67667	-8.00000e+00	
			         2.67833	-8.00000e+00	
			         2.68000	-8.00000e+00	
			         2.68167	-8.00000e+00	
			         2.68333	-8.00000e+00	
			         2.68500	-8.00000e+00	
			         2.68667	-8.00000e+00	
			         2.68833	-7.00000e+00	
			         2.69000	-7.00000e+00	
			         2.69167	-7.00000e+00	
			         2.69333	-7.00000e+00	
			         2.69500	-7.00000e+00	
			         2.69667	-7.00000e+00	
			         2.69833	-7.00000e+00	
			         2.70000	-7.00000e+00	
			         2.70167	-7.00000e+00	
			         2.70333	-7.00000e+00	
			         2.70500	-6.00000e+00	
			         2.70667	-6.00000e+00	
			         2.70833	-6.00000e+00	
			         2.71000	-6.00000e+00	
			         2.71167	-6.00000e+00	
			         2.71333	-6.00000e+00	
			         2.71500	-5.00000e+00	
			         2.71667	-5.00000e+00	
			         2.71833	-5.00000e+00	
			         2.72000	-5.00000e+00	
			         2.72167	-5.00000e+00	
			         2.72333	-5.00000e+00	
			         2.72500	-5.00000e+00	
			         2.72667	-5.00000e+00	
			         2.72833	-4.00000e+00	
			         2.73000	-4.00000e+00	
			         2.73167	-3.00000e+00	
			         2.73333	-3.00000e+00	
			         2.73500	-3.00000e+00	
			         2.73667	-2.00000e+00	
			         2.73833	-2.00000e+00	
			         2.74000	-1.00000e+00	
			         2.74167	-1.00000e+00	
			         2.74333	-1.00000e+00	
			         2.74500	-1.00000e+00	
			         2.74667	-1.00000e+00	
			         2.74833	-1.00000e+00	
			         2.75000	-1.00000e+00	
			         2.75167	-1.00000e+00	
			         2.75333	-2.00000e+00	
			         2.75500	-2.00000e+00	
			         2.75667	-2.00000e+00	
			         2.75833	-3.00000e+00	
			         2.76000	-3.00000e+00	
			         2.76167	-3.00000e+00	
			         2.76333	-3.00000e+00	
			         2.76500	-3.00000e+00	
			         2.76667	-3.00000e+00	
			         2.76833	-3.00000e+00	
			         2.77000	-3.00000e+00	
			         2.77167	-2.00000e+00	
			         2.77333	-2.00000e+00	
			         2.77500	-2.00000e+00	
			         2.77667	-1.00000e+00	
			         2.77833	-1.00000e+00	
			         2.78000	-1.00000e+00	
			         2.78167	0.00000e+00	
			         2.78333	0.00000e+00	
			         2.78500	0.00000e+00	
			         2.78667	0.00000e+00	
			         2.78833	1.00000e+00	
			         2.79000	1.00000e+00	
			         2.79167	1.00000e+00	
			         2.79333	1.00000e+00	
			         2.79500	2.00000e+00	
			         2.79667	2.00000e+00	
			         2.79833	2.00000e+00	
			         2.80000	3.00000e+00	
			         2.80167	3.00000e+00	
			         2.80333	3.00000e+00	
			         2.80500	3.00000e+00	
			         2.80667	3.00000e+00	
			         2.80833	3.00000e+00	
			         2.81000	3.00000e+00	
			         2.81167	2.00000e+00	
			         2.81333	2.00000e+00	
			         2.81500	1.00000e+00	
			         2.81667	1.00000e+00	
			         2.81833	0.00000e+00	
			         2.82000	0.00000e+00	
			         2.82167	0.00000e+00	
			         2.82333	0.00000e+00	
			         2.82500	-1.00000e+00	
			         2.82667	0.00000e+00	
			         2.82833	0.00000e+00	
			         2.83000	0.00000e+00	
			         2.83167	0.00000e+00	
			         2.83333	1.00000e+00	
			         2.83500	1.00000e+00	
			         2.83667	2.00000e+00	
			         2.83833	2.00000e+00	
			         2.84000	3.00000e+00	
			         2.84167	3.00000e+00	
			         2.84333	3.00000e+00	
			         2.84500	3.00000e+00	
			         2.84667	3.00000e+00	
			         2.84833	3.00000e+00	
			         2.85000	2.00000e+00	
			         2.85167	2.00000e+00	
			         2.85333	2.00000e+00	
			         2.85500	2.00000e+00	
			         2.85667	1.00000e+00	
			         2.85833	1.00000e+00	
			         2.86000	1.00000e+00	
			         2.86167	1.00000e+00	
			         2.86333	1.00000e+00	
			         2.86500	1.00000e+00	
			         2.86667	1.00000e+00	
			         2.86833	1.00000e+00	
			         2.87000	1.00000e+00	
			         2.87167	1.00000e+00	
			         2.87333	2.00000e+00	
			         2.87500	2.00000e+00	
			         2.87667	2.00000e+00	
			         2.87833	3.00000e+00	
			         2.88000	3.00000e+00	
			         2.88167	3.00000e+00	
			         2.88333	4.00000e+00	
			         2.88500	4.00000e+00	
			         2.88667	5.00000e+00	
			         2.88833	5.00000e+00	
			         2.89000	5.00000e+00	
			         2.89167	5.00000e+00	
			         2.89333	5.00000e+00	
			         2.89500	5.00000e+00	
			         2.89667	5.00000e+00	
			         2.89833	5.00000e+00	
			         2.90000	5.00000e+00	
			         2.90167	5.00000e+00	
			         2.90333	5.00000e+00	
			         2.90500	5.00000e+00	
			         2.90667	5.00000e+00	
			         2.90833	5.00000e+00	
			         2.91000	5.00000e+00	
			         2.91167	5.00000e+00	
			         2.91333	6.00000e+00	
			         2.91500	6.00000e+00	
			         2.91667	6.00000e+00	
			         2.91833	6.00000e+00	
			         2.92000	6.00000e+00	
			         2.92167	6.00000e+00	
			         2.92333	6.00000e+00	
			         2.92500	6.00000e+00	
			         2.92667	6.00000e+00	
			         2.92833	5.00000e+00	
			         2.93000	5.00000e+00	
			         2.93167	5.00000e+00	
			         2.93333	4.00000e+00	
			         2.93500	4.00000e+00	
			         2.93667	4.00000e+00	
			         2.93833	4.00000e+00	
			         2.94000	4.00000e+00	
			         2.94167	5.00000e+00	
			         2.94333	5.00000e+00	
			         2.94500	6.00000e+00	
			         2.94667	6.00000e+00	
			         2.94833	7.00000e+00	
			         2.95000	7.00000e+00	
			         2.95167	8.00000e+00	
			         2.95333	8.00000e+00	
			         2.95500	8.00000e+00	
			         2.95667	8.00000e+00	
			         2.95833	8.00000e+00	
			         2.96000	7.00000e+00	
			         2.96167	7.00000e+00	
			         2.96333	7.00000e+00	
			         2.96500	6.00000e+00	
			         2.96667	6.00000e+00	
			         2.96833	6.00000e+00	
			         2.97000	5.00000e+00	
			         2.97167	5.00000e+00	
			         2.97333	5.00000e+00	
			         2.97500	5.00000e+00	
			         2.97667	5.00000e+00	
			         2.97833	5.00000e+00	
			         2.98000	6.00000e+00	
			         2.98167	6.00000e+00	
			         2.98333	7.00000e+00	
			         2.98500	8.00000e+00	
			         2.98667	9.00000e+00	
			         2.98833	1.00000e+01	
			         2.99000	1.20000e+01	
			         2.99167	1.40000e+01	
			         2.99333	1.70000e+01	
			         2.99500	2.00000e+01	
			         2.99667	2.30000e+01	
			         2.99833	2.60000e+01	
			         3.00000	3.00000e+01	
			         3.00167	3.30000e+01	
			         3.00333	3.70000e+01	
			         3.00500	4.10000e+01	
			         3.00667	4.50000e+01	
			         3.00833	4.80000e+01	
			         3.01000	5.10000e+01	
			         3.01167	5.40000e+01	
			         3.01333	5.70000e+01	
			         3.01500	5.90000e+01	
			         3.01667	6.10000e+01	
			         3.01833	6.30000e+01	
			         3.02000	6.40000e+01	
			         3.02167	6.50000e+01	
			         3.02333	6.50000e+01	
			         3.02500	6.50000e+01	
			         3.02667	6.50000e+01	
			         3.02833	6.50000e+01	
			         3.03000	6.50000e+01	
			         3.03167	6.40000e+01	
			         3.03333	6.40000e+01	
			         3.03500	6.30000e+01	
			         3.03667	6.30000e+01	
			         3.03833	6.20000e+01	
			         3.04000	6.10000e+01	
			         3.04167	6.00000e+01	
			         3.04333	5.80000e+01	
			         3.04500	5.60000e+01	
			         3.04667	5.30000e+01	
			         3.04833	4.90000e+01	
			         3.05000	4.40000e+01	
			         3.05167	3.80000e+01	
			         3.05333	3.20000e+01	
			         3.05500	2.50000e+01	
			         3.05667	1.70000e+01	
			         3.05833	9.00000e+00	
			         3.06000	0.00000e+00	
			         3.06167	-8.00000e+00	
			         3.06333	-1.60000e+01	
			         3.06500	-2.30000e+01	
			         3.06667	-3.00000e+01	
			         3.06833	-3.50000e+01	
			         3.07000	-4.00000e+01	
			         3.07167	-4.40000e+01	
			         3.07333	-4.70000e+01	
			         3.07500	-4.90000e+01	
			         3.07667	-5.10000e+01	
			         3.07833	-5.20000e+01	
			         3.08000	-5.30000e+01	
			         3.08167	-5.30000e+01	
			         3.08333	-5.40000e+01	
			         3.08500	-5.40000e+01	
			         3.08667	-5.40000e+01	
			         3.08833	-5.50000e+01	
			         3.09000	-5.50000e+01	
			         3.09167	-5.50000e+01	
			         3.09333	-5.50000e+01	
			         3.09500	-5.50000e+01	
			         3.09667	-5.40000e+01	
			         3.09833	-5.30000e+01	
			         3.10000	-5.20000e+01	
			         3.10167	-5.10000e+01	
			         3.10333	-5.00000e+01	
			         3.10500	-4.80000e+01	
			         3.10667	-4.70000e+01	
			         3.10833	-4.50000e+01	
			         3.11000	-4.30000e+01	
			         3.11167	-4.10000e+01	
			         3.11333	-4.00000e+01	
			         3.11500	-3.80000e+01	
			         3.11667	-3.60000e+01	
			         3.11833	-3.50000e+01	
			         3.12000	-3.30000e+01	
			         3.12167	-3.20000e+01	
			         3.12333	-3.10000e+01	
			         3.12500	-3.00000e+01	
			         3.12667	-2.90000e+01	
			         3.12833	-2.80000e+01	
			         3.13000	-2.70000e+01	
			         3.13167	-2.70000e+01	
			         3.13333	-2.60000e+01	
			         3.13500	-2.50000e+01	
			         3.13667	-2.40000e+01	
			         3.13833	-2.30000e+01	
			         3.14000	-2.20000e+01	
			         3.14167	-2.10000e+01	
			         3.14333	-2.00000e+01	
			         3.14500	-1.90000e+01	
			         3.14667	-1.80000e+01	
			         3.14833	-1.60000e+01	
			         3.15000	-1.30000e+01	
			         3.15167	-9.00000e+00	
			         3.15333	-3.00000e+00	
			         3.15500	5.00000e+00	
			         3.15667	1.40000e+01	
			         3.15833	2.60000e+01	
			         3.16000	3.90000e+01	
			         3.16167	5.40000e+01	
			         3.16333	7.00000e+01	
			         3.16500	8.70000e+01	
			         3.16667	1.05000e+02	
			         3.16833	1.25000e+02	
			         3.17000	1.44000e+02	
			         3.17167	1.64000e+02	
			         3.17333	1.82000e+02	
			         3.17500	1.99000e+02	
			         3.17667	2.12000e+02	
			         3.17833	2.22000e+02	
			         3.18000	2.27000e+02	
			         3.18167	2.26000e+02	
			         3.18333	2.20000e+02	
			         3.18500	2.08000e+02	
			         3.18667	1.90000e+02	
			         3.18833	1.65000e+02	
			         3.19000	1.35000e+02	
			         3.19167	1.00000e+02	
			         3.19333	6.00000e+01	
			         3.19500	1.80000e+01	
			         3.19667	-2.50000e+01	
			         3.19833	-6.80000e+01	
			         3.20000	-1.08000e+02	
			         3.20167	-1.44000e+02	
			         3.20333	-1.75000e+02	
			         3.20500	-1.99000e+02	
			         3.20667	-2.17000e+02	
			         3.20833	-2.28000e+02	
			         3.21000	-2.33000e+02	
			         3.21167	-2.31000e+02	
			         3.21333	-2.25000e+02	
			         3.21500	-2.14000e+02	
			         3.21667	-1.99000e+02	
			         3.21833	-1.82000e+02	
			         3.22000	-1.64000e+02	
			         3.22167	-1.45000e+02	
			         3.22333	-1.26000e+02	
			         3.22500	-1.09000e+02	
			         3.22667	-9.30000e+01	
			         3.22833	-7.80000e+01	
			         3.23000	-6.50000e+01	
			         3.23167	-5.50000e+01	
			         3.23333	-4.60000e+01	
			         3.23500	-3.90000e+01	
			         3.23667	-3.30000e+01	
			         3.23833	-2.80000e+01	
			         3.24000	-2.50000e+01	
			         3.24167	-2.20000e+01	
			         3.24333	-2.00000e+01	
			         3.24500	-1.80000e+01	
