Velocity (TVI), in cm/s

Time (s) :	Trace 1 : 		Ecg : 		
0.02468   	-7.90825e-01		         0.00000	1.00000e+01	
0.03109   	-1.62383e+00		         0.00167	2.20000e+01	
0.03725   	-2.15279e+00		         0.00333	3.70000e+01	
0.04337   	-2.40859e+00		         0.00500	5.50000e+01	
0.04951   	-3.09460e+00		         0.00667	7.50000e+01	
0.05591   	-3.41143e+00		         0.00833	9.90000e+01	
0.06207   	-2.61447e+00		         0.01000	1.25000e+02	
0.06819   	-1.31556e+00		         0.01167	1.52000e+02	
0.07433   	-2.07271e-01		         0.01333	1.81000e+02	
0.08073   	1.33778e+00		         0.01500	2.09000e+02	
0.08689   	3.13715e+00		         0.01667	2.34000e+02	
0.09301   	4.16658e+00		         0.01833	2.56000e+02	
0.09914   	4.75160e+00		         0.02000	2.71000e+02	
0.10555   	5.05314e+00		         0.02167	2.79000e+02	
0.11172   	5.29844e+00		         0.02333	2.80000e+02	
0.11783   	5.40668e+00		         0.02500	2.72000e+02	
0.12397   	5.54259e+00		         0.02667	2.57000e+02	
0.13037   	5.67827e+00		         0.02833	2.34000e+02	
0.13652   	5.83578e+00		         0.03000	2.05000e+02	
0.14266   	5.86153e+00		         0.03167	1.70000e+02	
0.14879   	5.78057e+00		         0.03333	1.31000e+02	
0.15519   	5.78780e+00		         0.03500	9.10000e+01	
0.16135   	5.80093e+00		         0.03667	5.10000e+01	
0.16747   	5.72462e+00		         0.03833	1.40000e+01	
0.17361   	5.62307e+00		         0.04000	-2.00000e+01	
0.18002   	5.66081e+00		         0.04167	-5.00000e+01	
0.18616   	5.72638e+00		         0.04333	-7.50000e+01	
0.19229   	5.81293e+00		         0.04500	-9.50000e+01	
0.19843   	5.86439e+00		         0.04667	-1.09000e+02	
0.20484   	6.05669e+00		         0.04833	-1.18000e+02	
0.21099   	6.13551e+00		         0.05000	-1.23000e+02	
0.21711   	6.18581e+00		         0.05167	-1.24000e+02	
0.22325   	6.09975e+00		         0.05333	-1.22000e+02	
0.22966   	5.50044e+00		         0.05500	-1.19000e+02	
0.23582   	4.65766e+00		         0.05667	-1.15000e+02	
0.34207   	3.89052e+00		         0.05833	-1.10000e+02	
0.34820   	2.95810e+00		         0.06000	-1.05000e+02	
0.35434   	2.04442e+00		         0.06167	-1.00000e+02	
0.36048   	1.67312e+00		         0.06333	-9.40000e+01	
0.36689   	1.39339e+00		         0.06500	-8.90000e+01	
0.37304   	9.81292e-01		         0.06667	-8.40000e+01	
0.37916   	4.15100e-01		         0.06833	-8.00000e+01	
0.38530   	-1.47805e-01		         0.07000	-7.60000e+01	
0.39171   	-7.10212e-01		         0.07167	-7.40000e+01	
0.39785   	-1.30546e+00		         0.07333	-7.10000e+01	
0.40398   	-1.31787e+00		         0.07500	-7.00000e+01	
0.41012   	-1.26495e+00		         0.07667	-6.80000e+01	
0.41653   	-6.04007e-01		         0.07833	-6.70000e+01	
0.42268   	-2.86197e-01		         0.08000	-6.60000e+01	
0.42881   	3.63905e-01		         0.08167	-6.40000e+01	
0.43501   	2.78011e-01		         0.08333	-6.30000e+01	
0.44135   	2.34864e-01		         0.08500	-6.20000e+01	
0.44749   	-5.40992e-01		         0.08667	-6.10000e+01	
0.45362   	-1.25463e+00		         0.08833	-5.90000e+01	
0.45976   	-2.27533e+00		         0.09000	-5.70000e+01	
0.46617   	-3.18558e+00		         0.09167	-5.50000e+01	
0.47234   	-3.93359e+00		         0.09333	-5.20000e+01	
0.47845   	-4.78394e+00		         0.09500	-5.00000e+01	
0.48470   	-5.09669e+00		         0.09667	-4.80000e+01	
0.49099   	-5.47876e+00		         0.09833	-4.60000e+01	
0.49715   	-5.86836e+00		         0.10000	-4.50000e+01	
0.50327   	-6.08494e+00		         0.10167	-4.50000e+01	
0.50941   	-6.12104e+00		         0.10333	-4.40000e+01	
0.51581   	-6.31738e+00		         0.10500	-4.50000e+01	
0.52197   	-6.33050e+00		         0.10667	-4.50000e+01	
0.52809   	-6.21085e+00		         0.10833	-4.60000e+01	
0.53423   	-6.13779e+00		         0.11000	-4.60000e+01	
0.54064   	-5.73711e+00		         0.11167	-4.70000e+01	
0.54680   	-5.39337e+00		         0.11333	-4.80000e+01	
0.55291   	-5.05120e+00		         0.11500	-4.90000e+01	
0.55905   	-4.54694e+00		         0.11667	-4.80000e+01	
0.56546   	-4.16971e+00		         0.11833	-4.70000e+01	
0.57162   	-3.91231e+00		         0.12000	-4.50000e+01	
0.57773   	-3.47430e+00		         0.12167	-4.40000e+01	
0.58387   	-3.09342e+00		         0.12333	-4.20000e+01	
0.59028   	-2.79342e+00		         0.12500	-4.10000e+01	
0.59642   	-2.45169e+00		         0.12667	-4.00000e+01	
0.60255   	-2.07477e+00		         0.12833	-3.90000e+01	
0.60869   	-1.90473e+00		         0.13000	-3.80000e+01	
0.61510   	-1.64742e+00		         0.13167	-3.70000e+01	
0.62125   	-1.49691e+00		         0.13333	-3.60000e+01	
0.62737   	-1.41482e+00		         0.13500	-3.50000e+01	
0.63351   	-1.47115e+00		         0.13667	-3.40000e+01	
0.63992   	-1.49742e+00		         0.13833	-3.40000e+01	
0.64608   	-1.67793e+00		         0.14000	-3.30000e+01	
0.65219   	-1.90785e+00		         0.14167	-3.30000e+01	
0.65833   	-2.13530e+00		         0.14333	-3.20000e+01	
0.66474   	-2.65400e+00		         0.14500	-3.10000e+01	
0.67089   	-3.30039e+00		         0.14667	-3.00000e+01	
0.67701   	-4.04345e+00		         0.14833	-3.00000e+01	
0.68315   	-4.85087e+00		         0.15000	-2.90000e+01	
0.68956   	-5.66425e+00		         0.15167	-2.80000e+01	
0.69571   	-6.30794e+00		         0.15333	-2.80000e+01	
0.70183   	-6.84395e+00		         0.15500	-2.80000e+01	
0.70797   	-7.13049e+00		         0.15667	-2.70000e+01	
0.71438   	-7.15793e+00		         0.15833	-2.70000e+01	
0.72054   	-7.14870e+00		         0.16000	-2.60000e+01	
0.72665   	-6.77073e+00		         0.16167	-2.50000e+01	
0.73279   	-6.24080e+00		         0.16333	-2.40000e+01	
0.73920   	-5.57265e+00		         0.16500	-2.40000e+01	
0.74536   	-4.89416e+00		         0.16667	-2.30000e+01	
0.75147   	-4.25775e+00		         0.16833	-2.10000e+01	
0.75761   	-3.60067e+00		         0.17000	-1.90000e+01	
0.76402   	-2.92202e+00		         0.17167	-1.70000e+01	
0.77018   	-2.37397e+00		         0.17333	-1.50000e+01	
0.77629   	-1.76528e+00		         0.17500	-1.30000e+01	
0.78243   	-1.12950e+00		         0.17667	-1.20000e+01	
0.78884   	-5.01228e-01		         0.17833	-1.10000e+01	
0.79500   	5.68003e-02		         0.18000	-1.10000e+01	
0.80111   	4.60895e-01		         0.18167	-1.10000e+01	
0.80725   	1.94385e-02		         0.18333	-1.10000e+01	
0.81366   	-7.41319e-01		         0.18500	-1.00000e+01	
0.81982   	-1.84089e+00		         0.18667	-1.00000e+01	
0.82594   	-2.45944e+00		         0.18833	-1.00000e+01	
0.83207   	-2.37889e+00		         0.19000	-1.00000e+01	
0.83848   	-1.43752e+00		         0.19167	-9.00000e+00	
0.84463   	5.35238e-02		         0.19333	-8.00000e+00	
0.85075   	1.73743e+00		         0.19500	-7.00000e+00	
0.85689   	2.89591e+00		         0.19667	-5.00000e+00	
0.86330   	3.41458e+00		         0.19833	-4.00000e+00	
0.86944   	3.74306e+00		         0.20000	-2.00000e+00	
0.87558   	3.89320e+00		         0.20167	-1.00000e+00	
0.88171   	3.93000e+00		         0.20333	0.00000e+00	
0.88812   	4.03942e+00		         0.20500	0.00000e+00	
0.89427   	4.18690e+00		         0.20667	0.00000e+00	
0.90040   	4.39525e+00		         0.20833	0.00000e+00	
0.90654   	4.60517e+00		         0.21000	-1.00000e+00	
0.91294   	4.86135e+00		         0.21167	-3.00000e+00	
0.91911   	5.06350e+00		         0.21333	-4.00000e+00	
0.92522   	5.18450e+00		         0.21500	-6.00000e+00	
0.93136   	5.32161e+00		         0.21667	-8.00000e+00	
0.93776   	5.47871e+00		         0.21833	-9.00000e+00	
0.94392   	5.60116e+00		         0.22000	-1.00000e+01	
0.95004   	5.65478e+00		         0.22167	-1.00000e+01	
0.95618   	5.74585e+00		         0.22333	-1.00000e+01	
0.96259   	5.80183e+00		         0.22500	-1.00000e+01	
0.96874   	5.79761e+00		         0.22667	-1.10000e+01	
0.97486   	5.73105e+00		         0.22833	-1.10000e+01	
0.98100   	5.69792e+00		         0.23000	-1.20000e+01	
0.98741   	5.66989e+00		         0.23167	-1.30000e+01	
0.99357   	5.60125e+00		         0.23333	-1.40000e+01	
0.99968   	5.51413e+00		         0.23500	-1.60000e+01	
1.00582   	5.52836e+00		         0.23667	-1.80000e+01	
1.01223   	5.47765e+00		         0.23833	-2.10000e+01	
1.01839   	5.47926e+00		         0.24000	-2.40000e+01	
1.02451   	5.36646e+00		         0.24167	-2.70000e+01	
1.03064   	5.19065e+00		         0.24333	-3.00000e+01	
1.03705   	4.93104e+00		         0.24500	-3.30000e+01	
1.04320   	4.73851e+00		         0.24667	-3.60000e+01	
1.04932   	4.49033e+00		         0.24833	-3.80000e+01	
1.05546   	4.28798e+00		         0.25000	-3.90000e+01	
1.06187   	4.17110e+00		         0.25167	-4.00000e+01	
1.06801   	4.00954e+00		         0.25333	-4.10000e+01	
1.07414   	3.82381e+00		         0.25500	-4.20000e+01	
1.08028   	3.53625e+00		         0.25667	-4.20000e+01	
1.08669   	3.36564e+00		         0.25833	-4.30000e+01	
1.09285   	3.11239e+00		         0.26000	-4.30000e+01	
1.09900   	2.88385e+00		         0.26167	-4.30000e+01	
1.10510   	2.62354e+00		         0.26333	-4.30000e+01	
1.11151   	2.50819e+00		         0.26500	-4.30000e+01	
1.11766   	2.26088e+00		         0.26667	-4.30000e+01	
1.12378   	2.02091e+00		         0.26833	-4.20000e+01	
1.12992   	1.75196e+00		         0.27000	-4.20000e+01	
1.13633   	1.44126e+00		         0.27167	-4.10000e+01	
1.14248   	9.46601e-01		         0.27333	-4.00000e+01	
1.14880   	4.11915e-01		         0.27500	-4.00000e+01	
1.15474   	-1.39951e-01		         0.27667	-3.90000e+01	
1.16115   	-7.40715e-01		         0.27833	-3.80000e+01	
1.16730   	-9.63217e-01		         0.28000	-3.80000e+01	
1.17342   	-1.08340e+00		         0.28167	-3.60000e+01	
1.17956   	-7.83163e-01		         0.28333	-3.50000e+01	
1.18597   	-4.52340e-01		         0.28500	-3.40000e+01	
1.19212   	-1.16456e-01		         0.28667	-3.30000e+01	
1.19825   	-8.61187e-02		         0.28833	-3.30000e+01	
1.20438   	-1.37146e-01		         0.29000	-3.20000e+01	
1.21079   	-6.62462e-01		         0.29167	-3.20000e+01	
1.21695   	-1.51950e+00		         0.29333	-3.20000e+01	
1.22307   	-2.07719e+00		         0.29500	-3.10000e+01	
1.22920   	-2.90776e+00		         0.29667	-3.00000e+01	
1.23561   	-3.88280e+00		         0.29833	-2.80000e+01	
1.24177   	-4.73121e+00		         0.30000	-2.70000e+01	
1.24789   	-5.28352e+00		         0.30167	-2.50000e+01	
1.25402   	-6.12614e+00		         0.30333	-2.40000e+01	
1.26043   	-6.65844e+00		         0.30500	-2.30000e+01	
1.26660   	-6.79949e+00		         0.30667	-2.30000e+01	
1.27271   	-6.85320e+00		         0.30833	-2.40000e+01	
1.27884   	-6.79835e+00		         0.31000	-2.40000e+01	
1.28526   	-6.48959e+00		         0.31167	-2.50000e+01	
1.29142   	-6.04652e+00		         0.31333	-2.50000e+01	
1.29753   	-5.80870e+00		         0.31500	-2.60000e+01	
1.30367   	-5.67026e+00		         0.31667	-2.70000e+01	
1.31008   	-5.23324e+00		         0.31833	-2.80000e+01	
1.31624   	-4.96441e+00		         0.32000	-2.80000e+01	
1.32235   	-4.74682e+00		         0.32167	-2.90000e+01	
1.32849   	-4.36006e+00		         0.32333	-2.80000e+01	
1.33489   	-3.86897e+00		         0.32500	-2.70000e+01	
1.34105   	-3.63323e+00		         0.32667	-2.50000e+01	
1.34717   	-3.24016e+00		         0.32833	-2.20000e+01	
1.35331   	-2.90099e+00		         0.33000	-1.90000e+01	
1.35972   	-2.51677e+00		         0.33167	-1.60000e+01	
1.36588   	-2.17539e+00		         0.33333	-1.30000e+01	
1.37199   	-1.86990e+00		         0.33500	-1.10000e+01	
1.37813   	-1.54645e+00		         0.33667	-9.00000e+00	
1.38454   	-1.26247e+00		         0.33833	-8.00000e+00	
1.39070   	-1.15561e+00		         0.34000	-8.00000e+00	
1.39681   	-1.01299e+00		         0.34167	-8.00000e+00	
1.40295   	-9.84785e-01		         0.34333	-8.00000e+00	
1.40936   	-1.09434e+00		         0.34500	-8.00000e+00	
1.41552   	-1.24243e+00		         0.34667	-9.00000e+00	
1.42163   	-1.39299e+00		         0.34833	-1.00000e+01	
1.42777   	-1.68764e+00		         0.35000	-1.10000e+01	
1.43418   	-2.11427e+00		         0.35167	-1.20000e+01	
1.44034   	-2.69230e+00		         0.35333	-1.30000e+01	
1.44645   	-3.43031e+00		         0.35500	-1.20000e+01	
1.45259   	-4.12014e+00		         0.35667	-1.20000e+01	
1.45900   	-4.91864e+00		         0.35833	-1.00000e+01	
1.46515   	-5.70111e+00		         0.36000	-9.00000e+00	
1.47127   	-6.32286e+00		         0.36167	-7.00000e+00	
1.47741   	-6.83948e+00		         0.36333	-6.00000e+00	
1.48382   	-7.25592e+00		         0.36500	-4.00000e+00	
1.48996   	-7.34330e+00		         0.36667	-3.00000e+00	
1.49609   	-7.09553e+00		         0.36833	-2.00000e+00	
1.50223   	-6.65793e+00		         0.37000	-1.00000e+00	
1.50864   	-6.02212e+00		         0.37167	-1.00000e+00	
1.51480   	-5.34865e+00		         0.37333	0.00000e+00	
1.52091   	-4.60891e+00		         0.37500	0.00000e+00	
1.52705   	-3.85630e+00		         0.37667	0.00000e+00	
1.53346   	-3.31017e+00		         0.37833	-1.00000e+00	
1.53961   	-2.57756e+00		         0.38000	-2.00000e+00	
1.54573   	-1.93716e+00		         0.38167	-3.00000e+00	
1.55188   	-1.31370e+00		         0.38333	-5.00000e+00	
1.55828   	-7.19166e-01		         0.38500	-6.00000e+00	
1.56444   	-1.08699e-01		         0.38667	-7.00000e+00	
1.57055   	3.70244e-01		         0.38833	-8.00000e+00	
1.57669   	9.87422e-02		         0.39000	-9.00000e+00	
1.58310   	-4.61052e-01		         0.39167	-9.00000e+00	
1.58925   	-1.57790e+00		         0.39333	-9.00000e+00	
1.59537   	-2.45250e+00		         0.39500	-1.00000e+01	
1.60152   	-2.52308e+00		         0.39667	-1.00000e+01	
1.60792   	-1.65848e+00		         0.39833	-1.00000e+01	
1.61408   	-3.39440e-01		         0.40000	-9.00000e+00	
1.62020   	1.45732e+00		         0.40167	-9.00000e+00	
1.62633   	2.98958e+00		         0.40333	-9.00000e+00	
1.63274   	3.56742e+00		         0.40500	-8.00000e+00	
1.63891   	4.02303e+00		         0.40667	-8.00000e+00	
1.64502   	4.01083e+00		         0.40833	-8.00000e+00	
1.65116   	3.97363e+00		         0.41000	-8.00000e+00	
1.65756   	4.02174e+00		         0.41167	-9.00000e+00	
1.66378   	4.12593e+00		         0.41333	-9.00000e+00	
1.66984   	4.16768e+00		         0.41500	-1.10000e+01	
1.67597   	4.35365e+00		         0.41667	-1.20000e+01	
1.68238   	4.67098e+00		         0.41833	-1.30000e+01	
1.68857   	4.88248e+00		         0.42000	-1.40000e+01	
1.69466   	4.97071e+00		         0.42167	-1.50000e+01	
1.70080   	5.22269e+00		         0.42333	-1.50000e+01	
1.70720   	5.42628e+00		         0.42500	-1.50000e+01	
1.71335   	5.47729e+00		         0.42667	-1.40000e+01	
1.71948   	5.56854e+00		         0.42833	-1.30000e+01	
1.72562   	5.69966e+00		         0.43000	-1.20000e+01	
1.73203   	5.62315e+00		         0.43167	-1.00000e+01	
1.73818   	5.58999e+00		         0.43333	-7.00000e+00	
1.74430   	5.55393e+00		         0.43500	-5.00000e+00	
1.75044   	5.50607e+00		         0.43667	-3.00000e+00	
1.75685   	5.38057e+00		         0.43833	-1.00000e+00	
1.76319   	5.35305e+00		         0.44000	1.00000e+00	
1.76912   	5.35850e+00		         0.44167	2.00000e+00	
1.77526   	5.30538e+00		         0.44333	2.00000e+00	
1.78167   	5.25870e+00		         0.44500	3.00000e+00	
1.78783   	5.23098e+00		         0.44667	3.00000e+00	
1.79394   	5.11467e+00		         0.44833	2.00000e+00	
1.80008   	4.98192e+00		         0.45000	1.00000e+00	
1.80649   	4.74704e+00		         0.45167	0.00000e+00	
1.81263   	4.63759e+00		         0.45333	-2.00000e+00	
1.81876   	4.55244e+00		         0.45500	-3.00000e+00	
1.82490   	4.37949e+00		         0.45667	-4.00000e+00	
1.83131   	4.17363e+00		         0.45833	-5.00000e+00	
1.83748   	4.17878e+00		         0.46000	-6.00000e+00	
1.84358   	4.00197e+00		         0.46167	-7.00000e+00	
1.84973   	3.82680e+00		         0.46333	-7.00000e+00	
1.85613   	3.68186e+00		         0.46500	-7.00000e+00	
1.86227   	3.51942e+00		         0.46667	-7.00000e+00	
1.86840   	3.23805e+00		         0.46833	-6.00000e+00	
1.87454   	3.03135e+00		         0.47000	-6.00000e+00	
1.88095   	2.77492e+00		         0.47167	-5.00000e+00	
1.88710   	2.58517e+00		         0.47333	-4.00000e+00	
1.89322   	2.34727e+00		         0.47500	-4.00000e+00	
1.89936   	2.06839e+00		         0.47667	-4.00000e+00	
1.90577   	1.78159e+00		         0.47833	-4.00000e+00	
1.91191   	1.47390e+00		         0.48000	-3.00000e+00	
1.91805   	9.66355e-01		         0.48167	-3.00000e+00	
1.92418   	4.60169e-01		         0.48333	-2.00000e+00	
1.93059   	-1.99002e-01		         0.48500	-2.00000e+00	
1.93674   	-9.36597e-01		         0.48667	-2.00000e+00	
1.94286   	-1.44888e+00		         0.48833	-2.00000e+00	
1.94900   	-1.38155e+00		         0.49000	-3.00000e+00	
1.95541   	-1.16552e+00		         0.49167	-3.00000e+00	
1.96157   	-7.45876e-01		         0.49333	-2.00000e+00	
1.96769   	-4.07607e-01		         0.49500	-1.00000e+00	
1.97382   	3.83553e-02		         0.49667	-1.00000e+00	
1.98023   	6.14054e-02		         0.49833	0.00000e+00	
1.98640   	-3.80302e-01		         0.50000	1.00000e+00	
1.99250   	-8.42039e-01		         0.50167	1.00000e+00	
1.99865   	-1.29642e+00		         0.50333	2.00000e+00	
2.00505   	-2.32445e+00		         0.50500	2.00000e+00	
2.01120   	-3.50150e+00		         0.50667	3.00000e+00	
2.01733   	-4.32751e+00		         0.50833	4.00000e+00	
2.02347   	-5.02226e+00		         0.51000	4.00000e+00	
2.02987   	-5.91425e+00		         0.51167	4.00000e+00	
2.03602   	-6.29904e+00		         0.51333	4.00000e+00	
2.04215   	-6.54364e+00		         0.51500	4.00000e+00	
2.04829   	-6.62794e+00		         0.51667	4.00000e+00	
2.05469   	-6.67534e+00		         0.51833	4.00000e+00	
2.06085   	-6.33141e+00		         0.52000	4.00000e+00	
2.06697   	-6.09993e+00		         0.52167	4.00000e+00	
2.07311   	-5.79781e+00		         0.52333	4.00000e+00	
2.07951   	-5.44956e+00		         0.52500	4.00000e+00	
2.08566   	-5.25633e+00		         0.52667	4.00000e+00	
2.09179   	-5.00420e+00		         0.52833	4.00000e+00	
2.09793   	-4.70813e+00		         0.53000	4.00000e+00	
2.10434   	-4.39189e+00		         0.53167	3.00000e+00	
2.11048   	-4.15462e+00		         0.53333	3.00000e+00	
2.11661   	-3.76181e+00		         0.53500	3.00000e+00	
2.12275   	-3.27458e+00		         0.53667	3.00000e+00	
2.12915   	-3.03388e+00		         0.53833	3.00000e+00	
2.13531   	-2.86811e+00		         0.54000	3.00000e+00	
2.14143   	-2.41401e+00		         0.54167	3.00000e+00	
2.14757   	-2.17689e+00		         0.54333	3.00000e+00	
2.15398   	-2.03759e+00		         0.54500	3.00000e+00	
2.16014   	-1.64918e+00		         0.54667	3.00000e+00	
2.16625   	-1.17759e+00		         0.54833	3.00000e+00	
2.17239   	-1.09683e+00		         0.55000	4.00000e+00	
2.17880   	-8.76064e-01		         0.55167	5.00000e+00	
2.18494   	-8.83957e-01		         0.55333	6.00000e+00	
2.19107   	-1.14747e+00		         0.55500	7.00000e+00	
2.19721   	-1.37984e+00		         0.55667	8.00000e+00	
2.20362   	-1.65039e+00		         0.55833	8.00000e+00	
2.20978   	-2.12678e+00		         0.56000	8.00000e+00	
2.21589   	-2.72435e+00		         0.56167	7.00000e+00	
2.22203   	-3.36121e+00		         0.56333	6.00000e+00	
2.22843   	-4.22987e+00		         0.56500	4.00000e+00	
2.23460   	-5.23771e+00		         0.56667	2.00000e+00	
2.24071   	-6.16697e+00		         0.56833	0.00000e+00	
2.24685   	-6.97669e+00		         0.57000	-2.00000e+00	
2.25326   	-7.51063e+00		         0.57167	-5.00000e+00	
2.25942   	-7.94956e+00		         0.57333	-8.00000e+00	
2.26553   	-8.05305e+00		         0.57500	-1.10000e+01	
2.27167   	-7.87972e+00		         0.57667	-1.40000e+01	
2.27808   	-7.21320e+00		         0.57833	-1.80000e+01	
2.28423   	-6.50226e+00		         0.58000	-2.00000e+01	
2.29035   	-5.54132e+00		         0.58167	-2.20000e+01	
2.29649   	-4.57783e+00		         0.58333	-2.40000e+01	
2.30290   	-3.69951e+00		         0.58500	-2.50000e+01	
2.30906   	-3.02271e+00		         0.58667	-2.60000e+01	
2.31517   	-2.36829e+00		         0.58833	-2.60000e+01	
2.32131   	-1.95797e+00		         0.59000	-2.60000e+01	
2.32773   	-1.48775e+00		         0.59167	-2.60000e+01	
2.33387   	-9.44254e-01		         0.59333	-2.60000e+01	
2.34000   	-7.59079e-01		         0.59500	-2.60000e+01	
2.34613   	-6.06764e-01		         0.59667	-2.60000e+01	
			         0.59833	-2.50000e+01	
			         0.60000	-2.40000e+01	
			         0.60167	-2.40000e+01	
			         0.60333	-2.30000e+01	
			         0.60500	-2.30000e+01	
			         0.60667	-2.30000e+01	
			         0.60833	-2.30000e+01	
			         0.61000	-2.30000e+01	
			         0.61167	-2.30000e+01	
			         0.61333	-2.30000e+01	
			         0.61500	-2.20000e+01	
			         0.61667	-2.10000e+01	
			         0.61833	-1.90000e+01	
			         0.62000	-1.70000e+01	
			         0.62167	-1.50000e+01	
			         0.62333	-1.30000e+01	
			         0.62500	-1.10000e+01	
			         0.62667	-9.00000e+00	
			         0.62833	-8.00000e+00	
			         0.63000	-7.00000e+00	
			         0.63167	-7.00000e+00	
			         0.63333	-7.00000e+00	
			         0.63500	-8.00000e+00	
			         0.63667	-9.00000e+00	
			         0.63833	-1.00000e+01	
			         0.64000	-1.20000e+01	
			         0.64167	-1.30000e+01	
			         0.64333	-1.40000e+01	
			         0.64500	-1.50000e+01	
			         0.64667	-1.40000e+01	
			         0.64833	-1.40000e+01	
			         0.65000	-1.20000e+01	
			         0.65167	-1.00000e+01	
			         0.65333	-8.00000e+00	
			         0.65500	-5.00000e+00	
			         0.65667	-2.00000e+00	
			         0.65833	1.00000e+00	
			         0.66000	5.00000e+00	
			         0.66167	1.10000e+01	
			         0.66333	1.90000e+01	
			         0.66500	2.80000e+01	
			         0.66667	4.00000e+01	
			         0.66833	5.40000e+01	
			         0.67000	7.00000e+01	
			         0.67167	8.90000e+01	
			         0.67333	1.10000e+02	
			         0.67500	1.33000e+02	
			         0.67667	1.57000e+02	
			         0.67833	1.81000e+02	
			         0.68000	2.03000e+02	
			         0.68167	2.21000e+02	
			         0.68333	2.35000e+02	
			         0.68500	2.43000e+02	
			         0.68667	2.44000e+02	
			         0.68833	2.38000e+02	
			         0.69000	2.26000e+02	
			         0.69167	2.06000e+02	
			         0.69333	1.81000e+02	
			         0.69500	1.51000e+02	
			         0.69667	1.17000e+02	
			         0.69833	8.10000e+01	
			         0.70000	4.50000e+01	
			         0.70167	1.10000e+01	
			         0.70333	-2.10000e+01	
			         0.70500	-4.80000e+01	
			         0.70667	-7.20000e+01	
			         0.70833	-9.00000e+01	
			         0.71000	-1.03000e+02	
			         0.71167	-1.12000e+02	
			         0.71333	-1.17000e+02	
			         0.71500	-1.18000e+02	
			         0.71667	-1.16000e+02	
			         0.71833	-1.12000e+02	
			         0.72000	-1.06000e+02	
			         0.72167	-9.90000e+01	
			         0.72333	-9.20000e+01	
			         0.72500	-8.50000e+01	
			         0.72667	-7.90000e+01	
			         0.72833	-7.30000e+01	
			         0.73000	-6.80000e+01	
			         0.73167	-6.30000e+01	
			         0.73333	-5.90000e+01	
			         0.73500	-5.60000e+01	
			         0.73667	-5.40000e+01	
			         0.73833	-5.20000e+01	
			         0.74000	-5.10000e+01	
			         0.74167	-5.00000e+01	
			         0.74333	-5.00000e+01	
			         0.74500	-4.90000e+01	
			         0.74667	-4.90000e+01	
			         0.74833	-4.80000e+01	
			         0.75000	-4.70000e+01	
			         0.75167	-4.50000e+01	
			         0.75333	-4.40000e+01	
			         0.75500	-4.10000e+01	
			         0.75667	-3.80000e+01	
			         0.75833	-3.50000e+01	
			         0.76000	-3.20000e+01	
			         0.76167	-3.00000e+01	
			         0.76333	-2.70000e+01	
			         0.76500	-2.60000e+01	
			         0.76667	-2.50000e+01	
			         0.76833	-2.40000e+01	
			         0.77000	-2.30000e+01	
			         0.77167	-2.30000e+01	
			         0.77333	-2.30000e+01	
			         0.77500	-2.30000e+01	
			         0.77667	-2.40000e+01	
			         0.77833	-2.50000e+01	
			         0.78000	-2.70000e+01	
			         0.78167	-2.80000e+01	
			         0.78333	-2.80000e+01	
			         0.78500	-2.80000e+01	
			         0.78667	-2.70000e+01	
			         0.78833	-2.60000e+01	
			         0.79000	-2.50000e+01	
			         0.79167	-2.30000e+01	
			         0.79333	-2.10000e+01	
			         0.79500	-2.00000e+01	
			         0.79667	-1.80000e+01	
			         0.79833	-1.60000e+01	
			         0.80000	-1.40000e+01	
			         0.80167	-1.20000e+01	
			         0.80333	-1.00000e+01	
			         0.80500	-9.00000e+00	
			         0.80667	-9.00000e+00	
			         0.80833	-8.00000e+00	
			         0.81000	-8.00000e+00	
			         0.81167	-8.00000e+00	
			         0.81333	-9.00000e+00	
			         0.81500	-9.00000e+00	
			         0.81667	-1.00000e+01	
			         0.81833	-1.00000e+01	
			         0.82000	-1.10000e+01	
			         0.82167	-1.10000e+01	
			         0.82333	-1.10000e+01	
			         0.82500	-1.00000e+01	
			         0.82667	-1.00000e+01	
			         0.82833	-9.00000e+00	
			         0.83000	-7.00000e+00	
			         0.83167	-5.00000e+00	
			         0.83333	-3.00000e+00	
			         0.83500	-1.00000e+00	
			         0.83667	1.00000e+00	
			         0.83833	3.00000e+00	
			         0.84000	5.00000e+00	
			         0.84167	6.00000e+00	
			         0.84333	6.00000e+00	
			         0.84500	7.00000e+00	
			         0.84667	6.00000e+00	
			         0.84833	5.00000e+00	
			         0.85000	4.00000e+00	
			         0.85167	3.00000e+00	
			         0.85333	1.00000e+00	
			         0.85500	-1.00000e+00	
			         0.85667	-3.00000e+00	
			         0.85833	-4.00000e+00	
			         0.86000	-5.00000e+00	
			         0.86167	-5.00000e+00	
			         0.86333	-4.00000e+00	
			         0.86500	-1.00000e+00	
			         0.86667	1.00000e+00	
			         0.86833	4.00000e+00	
			         0.87000	7.00000e+00	
			         0.87167	9.00000e+00	
			         0.87333	1.10000e+01	
			         0.87500	1.20000e+01	
			         0.87667	1.30000e+01	
			         0.87833	1.30000e+01	
			         0.88000	1.30000e+01	
			         0.88167	1.10000e+01	
			         0.88333	9.00000e+00	
			         0.88500	6.00000e+00	
			         0.88667	4.00000e+00	
			         0.88833	1.00000e+00	
			         0.89000	-1.00000e+00	
			         0.89167	-2.00000e+00	
			         0.89333	-2.00000e+00	
			         0.89500	-2.00000e+00	
			         0.89667	0.00000e+00	
			         0.89833	3.00000e+00	
			         0.90000	7.00000e+00	
			         0.90167	1.20000e+01	
			         0.90333	1.70000e+01	
			         0.90500	2.20000e+01	
			         0.90667	2.70000e+01	
			         0.90833	3.20000e+01	
			         0.91000	3.60000e+01	
			         0.91167	3.90000e+01	
			         0.91333	4.10000e+01	
			         0.91500	4.30000e+01	
			         0.91667	4.40000e+01	
			         0.91833	4.40000e+01	
			         0.92000	4.40000e+01	
			         0.92167	4.30000e+01	
			         0.92333	4.20000e+01	
			         0.92500	4.10000e+01	
			         0.92667	4.00000e+01	
			         0.92833	4.00000e+01	
			         0.93000	4.00000e+01	
			         0.93167	4.00000e+01	
			         0.93333	4.00000e+01	
			         0.93500	4.00000e+01	
			         0.93667	4.10000e+01	
			         0.93833	4.20000e+01	
			         0.94000	4.30000e+01	
			         0.94167	4.40000e+01	
			         0.94333	4.60000e+01	
			         0.94500	4.70000e+01	
			         0.94667	4.90000e+01	
			         0.94833	5.00000e+01	
			         0.95000	5.10000e+01	
			         0.95167	5.10000e+01	
			         0.95333	5.20000e+01	
			         0.95500	5.10000e+01	
			         0.95667	5.10000e+01	
			         0.95833	5.00000e+01	
			         0.96000	4.80000e+01	
			         0.96167	4.70000e+01	
			         0.96333	4.50000e+01	
			         0.96500	4.30000e+01	
			         0.96667	4.10000e+01	
			         0.96833	3.90000e+01	
			         0.97000	3.70000e+01	
			         0.97167	3.50000e+01	
			         0.97333	3.30000e+01	
			         0.97500	3.00000e+01	
			         0.97667	2.80000e+01	
			         0.97833	2.50000e+01	
			         0.98000	2.10000e+01	
			         0.98167	1.80000e+01	
			         0.98333	1.40000e+01	
			         0.98500	9.00000e+00	
			         0.98667	4.00000e+00	
			         0.98833	0.00000e+00	
			         0.99000	-4.00000e+00	
			         0.99167	-7.00000e+00	
			         0.99333	-1.00000e+01	
			         0.99500	-1.20000e+01	
			         0.99667	-1.30000e+01	
			         0.99833	-1.50000e+01	
			         1.00000	-1.60000e+01	
			         1.00167	-1.80000e+01	
			         1.00333	-1.90000e+01	
			         1.00500	-2.10000e+01	
			         1.00667	-2.30000e+01	
			         1.00833	-2.50000e+01	
			         1.01000	-2.80000e+01	
			         1.01167	-3.10000e+01	
			         1.01333	-3.30000e+01	
			         1.01500	-3.60000e+01	
			         1.01667	-3.70000e+01	
			         1.01833	-3.90000e+01	
			         1.02000	-3.90000e+01	
			         1.02167	-3.90000e+01	
			         1.02333	-4.00000e+01	
			         1.02500	-3.90000e+01	
			         1.02667	-3.90000e+01	
			         1.02833	-3.80000e+01	
			         1.03000	-3.70000e+01	
			         1.03167	-3.60000e+01	
			         1.03333	-3.50000e+01	
			         1.03500	-3.40000e+01	
			         1.03667	-3.40000e+01	
			         1.03833	-3.30000e+01	
			         1.04000	-3.30000e+01	
			         1.04167	-3.20000e+01	
			         1.04333	-3.10000e+01	
			         1.04500	-3.00000e+01	
			         1.04667	-2.90000e+01	
			         1.04833	-2.90000e+01	
			         1.05000	-2.90000e+01	
			         1.05167	-3.00000e+01	
			         1.05333	-3.10000e+01	
			         1.05500	-3.20000e+01	
			         1.05667	-3.30000e+01	
			         1.05833	-3.40000e+01	
			         1.06000	-3.40000e+01	
			         1.06167	-3.50000e+01	
			         1.06333	-3.60000e+01	
			         1.06500	-3.60000e+01	
			         1.06667	-3.50000e+01	
			         1.06833	-3.40000e+01	
			         1.07000	-3.30000e+01	
			         1.07167	-3.10000e+01	
			         1.07333	-2.90000e+01	
			         1.07500	-2.70000e+01	
			         1.07667	-2.50000e+01	
			         1.07833	-2.40000e+01	
			         1.08000	-2.30000e+01	
			         1.08167	-2.20000e+01	
			         1.08333	-2.10000e+01	
			         1.08500	-2.00000e+01	
			         1.08667	-2.00000e+01	
			         1.08833	-2.00000e+01	
			         1.09000	-2.00000e+01	
			         1.09167	-2.00000e+01	
			         1.09333	-2.00000e+01	
			         1.09500	-2.00000e+01	
			         1.09667	-2.00000e+01	
			         1.09833	-2.00000e+01	
			         1.10000	-2.00000e+01	
			         1.10167	-2.00000e+01	
			         1.10333	-2.00000e+01	
			         1.10500	-1.90000e+01	
			         1.10667	-1.80000e+01	
			         1.10833	-1.70000e+01	
			         1.11000	-1.50000e+01	
			         1.11167	-1.20000e+01	
			         1.11333	-1.00000e+01	
			         1.11500	-7.00000e+00	
			         1.11667	-5.00000e+00	
			         1.11833	-3.00000e+00	
			         1.12000	-1.00000e+00	
			         1.12167	0.00000e+00	
			         1.12333	1.00000e+00	
			         1.12500	1.00000e+00	
			         1.12667	1.00000e+00	
			         1.12833	0.00000e+00	
			         1.13000	-2.00000e+00	
			         1.13167	-4.00000e+00	
			         1.13333	-6.00000e+00	
			         1.13500	-8.00000e+00	
			         1.13667	-1.00000e+01	
			         1.13833	-1.10000e+01	
			         1.14000	-1.20000e+01	
			         1.14167	-1.30000e+01	
			         1.14333	-1.30000e+01	
			         1.14500	-1.30000e+01	
			         1.14667	-1.30000e+01	
			         1.14833	-1.20000e+01	
			         1.15000	-1.20000e+01	
			         1.15167	-1.10000e+01	
			         1.15333	-1.00000e+01	
			         1.15500	-9.00000e+00	
			         1.15667	-8.00000e+00	
			         1.15833	-7.00000e+00	
			         1.16000	-6.00000e+00	
			         1.16167	-5.00000e+00	
			         1.16333	-5.00000e+00	
			         1.16500	-4.00000e+00	
			         1.16667	-4.00000e+00	
			         1.16833	-4.00000e+00	
			         1.17000	-4.00000e+00	
			         1.17167	-4.00000e+00	
			         1.17333	-5.00000e+00	
			         1.17500	-5.00000e+00	
			         1.17667	-5.00000e+00	
			         1.17833	-5.00000e+00	
			         1.18000	-4.00000e+00	
			         1.18167	-4.00000e+00	
			         1.18333	-2.00000e+00	
			         1.18500	-1.00000e+00	
			         1.18667	1.00000e+00	
			         1.18833	2.00000e+00	
			         1.19000	4.00000e+00	
			         1.19167	6.00000e+00	
			         1.19333	7.00000e+00	
			         1.19500	8.00000e+00	
			         1.19667	9.00000e+00	
			         1.19833	9.00000e+00	
			         1.20000	8.00000e+00	
			         1.20167	6.00000e+00	
			         1.20333	4.00000e+00	
			         1.20500	2.00000e+00	
			         1.20667	0.00000e+00	
			         1.20833	-2.00000e+00	
			         1.21000	-4.00000e+00	
			         1.21167	-6.00000e+00	
			         1.21333	-8.00000e+00	
			         1.21500	-9.00000e+00	
			         1.21667	-1.00000e+01	
			         1.21833	-1.00000e+01	
			         1.22000	-1.10000e+01	
			         1.22167	-1.10000e+01	
			         1.22333	-1.00000e+01	
			         1.22500	-1.00000e+01	
			         1.22667	-9.00000e+00	
			         1.22833	-9.00000e+00	
			         1.23000	-8.00000e+00	
			         1.23167	-8.00000e+00	
			         1.23333	-7.00000e+00	
			         1.23500	-7.00000e+00	
			         1.23667	-6.00000e+00	
			         1.23833	-5.00000e+00	
			         1.24000	-4.00000e+00	
			         1.24167	-2.00000e+00	
			         1.24333	-1.00000e+00	
			         1.24500	1.00000e+00	
			         1.24667	2.00000e+00	
			         1.24833	3.00000e+00	
			         1.25000	3.00000e+00	
			         1.25167	3.00000e+00	
			         1.25333	3.00000e+00	
			         1.25500	2.00000e+00	
			         1.25667	2.00000e+00	
			         1.25833	1.00000e+00	
			         1.26000	0.00000e+00	
			         1.26167	0.00000e+00	
			         1.26333	-1.00000e+00	
			         1.26500	-2.00000e+00	
			         1.26667	-2.00000e+00	
			         1.26833	-2.00000e+00	
			         1.27000	-1.00000e+00	
			         1.27167	0.00000e+00	
			         1.27333	3.00000e+00	
			         1.27500	5.00000e+00	
			         1.27667	8.00000e+00	
			         1.27833	1.10000e+01	
			         1.28000	1.30000e+01	
			         1.28167	1.50000e+01	
			         1.28333	1.70000e+01	
			         1.28500	1.80000e+01	
			         1.28667	1.90000e+01	
			         1.28833	1.90000e+01	
			         1.29000	1.90000e+01	
			         1.29167	1.80000e+01	
			         1.29333	1.70000e+01	
			         1.29500	1.50000e+01	
			         1.29667	1.30000e+01	
			         1.29833	1.10000e+01	
			         1.30000	1.00000e+01	
			         1.30167	8.00000e+00	
			         1.30333	7.00000e+00	
			         1.30500	6.00000e+00	
			         1.30667	5.00000e+00	
			         1.30833	5.00000e+00	
			         1.31000	6.00000e+00	
			         1.31167	7.00000e+00	
			         1.31333	8.00000e+00	
			         1.31500	1.00000e+01	
			         1.31667	1.20000e+01	
			         1.31833	1.40000e+01	
			         1.32000	1.60000e+01	
			         1.32167	1.80000e+01	
			         1.32333	2.00000e+01	
			         1.32500	2.20000e+01	
			         1.32667	2.30000e+01	
			         1.32833	2.30000e+01	
			         1.33000	2.30000e+01	
			         1.33167	2.10000e+01	
			         1.33333	1.90000e+01	
			         1.33500	1.70000e+01	
			         1.33667	1.40000e+01	
			         1.33833	1.20000e+01	
			         1.34000	9.00000e+00	
			         1.34167	6.00000e+00	
			         1.34333	3.00000e+00	
			         1.34500	-1.00000e+00	
			         1.34667	-5.00000e+00	
			         1.34833	-9.00000e+00	
			         1.35000	-1.20000e+01	
			         1.35167	-1.50000e+01	
			         1.35333	-1.70000e+01	
			         1.35500	-1.90000e+01	
			         1.35667	-2.00000e+01	
			         1.35833	-2.20000e+01	
			         1.36000	-2.40000e+01	
			         1.36167	-2.50000e+01	
			         1.36333	-2.60000e+01	
			         1.36500	-2.60000e+01	
			         1.36667	-2.60000e+01	
			         1.36833	-2.60000e+01	
			         1.37000	-2.60000e+01	
			         1.37167	-2.70000e+01	
			         1.37333	-2.70000e+01	
			         1.37500	-2.80000e+01	
			         1.37667	-2.80000e+01	
			         1.37833	-2.80000e+01	
			         1.38000	-2.80000e+01	
			         1.38167	-2.80000e+01	
			         1.38333	-2.80000e+01	
			         1.38500	-2.70000e+01	
			         1.38667	-2.60000e+01	
			         1.38833	-2.50000e+01	
			         1.39000	-2.30000e+01	
			         1.39167	-2.10000e+01	
			         1.39333	-1.90000e+01	
			         1.39500	-1.70000e+01	
			         1.39667	-1.50000e+01	
			         1.39833	-1.30000e+01	
			         1.40000	-1.20000e+01	
			         1.40167	-1.00000e+01	
			         1.40333	-1.00000e+01	
			         1.40500	-9.00000e+00	
			         1.40667	-9.00000e+00	
			         1.40833	-9.00000e+00	
			         1.41000	-1.00000e+01	
			         1.41167	-1.00000e+01	
			         1.41333	-1.10000e+01	
			         1.41500	-1.10000e+01	
			         1.41667	-1.10000e+01	
			         1.41833	-1.10000e+01	
			         1.42000	-1.10000e+01	
			         1.42167	-1.00000e+01	
			         1.42333	-9.00000e+00	
			         1.42500	-7.00000e+00	
			         1.42667	-6.00000e+00	
			         1.42833	-3.00000e+00	
			         1.43000	0.00000e+00	
			         1.43167	5.00000e+00	
			         1.43333	1.10000e+01	
			         1.43500	1.90000e+01	
			         1.43667	2.90000e+01	
			         1.43833	4.10000e+01	
			         1.44000	5.50000e+01	
			         1.44167	7.10000e+01	
			         1.44333	9.00000e+01	
			         1.44500	1.11000e+02	
			         1.44667	1.33000e+02	
			         1.44833	1.56000e+02	
			         1.45000	1.78000e+02	
			         1.45167	1.99000e+02	
			         1.45333	2.16000e+02	
			         1.45500	2.28000e+02	
			         1.45667	2.33000e+02	
			         1.45833	2.32000e+02	
			         1.46000	2.25000e+02	
			         1.46167	2.11000e+02	
			         1.46333	1.91000e+02	
			         1.46500	1.66000e+02	
			         1.46667	1.37000e+02	
			         1.46833	1.05000e+02	
			         1.47000	7.10000e+01	
			         1.47167	3.80000e+01	
			         1.47333	7.00000e+00	
			         1.47500	-2.10000e+01	
			         1.47667	-4.50000e+01	
			         1.47833	-6.40000e+01	
			         1.48000	-7.90000e+01	
			         1.48167	-9.00000e+01	
			         1.48333	-9.70000e+01	
			         1.48500	-1.01000e+02	
			         1.48667	-1.02000e+02	
			         1.48833	-1.02000e+02	
			         1.49000	-9.90000e+01	
			         1.49167	-9.60000e+01	
			         1.49333	-9.20000e+01	
			         1.49500	-8.80000e+01	
			         1.49667	-8.40000e+01	
			         1.49833	-7.90000e+01	
			         1.50000	-7.50000e+01	
			         1.50167	-7.10000e+01	
			         1.50333	-6.60000e+01	
			         1.50500	-6.20000e+01	
			         1.50667	-5.80000e+01	
			         1.50833	-5.40000e+01	
			         1.51000	-5.10000e+01	
			         1.51167	-4.80000e+01	
			         1.51333	-4.60000e+01	
			         1.51500	-4.40000e+01	
			         1.51667	-4.30000e+01	
			         1.51833	-4.10000e+01	
			         1.52000	-4.00000e+01	
			         1.52167	-3.90000e+01	
			         1.52333	-3.80000e+01	
			         1.52500	-3.70000e+01	
			         1.52667	-3.60000e+01	
			         1.52833	-3.50000e+01	
			         1.53000	-3.50000e+01	
			         1.53167	-3.50000e+01	
			         1.53333	-3.50000e+01	
			         1.53500	-3.50000e+01	
			         1.53667	-3.50000e+01	
			         1.53833	-3.50000e+01	
			         1.54000	-3.50000e+01	
			         1.54167	-3.50000e+01	
			         1.54333	-3.50000e+01	
			         1.54500	-3.40000e+01	
			         1.54667	-3.30000e+01	
			         1.54833	-3.20000e+01	
			         1.55000	-3.00000e+01	
			         1.55167	-2.80000e+01	
			         1.55333	-2.60000e+01	
			         1.55500	-2.30000e+01	
			         1.55667	-2.10000e+01	
			         1.55833	-1.90000e+01	
			         1.56000	-1.80000e+01	
			         1.56167	-1.70000e+01	
			         1.56333	-1.60000e+01	
			         1.56500	-1.60000e+01	
			         1.56667	-1.60000e+01	
			         1.56833	-1.60000e+01	
			         1.57000	-1.60000e+01	
			         1.57167	-1.60000e+01	
			         1.57333	-1.60000e+01	
			         1.57500	-1.60000e+01	
			         1.57667	-1.60000e+01	
			         1.57833	-1.60000e+01	
			         1.58000	-1.60000e+01	
			         1.58167	-1.60000e+01	
			         1.58333	-1.50000e+01	
			         1.58500	-1.40000e+01	
			         1.58667	-1.30000e+01	
			         1.58833	-1.20000e+01	
			         1.59000	-1.10000e+01	
			         1.59167	-1.00000e+01	
			         1.59333	-9.00000e+00	
			         1.59500	-7.00000e+00	
			         1.59667	-6.00000e+00	
			         1.59833	-4.00000e+00	
			         1.60000	-2.00000e+00	
			         1.60167	-1.00000e+00	
			         1.60333	0.00000e+00	
			         1.60500	0.00000e+00	
			         1.60667	1.00000e+00	
			         1.60833	1.00000e+00	
			         1.61000	1.00000e+00	
			         1.61167	1.00000e+00	
			         1.61333	1.00000e+00	
			         1.61500	0.00000e+00	
			         1.61667	-1.00000e+00	
			         1.61833	-1.00000e+00	
			         1.62000	-1.00000e+00	
			         1.62167	0.00000e+00	
			         1.62333	0.00000e+00	
			         1.62500	1.00000e+00	
			         1.62667	1.00000e+00	
			         1.62833	2.00000e+00	
			         1.63000	2.00000e+00	
			         1.63167	3.00000e+00	
			         1.63333	3.00000e+00	
			         1.63500	3.00000e+00	
			         1.63667	3.00000e+00	
			         1.63833	3.00000e+00	
			         1.64000	3.00000e+00	
			         1.64167	2.00000e+00	
			         1.64333	3.00000e+00	
			         1.64500	3.00000e+00	
			         1.64667	4.00000e+00	
			         1.64833	5.00000e+00	
			         1.65000	6.00000e+00	
			         1.65167	7.00000e+00	
			         1.65333	7.00000e+00	
			         1.65500	7.00000e+00	
			         1.65667	8.00000e+00	
			         1.65833	8.00000e+00	
			         1.66000	8.00000e+00	
			         1.66167	9.00000e+00	
			         1.66333	1.00000e+01	
			         1.66500	1.00000e+01	
			         1.66667	1.00000e+01	
			         1.66833	1.10000e+01	
			         1.67000	1.10000e+01	
			         1.67167	1.20000e+01	
			         1.67333	1.40000e+01	
			         1.67500	1.60000e+01	
			         1.67667	1.90000e+01	
			         1.67833	2.20000e+01	
			         1.68000	2.40000e+01	
			         1.68167	2.70000e+01	
			         1.68333	2.90000e+01	
			         1.68500	3.20000e+01	
			         1.68667	3.40000e+01	
			         1.68833	3.60000e+01	
			         1.69000	3.80000e+01	
			         1.69167	4.00000e+01	
			         1.69333	4.00000e+01	
			         1.69500	4.10000e+01	
			         1.69667	4.10000e+01	
			         1.69833	4.10000e+01	
			         1.70000	4.10000e+01	
			         1.70167	4.10000e+01	
			         1.70333	4.10000e+01	
			         1.70500	4.20000e+01	
			         1.70667	4.20000e+01	
			         1.70833	4.30000e+01	
			         1.71000	4.30000e+01	
			         1.71167	4.30000e+01	
			         1.71333	4.20000e+01	
			         1.71500	4.20000e+01	
			         1.71667	4.20000e+01	
			         1.71833	4.10000e+01	
			         1.72000	4.00000e+01	
			         1.72167	3.80000e+01	
			         1.72333	3.70000e+01	
			         1.72500	3.50000e+01	
			         1.72667	3.40000e+01	
			         1.72833	3.30000e+01	
			         1.73000	3.20000e+01	
			         1.73167	3.20000e+01	
			         1.73333	3.20000e+01	
			         1.73500	3.20000e+01	
			         1.73667	3.20000e+01	
			         1.73833	3.20000e+01	
			         1.74000	3.20000e+01	
			         1.74167	3.10000e+01	
			         1.74333	2.90000e+01	
			         1.74500	2.70000e+01	
			         1.74667	2.40000e+01	
			         1.74833	2.10000e+01	
			         1.75000	1.70000e+01	
			         1.75167	1.40000e+01	
			         1.75333	1.10000e+01	
			         1.75500	8.00000e+00	
			         1.75667	5.00000e+00	
			         1.75833	2.00000e+00	
			         1.76000	0.00000e+00	
			         1.76167	-2.00000e+00	
			         1.76333	-4.00000e+00	
			         1.76500	-6.00000e+00	
			         1.76667	-7.00000e+00	
			         1.76833	-7.00000e+00	
			         1.77000	-8.00000e+00	
			         1.77167	-8.00000e+00	
			         1.77333	-8.00000e+00	
			         1.77500	-9.00000e+00	
			         1.77667	-1.00000e+01	
			         1.77833	-1.20000e+01	
			         1.78000	-1.40000e+01	
			         1.78167	-1.70000e+01	
			         1.78333	-1.90000e+01	
			         1.78500	-2.20000e+01	
			         1.78667	-2.50000e+01	
			         1.78833	-2.70000e+01	
			         1.79000	-3.00000e+01	
			         1.79167	-3.30000e+01	
			         1.79333	-3.60000e+01	
			         1.79500	-3.80000e+01	
			         1.79667	-3.90000e+01	
			         1.79833	-4.00000e+01	
			         1.80000	-3.90000e+01	
			         1.80167	-3.80000e+01	
			         1.80333	-3.70000e+01	
			         1.80500	-3.60000e+01	
			         1.80667	-3.40000e+01	
			         1.80833	-3.30000e+01	
			         1.81000	-3.10000e+01	
			         1.81167	-3.00000e+01	
			         1.81333	-2.80000e+01	
			         1.81500	-2.70000e+01	
			         1.81667	-2.70000e+01	
			         1.81833	-2.60000e+01	
			         1.82000	-2.60000e+01	
			         1.82167	-2.50000e+01	
			         1.82333	-2.40000e+01	
			         1.82500	-2.30000e+01	
			         1.82667	-2.20000e+01	
			         1.82833	-2.20000e+01	
			         1.83000	-2.10000e+01	
			         1.83167	-2.10000e+01	
			         1.83333	-2.10000e+01	
			         1.83500	-2.10000e+01	
			         1.83667	-2.20000e+01	
			         1.83833	-2.20000e+01	
			         1.84000	-2.20000e+01	
			         1.84167	-2.20000e+01	
			         1.84333	-2.20000e+01	
			         1.84500	-2.20000e+01	
			         1.84667	-2.20000e+01	
			         1.84833	-2.20000e+01	
			         1.85000	-2.20000e+01	
			         1.85167	-2.10000e+01	
			         1.85333	-2.00000e+01	
			         1.85500	-1.90000e+01	
			         1.85667	-1.80000e+01	
			         1.85833	-1.80000e+01	
			         1.86000	-1.70000e+01	
			         1.86167	-1.60000e+01	
			         1.86333	-1.50000e+01	
			         1.86500	-1.50000e+01	
			         1.86667	-1.50000e+01	
			         1.86833	-1.50000e+01	
			         1.87000	-1.60000e+01	
			         1.87167	-1.60000e+01	
			         1.87333	-1.70000e+01	
			         1.87500	-1.70000e+01	
			         1.87667	-1.70000e+01	
			         1.87833	-1.70000e+01	
			         1.88000	-1.70000e+01	
			         1.88167	-1.60000e+01	
			         1.88333	-1.50000e+01	
			         1.88500	-1.40000e+01	
			         1.88667	-1.20000e+01	
			         1.88833	-1.10000e+01	
			         1.89000	-9.00000e+00	
			         1.89167	-8.00000e+00	
			         1.89333	-6.00000e+00	
			         1.89500	-4.00000e+00	
			         1.89667	-2.00000e+00	
			         1.89833	-1.00000e+00	
			         1.90000	0.00000e+00	
			         1.90167	2.00000e+00	
			         1.90333	3.00000e+00	
			         1.90500	4.00000e+00	
			         1.90667	5.00000e+00	
			         1.90833	7.00000e+00	
			         1.91000	7.00000e+00	
			         1.91167	8.00000e+00	
			         1.91333	8.00000e+00	
			         1.91500	8.00000e+00	
			         1.91667	7.00000e+00	
			         1.91833	6.00000e+00	
			         1.92000	5.00000e+00	
			         1.92167	4.00000e+00	
			         1.92333	2.00000e+00	
			         1.92500	0.00000e+00	
			         1.92667	-2.00000e+00	
			         1.92833	-4.00000e+00	
			         1.93000	-5.00000e+00	
			         1.93167	-5.00000e+00	
			         1.93333	-5.00000e+00	
			         1.93500	-4.00000e+00	
			         1.93667	-2.00000e+00	
			         1.93833	0.00000e+00	
			         1.94000	2.00000e+00	
			         1.94167	4.00000e+00	
			         1.94333	6.00000e+00	
			         1.94500	7.00000e+00	
			         1.94667	9.00000e+00	
			         1.94833	1.00000e+01	
			         1.95000	1.00000e+01	
			         1.95167	1.00000e+01	
			         1.95333	9.00000e+00	
			         1.95500	8.00000e+00	
			         1.95667	6.00000e+00	
			         1.95833	5.00000e+00	
			         1.96000	3.00000e+00	
			         1.96167	2.00000e+00	
			         1.96333	1.00000e+00	
			         1.96500	1.00000e+00	
			         1.96667	1.00000e+00	
			         1.96833	1.00000e+00	
			         1.97000	1.00000e+00	
			         1.97167	1.00000e+00	
			         1.97333	1.00000e+00	
			         1.97500	2.00000e+00	
			         1.97667	2.00000e+00	
			         1.97833	2.00000e+00	
			         1.98000	3.00000e+00	
			         1.98167	2.00000e+00	
			         1.98333	2.00000e+00	
			         1.98500	2.00000e+00	
			         1.98667	2.00000e+00	
			         1.98833	1.00000e+00	
			         1.99000	1.00000e+00	
			         1.99167	0.00000e+00	
			         1.99333	-1.00000e+00	
			         1.99500	-2.00000e+00	
			         1.99667	-3.00000e+00	
			         1.99833	-4.00000e+00	
			         2.00000	-5.00000e+00	
			         2.00167	-6.00000e+00	
			         2.00333	-6.00000e+00	
			         2.00500	-6.00000e+00	
			         2.00667	-6.00000e+00	
			         2.00833	-6.00000e+00	
			         2.01000	-6.00000e+00	
			         2.01167	-5.00000e+00	
			         2.01333	-5.00000e+00	
			         2.01500	-4.00000e+00	
			         2.01667	-3.00000e+00	
			         2.01833	-2.00000e+00	
			         2.02000	-2.00000e+00	
			         2.02167	-2.00000e+00	
			         2.02333	-2.00000e+00	
			         2.02500	-3.00000e+00	
			         2.02667	-4.00000e+00	
			         2.02833	-5.00000e+00	
			         2.03000	-6.00000e+00	
			         2.03167	-6.00000e+00	
			         2.03333	-5.00000e+00	
			         2.03500	-5.00000e+00	
			         2.03667	-5.00000e+00	
			         2.03833	-4.00000e+00	
			         2.04000	-4.00000e+00	
			         2.04167	-3.00000e+00	
			         2.04333	-2.00000e+00	
			         2.04500	-1.00000e+00	
			         2.04667	0.00000e+00	
			         2.04833	1.00000e+00	
			         2.05000	2.00000e+00	
			         2.05167	3.00000e+00	
			         2.05333	4.00000e+00	
			         2.05500	5.00000e+00	
			         2.05667	6.00000e+00	
			         2.05833	8.00000e+00	
			         2.06000	1.00000e+01	
			         2.06167	1.20000e+01	
			         2.06333	1.30000e+01	
			         2.06500	1.40000e+01	
			         2.06667	1.60000e+01	
			         2.06833	1.60000e+01	
			         2.07000	1.70000e+01	
			         2.07167	1.70000e+01	
			         2.07333	1.70000e+01	
			         2.07500	1.70000e+01	
			         2.07667	1.70000e+01	
			         2.07833	1.70000e+01	
			         2.08000	1.60000e+01	
			         2.08167	1.60000e+01	
			         2.08333	1.60000e+01	
			         2.08500	1.60000e+01	
			         2.08667	1.70000e+01	
			         2.08833	1.80000e+01	
			         2.09000	1.90000e+01	
			         2.09167	2.00000e+01	
			         2.09333	2.00000e+01	
			         2.09500	2.10000e+01	
			         2.09667	2.10000e+01	
			         2.09833	2.10000e+01	
			         2.10000	2.00000e+01	
			         2.10167	1.90000e+01	
			         2.10333	1.80000e+01	
			         2.10500	1.70000e+01	
			         2.10667	1.50000e+01	
			         2.10833	1.30000e+01	
			         2.11000	1.00000e+01	
			         2.11167	7.00000e+00	
			         2.11333	5.00000e+00	
			         2.11500	3.00000e+00	
			         2.11667	0.00000e+00	
			         2.11833	-2.00000e+00	
			         2.12000	-5.00000e+00	
			         2.12167	-7.00000e+00	
			         2.12333	-1.00000e+01	
			         2.12500	-1.20000e+01	
			         2.12667	-1.40000e+01	
			         2.12833	-1.60000e+01	
			         2.13000	-1.80000e+01	
			         2.13167	-1.90000e+01	
			         2.13333	-2.10000e+01	
			         2.13500	-2.20000e+01	
			         2.13667	-2.20000e+01	
			         2.13833	-2.20000e+01	
			         2.14000	-2.20000e+01	
			         2.14167	-2.20000e+01	
			         2.14333	-2.20000e+01	
			         2.14500	-2.20000e+01	
			         2.14667	-2.10000e+01	
			         2.14833	-2.10000e+01	
			         2.15000	-2.10000e+01	
			         2.15167	-2.00000e+01	
			         2.15333	-2.00000e+01	
			         2.15500	-1.90000e+01	
			         2.15667	-1.90000e+01	
			         2.15833	-1.90000e+01	
			         2.16000	-1.80000e+01	
			         2.16167	-1.70000e+01	
			         2.16333	-1.60000e+01	
			         2.16500	-1.60000e+01	
			         2.16667	-1.60000e+01	
			         2.16833	-1.60000e+01	
			         2.17000	-1.60000e+01	
			         2.17167	-1.60000e+01	
			         2.17333	-1.70000e+01	
			         2.17500	-1.80000e+01	
			         2.17667	-1.90000e+01	
			         2.17833	-1.90000e+01	
			         2.18000	-2.00000e+01	
			         2.18167	-2.00000e+01	
			         2.18333	-1.90000e+01	
			         2.18500	-1.80000e+01	
			         2.18667	-1.60000e+01	
			         2.18833	-1.40000e+01	
			         2.19000	-1.10000e+01	
			         2.19167	-9.00000e+00	
			         2.19333	-6.00000e+00	
			         2.19500	-4.00000e+00	
			         2.19667	-2.00000e+00	
			         2.19833	-1.00000e+00	
			         2.20000	0.00000e+00	
			         2.20167	2.00000e+00	
			         2.20333	3.00000e+00	
			         2.20500	5.00000e+00	
			         2.20667	7.00000e+00	
			         2.20833	1.10000e+01	
			         2.21000	1.70000e+01	
			         2.21167	2.50000e+01	
			         2.21333	3.60000e+01	
			         2.21500	5.00000e+01	
			         2.21667	6.60000e+01	
			         2.21833	8.60000e+01	
			         2.22000	1.08000e+02	
			         2.22167	1.32000e+02	
			         2.22333	1.57000e+02	
			         2.22500	1.83000e+02	
			         2.22667	2.08000e+02	
			         2.22833	2.30000e+02	
			         2.23000	2.49000e+02	
			         2.23167	2.61000e+02	
			         2.23333	2.67000e+02	
			         2.23500	2.67000e+02	
			         2.23667	2.59000e+02	
			         2.23833	2.43000e+02	
			         2.24000	2.21000e+02	
			         2.24167	1.93000e+02	
			         2.24333	1.61000e+02	
			         2.24500	1.24000e+02	
			         2.24667	8.70000e+01	
			         2.24833	4.90000e+01	
			         2.25000	1.40000e+01	
			         2.25167	-1.80000e+01	
			         2.25333	-4.60000e+01	
			         2.25500	-6.90000e+01	
			         2.25667	-8.70000e+01	
			         2.25833	-9.90000e+01	
			         2.26000	-1.06000e+02	
			         2.26167	-1.09000e+02	
			         2.26333	-1.09000e+02	
			         2.26500	-1.06000e+02	
			         2.26667	-1.01000e+02	
			         2.26833	-9.50000e+01	
