Velocity (TVI), in cm/s

Time (s) :	Trace 1 : 		Ecg : 		
0.01707   	2.73302e+00		         0.00000	2.05000e+02	
0.02618   	2.18720e+00		         0.00167	2.29000e+02	
0.03528   	1.03415e+00		         0.00333	2.53000e+02	
0.04466   	-5.83125e-01		         0.00500	2.74000e+02	
0.05375   	-4.03802e-01		         0.00667	2.91000e+02	
0.06285   	9.11696e-01		         0.00833	3.02000e+02	
0.07195   	3.59077e+00		         0.01000	3.07000e+02	
0.08132   	5.53863e+00		         0.01167	3.05000e+02	
0.09042   	6.92401e+00		         0.01333	2.95000e+02	
0.09952   	7.57454e+00		         0.01500	2.77000e+02	
0.10862   	7.66521e+00		         0.01667	2.52000e+02	
0.11799   	7.71926e+00		         0.01833	2.19000e+02	
0.12709   	7.48783e+00		         0.02000	1.80000e+02	
0.13620   	7.18151e+00		         0.02167	1.36000e+02	
0.14554   	6.82908e+00		         0.02333	9.00000e+01	
0.15466   	6.57319e+00		         0.02500	4.30000e+01	
0.16376   	6.33297e+00		         0.02667	-2.00000e+00	
0.17286   	6.06391e+00		         0.02833	-4.30000e+01	
0.18196   	5.88280e+00		         0.03000	-8.00000e+01	
0.19133   	5.77423e+00		         0.03167	-1.10000e+02	
0.20043   	5.80477e+00		         0.03333	-1.33000e+02	
0.20954   	5.81782e+00		         0.03500	-1.50000e+02	
0.21864   	5.75520e+00		         0.03667	-1.59000e+02	
0.22801   	5.50086e+00		         0.03833	-1.63000e+02	
0.23711   	5.17076e+00		         0.04000	-1.62000e+02	
0.24621   	4.83711e+00		         0.04167	-1.57000e+02	
0.25531   	4.63083e+00		         0.04333	-1.48000e+02	
0.26468   	4.51672e+00		         0.04500	-1.38000e+02	
0.27378   	4.36950e+00		         0.04667	-1.26000e+02	
0.28288   	4.23156e+00		         0.04833	-1.15000e+02	
0.29198   	3.97557e+00		         0.05000	-1.03000e+02	
0.30135   	3.72301e+00		         0.05167	-9.30000e+01	
0.31045   	3.43610e+00		         0.05333	-8.30000e+01	
0.31955   	3.15574e+00		         0.05500	-7.50000e+01	
0.32865   	2.89493e+00		         0.05667	-6.80000e+01	
0.33802   	2.52502e+00		         0.05833	-6.20000e+01	
0.34713   	2.20020e+00		         0.06000	-5.70000e+01	
0.35623   	1.70594e+00		         0.06167	-5.30000e+01	
0.36533   	1.16092e+00		         0.06333	-5.10000e+01	
0.37470   	1.45940e-01		         0.06500	-4.90000e+01	
0.38380   	-8.82510e-01		         0.06667	-4.70000e+01	
0.39290   	-2.10994e+00		         0.06833	-4.60000e+01	
0.40200   	-2.88513e+00		         0.07000	-4.60000e+01	
0.41138   	-3.02235e+00		         0.07167	-4.50000e+01	
0.42047   	-2.24203e+00		         0.07333	-4.40000e+01	
0.42957   	-1.17253e+00		         0.07500	-4.40000e+01	
0.43867   	-3.06421e-01		         0.07667	-4.30000e+01	
0.44804   	2.13131e-01		         0.07833	-4.30000e+01	
0.45714   	5.56730e-01		         0.08000	-4.20000e+01	
0.46624   	7.13731e-01		         0.08167	-4.20000e+01	
0.47534   	4.01644e-01		         0.08333	-4.10000e+01	
0.48471   	-3.23932e-01		         0.08500	-4.10000e+01	
0.49381   	-1.42266e+00		         0.08667	-4.00000e+01	
0.50292   	-2.64921e+00		         0.08833	-3.90000e+01	
0.51202   	-3.69434e+00		         0.09000	-3.80000e+01	
0.52139   	-4.60252e+00		         0.09167	-3.80000e+01	
0.53049   	-5.10016e+00		         0.09333	-3.70000e+01	
0.53959   	-5.47063e+00		         0.09500	-3.60000e+01	
0.54869   	-5.49259e+00		         0.09667	-3.50000e+01	
0.55806   	-5.46765e+00		         0.09833	-3.50000e+01	
0.56716   	-5.23402e+00		         0.10000	-3.40000e+01	
0.57626   	-5.08874e+00		         0.10167	-3.30000e+01	
0.58536   	-4.77876e+00		         0.10333	-3.20000e+01	
0.59473   	-4.41306e+00		         0.10500	-3.10000e+01	
0.60383   	-3.89071e+00		         0.10667	-2.90000e+01	
0.61293   	-3.29087e+00		         0.10833	-2.80000e+01	
0.62203   	-2.72479e+00		         0.11000	-2.70000e+01	
0.63140   	-2.17351e+00		         0.11167	-2.50000e+01	
0.64051   	-1.76050e+00		         0.11333	-2.40000e+01	
0.64960   	-1.41692e+00		         0.11500	-2.20000e+01	
0.65870   	-1.12495e+00		         0.11667	-2.10000e+01	
0.66808   	-8.58156e-01		         0.11833	-1.90000e+01	
0.67718   	-6.22176e-01		         0.12000	-1.80000e+01	
0.68628   	-4.47825e-01		         0.12167	-1.70000e+01	
0.69538   	-3.38164e-01		         0.12333	-1.50000e+01	
0.70475   	-3.10403e-01		         0.12500	-1.40000e+01	
0.71385   	-2.64544e-01		         0.12667	-1.30000e+01	
0.72295   	-2.51510e-01		         0.12833	-1.20000e+01	
0.73205   	-2.19401e-01		         0.13000	-1.10000e+01	
0.74142   	-2.77772e-01		         0.13167	-1.00000e+01	
0.75052   	-3.82861e-01		         0.13333	-9.00000e+00	
0.75963   	-4.96170e-01		         0.13500	-8.00000e+00	
0.76872   	-5.43278e-01		         0.13667	-7.00000e+00	
0.77810   	-5.47215e-01		         0.13833	-6.00000e+00	
0.78719   	-5.65230e-01		         0.14000	-4.00000e+00	
0.79629   	-6.06664e-01		         0.14167	-3.00000e+00	
0.80540   	-6.32153e-01		         0.14333	-2.00000e+00	
0.81477   	-6.50181e-01		         0.14500	-2.00000e+00	
0.82387   	-6.71978e-01		         0.14667	-1.00000e+00	
0.83297   	-7.29466e-01		         0.14833	0.00000e+00	
0.84207   	-7.86214e-01		         0.15000	1.00000e+00	
0.85143   	-7.78706e-01		         0.15167	1.00000e+00	
0.86054   	-7.21829e-01		         0.15333	2.00000e+00	
0.86964   	-6.52855e-01		         0.15500	3.00000e+00	
0.87874   	-6.52595e-01		         0.15667	3.00000e+00	
0.88811   	-6.67383e-01		         0.15833	4.00000e+00	
0.89721   	-6.08880e-01		         0.16000	5.00000e+00	
0.90631   	-5.27965e-01		         0.16167	6.00000e+00	
0.91542   	-4.61564e-01		         0.16333	6.00000e+00	
0.92478   	-4.63161e-01		         0.16500	7.00000e+00	
0.93389   	-5.00550e-01		         0.16667	8.00000e+00	
0.94298   	-4.92236e-01		         0.16833	9.00000e+00	
0.95209   	-4.34629e-01		         0.17000	1.00000e+01	
0.96146   	-3.45060e-01		         0.17167	1.00000e+01	
0.97055   	-2.73054e-01		         0.17333	1.10000e+01	
0.97966   	-2.65365e-01		         0.17500	1.10000e+01	
0.98876   	-2.48643e-01		         0.17667	1.20000e+01	
0.99813   	-2.75984e-01		         0.17833	1.20000e+01	
1.00723   	-3.52089e-01		         0.18000	1.30000e+01	
1.01633   	-5.83207e-01		         0.18167	1.40000e+01	
1.02543   	-9.98845e-01		         0.18333	1.40000e+01	
1.03480   	-1.69906e+00		         0.18500	1.50000e+01	
1.04390   	-2.78699e+00		         0.18667	1.60000e+01	
1.05300   	-4.46048e+00		         0.18833	1.70000e+01	
1.06210   	-6.52753e+00		         0.19000	1.80000e+01	
1.07147   	-8.52997e+00		         0.19167	2.00000e+01	
1.08057   	-9.78846e+00		         0.19333	2.10000e+01	
1.08967   	-1.00787e+01		         0.19500	2.20000e+01	
1.09878   	-9.78690e+00		         0.19667	2.40000e+01	
1.10814   	-8.79902e+00		         0.19833	2.50000e+01	
1.11725   	-7.59432e+00		         0.20000	2.60000e+01	
1.12635   	-6.04796e+00		         0.20167	2.60000e+01	
1.13545   	-4.92077e+00		         0.20333	2.70000e+01	
1.14482   	-3.84998e+00		         0.20500	2.80000e+01	
1.15392   	-3.50490e+00		         0.20667	2.80000e+01	
1.16302   	-3.74107e+00		         0.20833	2.90000e+01	
1.17212   	-4.33502e+00		         0.21000	2.90000e+01	
1.18149   	-2.99479e+00		         0.21167	3.00000e+01	
1.19059   	-1.08302e+00		         0.21333	3.00000e+01	
1.19969   	8.58202e-01		         0.21500	3.20000e+01	
1.20879   	9.99753e-01		         0.21667	3.30000e+01	
1.21816   	9.60940e-01		         0.21833	3.50000e+01	
1.22726   	8.86132e-01		         0.22000	3.70000e+01	
1.23636   	1.18563e+00		         0.22167	4.00000e+01	
1.24546   	2.30192e+00		         0.22333	4.30000e+01	
1.25483   	3.24412e+00		         0.22500	4.60000e+01	
1.26394   	3.55781e+00		         0.22667	4.90000e+01	
1.27303   	2.27831e+00		         0.22833	5.30000e+01	
1.28214   	2.27436e-01		         0.23000	5.60000e+01	
1.29151   	-1.04088e+00		         0.23167	6.00000e+01	
1.30061   	-2.14773e-02		         0.23333	6.40000e+01	
1.30971   	2.20112e+00		         0.23500	6.80000e+01	
1.31881   	4.62576e+00		         0.23667	7.20000e+01	
1.32818   	5.58890e+00		         0.23833	7.60000e+01	
1.33728   	6.32139e+00		         0.24000	7.90000e+01	
1.34638   	6.54921e+00		         0.24167	8.30000e+01	
1.35548   	6.56892e+00		         0.24333	8.70000e+01	
1.36485   	6.56489e+00		         0.24500	9.10000e+01	
1.37395   	6.51411e+00		         0.24667	9.50000e+01	
1.38305   	6.50408e+00		         0.24833	9.90000e+01	
1.39215   	6.37187e+00		         0.25000	1.03000e+02	
1.40152   	6.06311e+00		         0.25167	1.07000e+02	
1.41062   	5.95125e+00		         0.25333	1.11000e+02	
1.41973   	5.86790e+00		         0.25500	1.15000e+02	
1.42882   	5.97681e+00		         0.25667	1.19000e+02	
1.43820   	5.87110e+00		         0.25833	1.24000e+02	
1.44730   	5.77261e+00		         0.26000	1.28000e+02	
1.45640   	5.56522e+00		         0.26167	1.33000e+02	
1.46550   	5.34853e+00		         0.26333	1.37000e+02	
1.47487   	5.06369e+00		         0.26500	1.42000e+02	
1.48397   	4.75853e+00		         0.26667	1.47000e+02	
1.49307   	4.53451e+00		         0.26833	1.52000e+02	
1.50217   	4.34673e+00		         0.27000	1.57000e+02	
1.51154   	4.17089e+00		         0.27167	1.62000e+02	
1.52064   	3.94931e+00		         0.27333	1.67000e+02	
1.52974   	3.74663e+00		         0.27500	1.72000e+02	
1.53884   	3.52985e+00		         0.27667	1.77000e+02	
1.54821   	3.30385e+00		         0.27833	1.82000e+02	
1.55731   	3.13099e+00		         0.28000	1.86000e+02	
1.56642   	2.95106e+00		         0.28167	1.91000e+02	
1.57551   	2.75030e+00		         0.28333	1.94000e+02	
1.58488   	2.39519e+00		         0.28500	1.97000e+02	
1.59399   	2.13094e+00		         0.28667	2.00000e+02	
1.60309   	1.82969e+00		         0.28833	2.02000e+02	
1.61219   	1.57207e+00		         0.29000	2.04000e+02	
1.62156   	1.11593e+00		         0.29167	2.05000e+02	
1.63066   	2.44691e-01		         0.29333	2.05000e+02	
1.63980   	-7.63870e-01		         0.29500	2.05000e+02	
1.64886   	-1.28495e+00		         0.29667	2.05000e+02	
1.65823   	-8.63836e-01		         0.29833	2.04000e+02	
1.66733   	2.20590e-01		         0.30000	2.03000e+02	
1.67643   	6.27417e-01		         0.30167	2.01000e+02	
1.68554   	8.44671e-01		         0.30333	1.99000e+02	
1.69490   	7.26197e-01		         0.30500	1.97000e+02	
1.70400   	8.17043e-01		         0.30667	1.94000e+02	
1.71311   	5.52919e-01		         0.30833	1.91000e+02	
1.72220   	-1.31296e-01		         0.31000	1.88000e+02	
1.73158   	-6.36994e-01		         0.31167	1.84000e+02	
1.74068   	-1.69366e+00		         0.31333	1.79000e+02	
1.74978   	-2.65302e+00		         0.31500	1.74000e+02	
1.75888   	-4.05629e+00		         0.31667	1.68000e+02	
1.76825   	-4.82043e+00		         0.31833	1.62000e+02	
1.77735   	-5.39201e+00		         0.32000	1.54000e+02	
1.78645   	-5.46247e+00		         0.32167	1.47000e+02	
1.79556   	-5.33110e+00		         0.32333	1.38000e+02	
1.80492   	-5.26499e+00		         0.32500	1.29000e+02	
1.81402   	-5.29146e+00		         0.32667	1.19000e+02	
1.82312   	-5.39143e+00		         0.32833	1.09000e+02	
1.83222   	-5.20539e+00		         0.33000	9.80000e+01	
1.84159   	-4.81037e+00		         0.33167	8.60000e+01	
1.85069   	-4.18673e+00		         0.33333	7.40000e+01	
1.85979   	-3.59638e+00		         0.33500	6.10000e+01	
1.86890   	-2.83599e+00		         0.33667	4.90000e+01	
1.87826   	-2.23246e+00		         0.33833	3.60000e+01	
1.88736   	-1.62601e+00		         0.34000	2.30000e+01	
1.89647   	-1.33225e+00		         0.34167	1.00000e+01	
1.90557   	-7.18248e-01		         0.34333	-3.00000e+00	
1.91494   	-6.45510e-01		         0.34500	-1.50000e+01	
1.92404   	-2.89274e-01		         0.34667	-2.80000e+01	
1.93314   	-4.86256e-01		         0.34833	-4.00000e+01	
1.94224   	-8.20546e-02		         0.35000	-5.20000e+01	
1.95161   	-1.68587e-01		         0.35167	-6.40000e+01	
1.96071   	-1.50644e-01		         0.35333	-7.40000e+01	
1.96981   	-2.43576e-01		         0.35500	-8.50000e+01	
1.97891   	-7.62232e-02		         0.35667	-9.40000e+01	
1.98846   	-2.39988e-01		         0.35833	-1.03000e+02	
1.99739   	-3.73044e-01		         0.36000	-1.12000e+02	
2.00648   	-3.48175e-01		         0.36167	-1.19000e+02	
2.01558   	-4.88923e-01		         0.36333	-1.27000e+02	
2.02496   	-6.48041e-01		         0.36500	-1.33000e+02	
2.03406   	-7.92652e-01		         0.36667	-1.38000e+02	
2.04315   	-4.00470e-01		         0.36833	-1.43000e+02	
2.05226   	-4.63043e-01		         0.37000	-1.47000e+02	
2.06163   	-3.77878e-01		         0.37167	-1.51000e+02	
2.07073   	-6.06058e-01		         0.37333	-1.54000e+02	
2.07983   	-8.74281e-01		         0.37500	-1.56000e+02	
2.08893   	-1.67128e+00		         0.37667	-1.58000e+02	
2.09830   	-2.04604e+00		         0.37833	-1.59000e+02	
2.10740   	-1.63158e+00		         0.38000	-1.61000e+02	
2.11650   	-1.54730e+00		         0.38167	-1.61000e+02	
2.12560   	-1.39961e+00		         0.38333	-1.62000e+02	
2.13497   	-1.52291e+00		         0.38500	-1.62000e+02	
2.14407   	-1.39504e+00		         0.38667	-1.61000e+02	
2.15317   	-1.08022e+00		         0.38833	-1.61000e+02	
2.16228   	-8.60557e-01		         0.39000	-1.60000e+02	
2.17164   	-6.11943e-01		         0.39167	-1.59000e+02	
2.18074   	-6.55201e-01		         0.39333	-1.58000e+02	
2.18984   	-7.44766e-01		         0.39500	-1.56000e+02	
2.19895   	-6.39457e-01		         0.39667	-1.55000e+02	
2.20832   	-4.78697e-01		         0.39833	-1.53000e+02	
2.21742   	-4.14128e-01		         0.40000	-1.51000e+02	
2.22652   	-5.52144e-01		         0.40167	-1.49000e+02	
2.23562   	-8.81645e-01		         0.40333	-1.47000e+02	
2.24499   	-8.51402e-01		         0.40500	-1.45000e+02	
2.25423   	-6.80213e-01		         0.40667	-1.42000e+02	
2.26319   	-5.00768e-01		         0.40833	-1.40000e+02	
2.27229   	-6.70171e-01		         0.41000	-1.38000e+02	
2.28166   	-7.98057e-01		         0.41167	-1.35000e+02	
2.29076   	-1.08873e+00		         0.41333	-1.33000e+02	
2.29986   	-1.82776e+00		         0.41500	-1.30000e+02	
2.30896   	-3.05675e+00		         0.41667	-1.27000e+02	
2.31833   	-4.91431e+00		         0.41833	-1.25000e+02	
2.32744   	-8.21238e+00		         0.42000	-1.22000e+02	
2.33653   	-9.20188e+00		         0.42167	-1.19000e+02	
2.34564   	-9.88133e+00		         0.42333	-1.16000e+02	
2.35501   	-7.87938e+00		         0.42500	-1.13000e+02	
2.36411   	-7.84693e+00		         0.42667	-1.10000e+02	
2.37321   	-7.28005e+00		         0.42833	-1.07000e+02	
2.38231   	-7.01869e+00		         0.43000	-1.04000e+02	
2.39168   	-6.06049e+00		         0.43167	-1.01000e+02	
2.40078   	-5.12353e+00		         0.43333	-9.80000e+01	
2.40988   	-4.26095e+00		         0.43500	-9.50000e+01	
2.41898   	-4.49512e+00		         0.43667	-9.20000e+01	
2.42835   	-4.36879e+00		         0.43833	-9.00000e+01	
2.43745   	-3.45311e+00		         0.44000	-8.70000e+01	
2.44655   	-2.32910e+00		         0.44167	-8.50000e+01	
2.45565   	-1.20322e+00		         0.44333	-8.20000e+01	
2.46502   	-5.42831e-01		         0.44500	-8.00000e+01	
2.47412   	-4.51201e-01		         0.44667	-7.80000e+01	
2.48323   	-6.23545e-01		         0.44833	-7.60000e+01	
2.49232   	-9.04692e-01		         0.45000	-7.50000e+01	
2.50169   	-1.25008e-01		         0.45167	-7.30000e+01	
2.51080   	-1.52621e-01		         0.45333	-7.10000e+01	
2.51990   	-2.52196e-03		         0.45500	-7.00000e+01	
2.52900   	-9.56409e-01		         0.45667	-6.80000e+01	
2.53837   	-1.78790e+00		         0.45833	-6.70000e+01	
2.54747   	-2.99061e+00		         0.46000	-6.60000e+01	
2.55657   	-1.07861e+00		         0.46167	-6.40000e+01	
2.56567   	1.89708e+00		         0.46333	-6.30000e+01	
2.57504   	4.48527e+00		         0.46500	-6.10000e+01	
2.58414   	5.55660e+00		         0.46667	-6.00000e+01	
2.59324   	5.79894e+00		         0.46833	-5.80000e+01	
2.60268   	6.78405e+00		         0.47000	-5.60000e+01	
2.61171   	6.43877e+00		         0.47167	-5.40000e+01	
2.62081   	6.69098e+00		         0.47333	-5.20000e+01	
2.62991   	6.24137e+00		         0.47500	-5.00000e+01	
2.63902   	6.28216e+00		         0.47667	-4.80000e+01	
2.64838   	6.03757e+00		         0.47833	-4.50000e+01	
2.65749   	5.85012e+00		         0.48000	-4.30000e+01	
2.66659   	5.87090e+00		         0.48167	-4.10000e+01	
2.67569   	5.91170e+00		         0.48333	-4.00000e+01	
2.68506   	5.85523e+00		         0.48500	-3.80000e+01	
2.69416   	5.58653e+00		         0.48667	-3.60000e+01	
2.70326   	5.37664e+00		         0.48833	-3.50000e+01	
2.71236   	5.16159e+00		         0.49000	-3.30000e+01	
2.72173   	5.06654e+00		         0.49167	-3.20000e+01	
2.73083   	4.91899e+00		         0.49333	-3.10000e+01	
2.73993   	4.78552e+00		         0.49500	-2.90000e+01	
2.74903   	4.60594e+00		         0.49667	-2.80000e+01	
2.75840   	4.35176e+00		         0.49833	-2.70000e+01	
2.76750   	4.17521e+00		         0.50000	-2.50000e+01	
2.77660   	3.97806e+00		         0.50167	-2.40000e+01	
2.78570   	3.83321e+00		         0.50333	-2.20000e+01	
2.79507   	3.58676e+00		         0.50500	-2.10000e+01	
2.80417   	3.38033e+00		         0.50667	-2.00000e+01	
2.81328   	3.11141e+00		         0.50833	-1.80000e+01	
2.82238   	2.86393e+00		         0.51000	-1.70000e+01	
2.83174   	2.66875e+00		         0.51167	-1.70000e+01	
2.84085   	2.44606e+00		         0.51333	-1.60000e+01	
2.84995   	2.17298e+00		         0.51500	-1.50000e+01	
2.85905   	1.75373e+00		         0.51667	-1.50000e+01	
2.86847   	1.14135e+00		         0.51833	-1.40000e+01	
2.87752   	3.61002e-01		         0.52000	-1.40000e+01	
2.88662   	-5.73414e-01		         0.52167	-1.30000e+01	
2.89572   	-1.45448e+00		         0.52333	-1.30000e+01	
2.90509   	-2.14863e+00		         0.52500	-1.20000e+01	
2.91419   	-1.65055e+00		         0.52667	-1.10000e+01	
2.92329   	-7.08091e-01		         0.52833	-1.10000e+01	
2.93239   	2.19719e-01		         0.53000	-1.00000e+01	
2.94176   	4.08164e-01		         0.53167	-9.00000e+00	
2.95086   	3.76233e-01		         0.53333	-9.00000e+00	
2.95997   	5.77432e-01		         0.53500	-8.00000e+00	
2.96906   	5.18520e-01		         0.53667	-7.00000e+00	
2.97843   	3.74692e-01		         0.53833	-6.00000e+00	
2.98754   	6.74427e-02		         0.54000	-6.00000e+00	
2.99664   	-5.10242e-01		         0.54167	-5.00000e+00	
3.00574   	-1.56492e+00		         0.54333	-5.00000e+00	
3.01511   	-2.98784e+00		         0.54500	-5.00000e+00	
3.02421   	-4.18590e+00		         0.54667	-5.00000e+00	
3.03331   	-4.97226e+00		         0.54833	-5.00000e+00	
3.04241   	-5.26106e+00		         0.55000	-5.00000e+00	
3.05178   	-5.29469e+00		         0.55167	-5.00000e+00	
3.06088   	-5.09904e+00		         0.55333	-6.00000e+00	
3.06998   	-4.94044e+00		         0.55500	-6.00000e+00	
3.07908   	-4.84128e+00		         0.55667	-7.00000e+00	
3.08845   	-4.57914e+00		         0.55833	-7.00000e+00	
3.09755   	-4.18589e+00		         0.56000	-8.00000e+00	
3.10665   	-3.56073e+00		         0.56167	-8.00000e+00	
3.11575   	-2.94585e+00		         0.56333	-9.00000e+00	
3.12512   	-2.35696e+00		         0.56500	-1.00000e+01	
3.13423   	-1.93972e+00		         0.56667	-1.00000e+01	
3.14333   	-1.49900e+00		         0.56833	-1.00000e+01	
3.15243   	-1.12925e+00		         0.57000	-1.10000e+01	
3.16180   	-7.51960e-01		         0.57167	-1.10000e+01	
3.17090   	-5.20381e-01		         0.57333	-1.10000e+01	
3.18000   	-3.07290e-01		         0.57500	-1.10000e+01	
3.18910   	-1.04392e-01		         0.57667	-1.10000e+01	
3.19847   	8.97682e-02		         0.57833	-1.10000e+01	
3.20758   	2.05115e-01		         0.58000	-1.10000e+01	
3.21667   	1.96964e-01		         0.58167	-1.10000e+01	
3.22577   	1.38540e-01		         0.58333	-1.10000e+01	
3.23514   	7.26510e-02		         0.58500	-1.10000e+01	
3.24425   	5.87335e-02		         0.58667	-1.20000e+01	
3.25334   	1.00004e-02		         0.58833	-1.20000e+01	
3.26245   	-3.54291e-02		         0.59000	-1.20000e+01	
3.27181   	-1.43345e-01		         0.59167	-1.30000e+01	
3.28091   	-2.38821e-01		         0.59333	-1.40000e+01	
3.29002   	-3.47645e-01		         0.59500	-1.40000e+01	
3.29912   	-3.54551e-01		         0.59667	-1.50000e+01	
3.30849   	-3.69411e-01		         0.59833	-1.60000e+01	
3.31759   	-3.82584e-01		         0.60000	-1.60000e+01	
3.32669   	-4.72215e-01		         0.60167	-1.70000e+01	
3.33579   	-4.92353e-01		         0.60333	-1.70000e+01	
3.34516   	-5.07589e-01		         0.60500	-1.70000e+01	
3.35426   	-5.15357e-01		         0.60667	-1.60000e+01	
3.36336   	-5.49907e-01		         0.60833	-1.60000e+01	
3.37247   	-5.81389e-01		         0.61000	-1.50000e+01	
3.38183   	-5.83002e-01		         0.61167	-1.40000e+01	
3.39093   	-6.14708e-01		         0.61333	-1.40000e+01	
3.40003   	-6.03441e-01		         0.61500	-1.30000e+01	
3.40914   	-5.31750e-01		         0.61667	-1.30000e+01	
3.41850   	-4.49597e-01		         0.61833	-1.20000e+01	
3.42761   	-3.40379e-01		         0.62000	-1.30000e+01	
3.43670   	-2.84435e-01		         0.62167	-1.30000e+01	
3.44581   	-2.41524e-01		         0.62333	-1.40000e+01	
3.45518   	-2.53571e-01		         0.62500	-1.40000e+01	
3.46428   	-2.23204e-01		         0.62667	-1.60000e+01	
3.47338   	-1.84404e-01		         0.62833	-1.70000e+01	
3.48252   	-1.58575e-01		         0.63000	-1.80000e+01	
3.49185   	-2.01490e-01		         0.63167	-1.90000e+01	
3.50095   	-2.17479e-01		         0.63333	-2.00000e+01	
3.51005   	-2.78858e-01		         0.63500	-2.10000e+01	
3.51938   	-4.04120e-01		         0.63667	-2.20000e+01	
3.52852   	-8.13588e-01		         0.63833	-2.20000e+01	
3.53762   	-1.42817e+00		         0.64000	-2.20000e+01	
3.54672   	-2.43951e+00		         0.64167	-2.20000e+01	
3.55583   	-4.03618e+00		         0.64333	-2.20000e+01	
3.56519   	-6.03002e+00		         0.64500	-2.10000e+01	
3.57430   	-8.11549e+00		         0.64667	-2.00000e+01	
3.58340   	-9.37869e+00		         0.64833	-2.00000e+01	
3.59250   	-9.99262e+00		         0.65000	-1.90000e+01	
3.60186   	-9.74443e+00		         0.65167	-1.80000e+01	
3.61097   	-9.13880e+00		         0.65333	-1.70000e+01	
3.62007   	-8.20183e+00		         0.65500	-1.60000e+01	
3.62917   	-6.97035e+00		         0.65667	-1.50000e+01	
3.63854   	-5.49341e+00		         0.65833	-1.40000e+01	
3.64764   	-4.10286e+00		         0.66000	-1.30000e+01	
3.65674   	-2.86529e+00		         0.66167	-1.20000e+01	
3.66613   	-2.13077e+00		         0.66333	-1.10000e+01	
3.67521   	-1.83040e+00		         0.66500	-1.10000e+01	
3.68431   	-2.09190e+00		         0.66667	-1.00000e+01	
3.69341   	-1.75615e+00		         0.66833	-1.00000e+01	
3.70251   	-3.40994e-01		         0.67000	-1.00000e+01	
3.71188   	1.39082e+00		         0.67167	-1.00000e+01	
3.72099   	1.71835e+00		         0.67333	-1.00000e+01	
3.73008   	7.98672e-01		         0.67500	-1.00000e+01	
3.73919   	7.50709e-02		         0.67667	-1.00000e+01	
3.74856   	6.86555e-01		         0.67833	-1.00000e+01	
3.75766   	1.92921e+00		         0.68000	-1.00000e+01	
3.76676   	2.60922e+00		         0.68167	-1.00000e+01	
3.77586   	2.29856e+00		         0.68333	-9.00000e+00	
3.78523   	1.06581e+00		         0.68500	-9.00000e+00	
3.79433   	-1.63507e-01		         0.68667	-9.00000e+00	
3.80343   	-9.20020e-01		         0.68833	-1.00000e+01	
			         0.69000	-1.00000e+01	
			         0.69167	-1.00000e+01	
			         0.69333	-1.00000e+01	
			         0.69500	-1.00000e+01	
			         0.69667	-1.00000e+01	
			         0.69833	-1.00000e+01	
			         0.70000	-1.10000e+01	
			         0.70167	-1.10000e+01	
			         0.70333	-1.20000e+01	
			         0.70500	-1.20000e+01	
			         0.70667	-1.30000e+01	
			         0.70833	-1.30000e+01	
			         0.71000	-1.30000e+01	
			         0.71167	-1.40000e+01	
			         0.71333	-1.40000e+01	
			         0.71500	-1.50000e+01	
			         0.71667	-1.50000e+01	
			         0.71833	-1.50000e+01	
			         0.72000	-1.50000e+01	
			         0.72167	-1.50000e+01	
			         0.72333	-1.50000e+01	
			         0.72500	-1.50000e+01	
			         0.72667	-1.40000e+01	
			         0.72833	-1.40000e+01	
			         0.73000	-1.40000e+01	
			         0.73167	-1.30000e+01	
			         0.73333	-1.20000e+01	
			         0.73500	-1.20000e+01	
			         0.73667	-1.10000e+01	
			         0.73833	-1.00000e+01	
			         0.74000	-1.00000e+01	
			         0.74167	-9.00000e+00	
			         0.74333	-9.00000e+00	
			         0.74500	-9.00000e+00	
			         0.74667	-8.00000e+00	
			         0.74833	-8.00000e+00	
			         0.75000	-7.00000e+00	
			         0.75167	-7.00000e+00	
			         0.75333	-7.00000e+00	
			         0.75500	-7.00000e+00	
			         0.75667	-7.00000e+00	
			         0.75833	-7.00000e+00	
			         0.76000	-7.00000e+00	
			         0.76167	-7.00000e+00	
			         0.76333	-7.00000e+00	
			         0.76500	-7.00000e+00	
			         0.76667	-7.00000e+00	
			         0.76833	-7.00000e+00	
			         0.77000	-7.00000e+00	
			         0.77167	-6.00000e+00	
			         0.77333	-6.00000e+00	
			         0.77500	-6.00000e+00	
			         0.77667	-6.00000e+00	
			         0.77833	-6.00000e+00	
			         0.78000	-6.00000e+00	
			         0.78167	-5.00000e+00	
			         0.78333	-5.00000e+00	
			         0.78500	-5.00000e+00	
			         0.78667	-5.00000e+00	
			         0.78833	-5.00000e+00	
			         0.79000	-5.00000e+00	
			         0.79167	-4.00000e+00	
			         0.79333	-4.00000e+00	
			         0.79500	-4.00000e+00	
			         0.79667	-3.00000e+00	
			         0.79833	-3.00000e+00	
			         0.80000	-2.00000e+00	
			         0.80167	-2.00000e+00	
			         0.80333	-1.00000e+00	
			         0.80500	0.00000e+00	
			         0.80667	1.00000e+00	
			         0.80833	1.00000e+00	
			         0.81000	2.00000e+00	
			         0.81167	3.00000e+00	
			         0.81333	3.00000e+00	
			         0.81500	3.00000e+00	
			         0.81667	4.00000e+00	
			         0.81833	4.00000e+00	
			         0.82000	4.00000e+00	
			         0.82167	4.00000e+00	
			         0.82333	4.00000e+00	
			         0.82500	3.00000e+00	
			         0.82667	3.00000e+00	
			         0.82833	2.00000e+00	
			         0.83000	1.00000e+00	
			         0.83167	1.00000e+00	
			         0.83333	0.00000e+00	
			         0.83500	0.00000e+00	
			         0.83667	0.00000e+00	
			         0.83833	-1.00000e+00	
			         0.84000	-1.00000e+00	
			         0.84167	-1.00000e+00	
			         0.84333	-1.00000e+00	
			         0.84500	-1.00000e+00	
			         0.84667	-2.00000e+00	
			         0.84833	-2.00000e+00	
			         0.85000	-2.00000e+00	
			         0.85167	-3.00000e+00	
			         0.85333	-3.00000e+00	
			         0.85500	-4.00000e+00	
			         0.85667	-4.00000e+00	
			         0.85833	-5.00000e+00	
			         0.86000	-5.00000e+00	
			         0.86167	-5.00000e+00	
			         0.86333	-6.00000e+00	
			         0.86500	-6.00000e+00	
			         0.86667	-5.00000e+00	
			         0.86833	-5.00000e+00	
			         0.87000	-5.00000e+00	
			         0.87167	-5.00000e+00	
			         0.87333	-5.00000e+00	
			         0.87500	-4.00000e+00	
			         0.87667	-4.00000e+00	
			         0.87833	-4.00000e+00	
			         0.88000	-3.00000e+00	
			         0.88167	-3.00000e+00	
			         0.88333	-3.00000e+00	
			         0.88500	-3.00000e+00	
			         0.88667	-3.00000e+00	
			         0.88833	-3.00000e+00	
			         0.89000	-4.00000e+00	
			         0.89167	-4.00000e+00	
			         0.89333	-4.00000e+00	
			         0.89500	-4.00000e+00	
			         0.89667	-4.00000e+00	
			         0.89833	-4.00000e+00	
			         0.90000	-4.00000e+00	
			         0.90167	-5.00000e+00	
			         0.90333	-5.00000e+00	
			         0.90500	-5.00000e+00	
			         0.90667	-5.00000e+00	
			         0.90833	-6.00000e+00	
			         0.91000	-6.00000e+00	
			         0.91167	-6.00000e+00	
			         0.91333	-7.00000e+00	
			         0.91500	-7.00000e+00	
			         0.91667	-7.00000e+00	
			         0.91833	-8.00000e+00	
			         0.92000	-8.00000e+00	
			         0.92167	-8.00000e+00	
			         0.92333	-8.00000e+00	
			         0.92500	-8.00000e+00	
			         0.92667	-8.00000e+00	
			         0.92833	-9.00000e+00	
			         0.93000	-9.00000e+00	
			         0.93167	-9.00000e+00	
			         0.93333	-1.00000e+01	
			         0.93500	-1.00000e+01	
			         0.93667	-1.00000e+01	
			         0.93833	-1.00000e+01	
			         0.94000	-1.00000e+01	
			         0.94167	-1.00000e+01	
			         0.94333	-1.00000e+01	
			         0.94500	-1.00000e+01	
			         0.94667	-1.00000e+01	
			         0.94833	-9.00000e+00	
			         0.95000	-9.00000e+00	
			         0.95167	-8.00000e+00	
			         0.95333	-8.00000e+00	
			         0.95500	-7.00000e+00	
			         0.95667	-6.00000e+00	
			         0.95833	-5.00000e+00	
			         0.96000	-4.00000e+00	
			         0.96167	-3.00000e+00	
			         0.96333	-2.00000e+00	
			         0.96500	-1.00000e+00	
			         0.96667	0.00000e+00	
			         0.96833	1.00000e+00	
			         0.97000	2.00000e+00	
			         0.97167	3.00000e+00	
			         0.97333	4.00000e+00	
			         0.97500	5.00000e+00	
			         0.97667	7.00000e+00	
			         0.97833	8.00000e+00	
			         0.98000	1.00000e+01	
			         0.98167	1.20000e+01	
			         0.98333	1.40000e+01	
			         0.98500	1.70000e+01	
			         0.98667	1.90000e+01	
			         0.98833	2.20000e+01	
			         0.99000	2.40000e+01	
			         0.99167	2.70000e+01	
			         0.99333	2.90000e+01	
			         0.99500	3.10000e+01	
			         0.99667	3.30000e+01	
			         0.99833	3.50000e+01	
			         1.00000	3.70000e+01	
			         1.00167	3.90000e+01	
			         1.00333	4.00000e+01	
			         1.00500	4.10000e+01	
			         1.00667	4.20000e+01	
			         1.00833	4.20000e+01	
			         1.01000	4.10000e+01	
			         1.01167	4.00000e+01	
			         1.01333	3.80000e+01	
			         1.01500	3.60000e+01	
			         1.01667	3.30000e+01	
			         1.01833	3.00000e+01	
			         1.02000	2.60000e+01	
			         1.02167	2.10000e+01	
			         1.02333	1.60000e+01	
			         1.02500	1.10000e+01	
			         1.02667	6.00000e+00	
			         1.02833	1.00000e+00	
			         1.03000	-4.00000e+00	
			         1.03167	-8.00000e+00	
			         1.03333	-1.30000e+01	
			         1.03500	-1.70000e+01	
			         1.03667	-2.10000e+01	
			         1.03833	-2.40000e+01	
			         1.04000	-2.70000e+01	
			         1.04167	-3.00000e+01	
			         1.04333	-3.10000e+01	
			         1.04500	-3.30000e+01	
			         1.04667	-3.40000e+01	
			         1.04833	-3.40000e+01	
			         1.05000	-3.40000e+01	
			         1.05167	-3.40000e+01	
			         1.05333	-3.30000e+01	
			         1.05500	-3.20000e+01	
			         1.05667	-3.20000e+01	
			         1.05833	-3.10000e+01	
			         1.06000	-3.00000e+01	
			         1.06167	-2.90000e+01	
			         1.06333	-2.80000e+01	
			         1.06500	-2.70000e+01	
			         1.06667	-2.70000e+01	
			         1.06833	-2.60000e+01	
			         1.07000	-2.50000e+01	
			         1.07167	-2.40000e+01	
			         1.07333	-2.40000e+01	
			         1.07500	-2.30000e+01	
			         1.07667	-2.30000e+01	
			         1.07833	-2.30000e+01	
			         1.08000	-2.30000e+01	
			         1.08167	-2.20000e+01	
			         1.08333	-2.20000e+01	
			         1.08500	-2.20000e+01	
			         1.08667	-2.20000e+01	
			         1.08833	-2.20000e+01	
			         1.09000	-2.30000e+01	
			         1.09167	-2.30000e+01	
			         1.09333	-2.20000e+01	
			         1.09500	-2.20000e+01	
			         1.09667	-2.20000e+01	
			         1.09833	-2.10000e+01	
			         1.10000	-2.00000e+01	
			         1.10167	-2.00000e+01	
			         1.10333	-1.90000e+01	
			         1.10500	-1.90000e+01	
			         1.10667	-1.80000e+01	
			         1.10833	-1.80000e+01	
			         1.11000	-1.80000e+01	
			         1.11167	-1.70000e+01	
			         1.11333	-1.60000e+01	
			         1.11500	-1.60000e+01	
			         1.11667	-1.50000e+01	
			         1.11833	-1.40000e+01	
			         1.12000	-1.30000e+01	
			         1.12167	-1.20000e+01	
			         1.12333	-1.10000e+01	
			         1.12500	-1.00000e+01	
			         1.12667	-9.00000e+00	
			         1.12833	-8.00000e+00	
			         1.13000	-8.00000e+00	
			         1.13167	-7.00000e+00	
			         1.13333	-6.00000e+00	
			         1.13500	-5.00000e+00	
			         1.13667	-5.00000e+00	
			         1.13833	-5.00000e+00	
			         1.14000	-4.00000e+00	
			         1.14167	-4.00000e+00	
			         1.14333	-4.00000e+00	
			         1.14500	-3.00000e+00	
			         1.14667	-3.00000e+00	
			         1.14833	-3.00000e+00	
			         1.15000	-3.00000e+00	
			         1.15167	-4.00000e+00	
			         1.15333	-4.00000e+00	
			         1.15500	-4.00000e+00	
			         1.15667	-5.00000e+00	
			         1.15833	-6.00000e+00	
			         1.16000	-6.00000e+00	
			         1.16167	-7.00000e+00	
			         1.16333	-7.00000e+00	
			         1.16500	-7.00000e+00	
			         1.16667	-8.00000e+00	
			         1.16833	-8.00000e+00	
			         1.17000	-7.00000e+00	
			         1.17167	-7.00000e+00	
			         1.17333	-7.00000e+00	
			         1.17500	-6.00000e+00	
			         1.17667	-5.00000e+00	
			         1.17833	-4.00000e+00	
			         1.18000	-4.00000e+00	
			         1.18167	-3.00000e+00	
			         1.18333	-2.00000e+00	
			         1.18500	-1.00000e+00	
			         1.18667	-1.00000e+00	
			         1.18833	0.00000e+00	
			         1.19000	0.00000e+00	
			         1.19167	0.00000e+00	
			         1.19333	0.00000e+00	
			         1.19500	-1.00000e+00	
			         1.19667	-1.00000e+00	
			         1.19833	-2.00000e+00	
			         1.20000	-3.00000e+00	
			         1.20167	-4.00000e+00	
			         1.20333	-5.00000e+00	
			         1.20500	-6.00000e+00	
			         1.20667	-7.00000e+00	
			         1.20833	-7.00000e+00	
			         1.21000	-7.00000e+00	
			         1.21167	-7.00000e+00	
			         1.21333	-5.00000e+00	
			         1.21500	-4.00000e+00	
			         1.21667	-2.00000e+00	
			         1.21833	0.00000e+00	
			         1.22000	2.00000e+00	
			         1.22167	5.00000e+00	
			         1.22333	8.00000e+00	
			         1.22500	1.30000e+01	
			         1.22667	1.80000e+01	
			         1.22833	2.40000e+01	
			         1.23000	3.20000e+01	
			         1.23167	4.20000e+01	
			         1.23333	5.30000e+01	
			         1.23500	6.60000e+01	
			         1.23667	8.10000e+01	
			         1.23833	9.90000e+01	
			         1.24000	1.19000e+02	
			         1.24167	1.41000e+02	
			         1.24333	1.66000e+02	
			         1.24500	1.93000e+02	
			         1.24667	2.22000e+02	
			         1.24833	2.51000e+02	
			         1.25000	2.78000e+02	
			         1.25167	3.02000e+02	
			         1.25333	3.21000e+02	
			         1.25500	3.34000e+02	
			         1.25667	3.40000e+02	
			         1.25833	3.37000e+02	
			         1.26000	3.26000e+02	
			         1.26167	3.06000e+02	
			         1.26333	2.77000e+02	
			         1.26500	2.40000e+02	
			         1.26667	1.97000e+02	
			         1.26833	1.49000e+02	
			         1.27000	9.80000e+01	
			         1.27167	4.70000e+01	
			         1.27333	-2.00000e+00	
			         1.27500	-4.60000e+01	
			         1.27667	-8.50000e+01	
			         1.27833	-1.17000e+02	
			         1.28000	-1.41000e+02	
			         1.28167	-1.58000e+02	
			         1.28333	-1.68000e+02	
			         1.28500	-1.72000e+02	
			         1.28667	-1.71000e+02	
			         1.28833	-1.65000e+02	
			         1.29000	-1.57000e+02	
			         1.29167	-1.47000e+02	
			         1.29333	-1.36000e+02	
			         1.29500	-1.25000e+02	
			         1.29667	-1.14000e+02	
			         1.29833	-1.05000e+02	
			         1.30000	-9.60000e+01	
			         1.30167	-9.00000e+01	
			         1.30333	-8.40000e+01	
			         1.30500	-8.00000e+01	
			         1.30667	-7.70000e+01	
			         1.30833	-7.50000e+01	
			         1.31000	-7.30000e+01	
			         1.31167	-7.20000e+01	
			         1.31333	-7.10000e+01	
			         1.31500	-7.00000e+01	
			         1.31667	-6.90000e+01	
			         1.31833	-6.80000e+01	
			         1.32000	-6.70000e+01	
			         1.32167	-6.50000e+01	
			         1.32333	-6.40000e+01	
			         1.32500	-6.20000e+01	
			         1.32667	-6.00000e+01	
			         1.32833	-5.80000e+01	
			         1.33000	-5.60000e+01	
			         1.33167	-5.40000e+01	
			         1.33333	-5.30000e+01	
			         1.33500	-5.10000e+01	
			         1.33667	-5.00000e+01	
			         1.33833	-4.80000e+01	
			         1.34000	-4.70000e+01	
			         1.34167	-4.60000e+01	
			         1.34333	-4.50000e+01	
			         1.34500	-4.40000e+01	
			         1.34667	-4.40000e+01	
			         1.34833	-4.30000e+01	
			         1.35000	-4.20000e+01	
			         1.35167	-4.10000e+01	
			         1.35333	-4.00000e+01	
			         1.35500	-3.90000e+01	
			         1.35667	-3.80000e+01	
			         1.35833	-3.70000e+01	
			         1.36000	-3.60000e+01	
			         1.36167	-3.50000e+01	
			         1.36333	-3.40000e+01	
			         1.36500	-3.30000e+01	
			         1.36667	-3.10000e+01	
			         1.36833	-3.00000e+01	
			         1.37000	-2.90000e+01	
			         1.37167	-2.80000e+01	
			         1.37333	-2.60000e+01	
			         1.37500	-2.50000e+01	
			         1.37667	-2.30000e+01	
			         1.37833	-2.20000e+01	
			         1.38000	-2.00000e+01	
			         1.38167	-1.80000e+01	
			         1.38333	-1.70000e+01	
			         1.38500	-1.60000e+01	
			         1.38667	-1.50000e+01	
			         1.38833	-1.40000e+01	
			         1.39000	-1.30000e+01	
			         1.39167	-1.20000e+01	
			         1.39333	-1.20000e+01	
			         1.39500	-1.20000e+01	
			         1.39667	-1.20000e+01	
			         1.39833	-1.20000e+01	
			         1.40000	-1.20000e+01	
			         1.40167	-1.20000e+01	
			         1.40333	-1.30000e+01	
			         1.40500	-1.30000e+01	
			         1.40667	-1.30000e+01	
			         1.40833	-1.20000e+01	
			         1.41000	-1.20000e+01	
			         1.41167	-1.20000e+01	
			         1.41333	-1.10000e+01	
			         1.41500	-1.00000e+01	
			         1.41667	-9.00000e+00	
			         1.41833	-8.00000e+00	
			         1.42000	-7.00000e+00	
			         1.42167	-6.00000e+00	
			         1.42333	-4.00000e+00	
			         1.42500	-3.00000e+00	
			         1.42667	-2.00000e+00	
			         1.42833	0.00000e+00	
			         1.43000	1.00000e+00	
			         1.43167	2.00000e+00	
			         1.43333	3.00000e+00	
			         1.43500	5.00000e+00	
			         1.43667	6.00000e+00	
			         1.43833	7.00000e+00	
			         1.44000	8.00000e+00	
			         1.44167	9.00000e+00	
			         1.44333	1.10000e+01	
			         1.44500	1.30000e+01	
			         1.44667	1.50000e+01	
			         1.44833	1.70000e+01	
			         1.45000	2.00000e+01	
			         1.45167	2.20000e+01	
			         1.45333	2.50000e+01	
			         1.45500	2.80000e+01	
			         1.45667	3.10000e+01	
			         1.45833	3.40000e+01	
			         1.46000	3.70000e+01	
			         1.46167	3.90000e+01	
			         1.46333	4.20000e+01	
			         1.46500	4.40000e+01	
			         1.46667	4.70000e+01	
			         1.46833	4.90000e+01	
			         1.47000	5.10000e+01	
			         1.47167	5.30000e+01	
			         1.47333	5.50000e+01	
			         1.47500	5.70000e+01	
			         1.47667	6.00000e+01	
			         1.47833	6.20000e+01	
			         1.48000	6.50000e+01	
			         1.48167	6.80000e+01	
			         1.48333	7.10000e+01	
			         1.48500	7.40000e+01	
			         1.48667	7.70000e+01	
			         1.48833	8.10000e+01	
			         1.49000	8.40000e+01	
			         1.49167	8.80000e+01	
			         1.49333	9.20000e+01	
			         1.49500	9.60000e+01	
			         1.49667	1.00000e+02	
			         1.49833	1.04000e+02	
			         1.50000	1.08000e+02	
			         1.50167	1.13000e+02	
			         1.50333	1.17000e+02	
			         1.50500	1.21000e+02	
			         1.50667	1.26000e+02	
			         1.50833	1.31000e+02	
			         1.51000	1.35000e+02	
			         1.51167	1.40000e+02	
			         1.51333	1.45000e+02	
			         1.51500	1.51000e+02	
			         1.51667	1.56000e+02	
			         1.51833	1.62000e+02	
			         1.52000	1.67000e+02	
			         1.52167	1.73000e+02	
			         1.52333	1.79000e+02	
			         1.52500	1.85000e+02	
			         1.52667	1.91000e+02	
			         1.52833	1.96000e+02	
			         1.53000	2.01000e+02	
			         1.53167	2.06000e+02	
			         1.53333	2.10000e+02	
			         1.53500	2.14000e+02	
			         1.53667	2.17000e+02	
			         1.53833	2.19000e+02	
			         1.54000	2.21000e+02	
			         1.54167	2.21000e+02	
			         1.54333	2.21000e+02	
			         1.54500	2.21000e+02	
			         1.54667	2.20000e+02	
			         1.54833	2.18000e+02	
			         1.55000	2.16000e+02	
			         1.55167	2.12000e+02	
			         1.55333	2.09000e+02	
			         1.55500	2.04000e+02	
			         1.55667	1.99000e+02	
			         1.55833	1.92000e+02	
			         1.56000	1.85000e+02	
			         1.56167	1.77000e+02	
			         1.56333	1.68000e+02	
			         1.56500	1.59000e+02	
			         1.56667	1.49000e+02	
			         1.56833	1.38000e+02	
			         1.57000	1.27000e+02	
			         1.57167	1.15000e+02	
			         1.57333	1.03000e+02	
			         1.57500	9.10000e+01	
			         1.57667	7.80000e+01	
			         1.57833	6.60000e+01	
			         1.58000	5.30000e+01	
			         1.58167	4.10000e+01	
			         1.58333	2.80000e+01	
			         1.58500	1.60000e+01	
			         1.58667	3.00000e+00	
			         1.58833	-1.00000e+01	
			         1.59000	-2.30000e+01	
			         1.59167	-3.50000e+01	
			         1.59333	-4.70000e+01	
			         1.59500	-5.90000e+01	
			         1.59667	-7.00000e+01	
			         1.59833	-8.10000e+01	
			         1.60000	-9.10000e+01	
			         1.60167	-1.00000e+02	
			         1.60333	-1.09000e+02	
			         1.60500	-1.16000e+02	
			         1.60667	-1.23000e+02	
			         1.60833	-1.30000e+02	
			         1.61000	-1.35000e+02	
			         1.61167	-1.40000e+02	
			         1.61333	-1.45000e+02	
			         1.61500	-1.49000e+02	
			         1.61667	-1.52000e+02	
			         1.61833	-1.55000e+02	
			         1.62000	-1.58000e+02	
			         1.62167	-1.60000e+02	
			         1.62333	-1.62000e+02	
			         1.62500	-1.63000e+02	
			         1.62667	-1.64000e+02	
			         1.62833	-1.65000e+02	
			         1.63000	-1.65000e+02	
			         1.63167	-1.65000e+02	
			         1.63333	-1.65000e+02	
			         1.63500	-1.64000e+02	
			         1.63667	-1.63000e+02	
			         1.63833	-1.62000e+02	
			         1.64000	-1.61000e+02	
			         1.64167	-1.59000e+02	
			         1.64333	-1.58000e+02	
			         1.64500	-1.56000e+02	
			         1.64667	-1.55000e+02	
			         1.64833	-1.53000e+02	
			         1.65000	-1.51000e+02	
			         1.65167	-1.50000e+02	
			         1.65333	-1.48000e+02	
			         1.65500	-1.46000e+02	
			         1.65667	-1.44000e+02	
			         1.65833	-1.42000e+02	
			         1.66000	-1.40000e+02	
			         1.66167	-1.38000e+02	
			         1.66333	-1.36000e+02	
			         1.66500	-1.35000e+02	
			         1.66667	-1.33000e+02	
			         1.66833	-1.31000e+02	
			         1.67000	-1.29000e+02	
			         1.67167	-1.27000e+02	
			         1.67333	-1.25000e+02	
			         1.67500	-1.22000e+02	
			         1.67667	-1.20000e+02	
			         1.67833	-1.18000e+02	
			         1.68000	-1.15000e+02	
			         1.68167	-1.13000e+02	
			         1.68333	-1.10000e+02	
			         1.68500	-1.07000e+02	
			         1.68667	-1.04000e+02	
			         1.68833	-1.02000e+02	
			         1.69000	-9.90000e+01	
			         1.69167	-9.60000e+01	
			         1.69333	-9.30000e+01	
			         1.69500	-9.00000e+01	
			         1.69667	-8.70000e+01	
			         1.69833	-8.40000e+01	
			         1.70000	-8.10000e+01	
			         1.70167	-7.90000e+01	
			         1.70333	-7.70000e+01	
			         1.70500	-7.50000e+01	
			         1.70667	-7.30000e+01	
			         1.70833	-7.10000e+01	
			         1.71000	-7.00000e+01	
			         1.71167	-6.80000e+01	
			         1.71333	-6.60000e+01	
			         1.71500	-6.40000e+01	
			         1.71667	-6.20000e+01	
			         1.71833	-6.00000e+01	
			         1.72000	-5.70000e+01	
			         1.72167	-5.50000e+01	
			         1.72333	-5.20000e+01	
			         1.72500	-4.80000e+01	
			         1.72667	-4.50000e+01	
			         1.72833	-4.20000e+01	
			         1.73000	-3.90000e+01	
			         1.73167	-3.60000e+01	
			         1.73333	-3.30000e+01	
			         1.73500	-3.10000e+01	
			         1.73667	-2.90000e+01	
			         1.73833	-2.70000e+01	
			         1.74000	-2.50000e+01	
			         1.74167	-2.40000e+01	
			         1.74333	-2.20000e+01	
			         1.74500	-2.10000e+01	
			         1.74667	-2.00000e+01	
			         1.74833	-2.00000e+01	
			         1.75000	-1.90000e+01	
			         1.75167	-1.80000e+01	
			         1.75333	-1.80000e+01	
			         1.75500	-1.70000e+01	
			         1.75667	-1.60000e+01	
			         1.75833	-1.60000e+01	
			         1.76000	-1.50000e+01	
			         1.76167	-1.50000e+01	
			         1.76333	-1.40000e+01	
			         1.76500	-1.30000e+01	
			         1.76667	-1.20000e+01	
			         1.76833	-1.10000e+01	
			         1.77000	-1.00000e+01	
			         1.77167	-9.00000e+00	
			         1.77333	-8.00000e+00	
			         1.77500	-7.00000e+00	
			         1.77667	-7.00000e+00	
			         1.77833	-6.00000e+00	
			         1.78000	-6.00000e+00	
			         1.78167	-6.00000e+00	
			         1.78333	-6.00000e+00	
			         1.78500	-7.00000e+00	
			         1.78667	-8.00000e+00	
			         1.78833	-1.00000e+01	
			         1.79000	-1.20000e+01	
			         1.79167	-1.40000e+01	
			         1.79333	-1.60000e+01	
			         1.79500	-1.80000e+01	
			         1.79667	-1.90000e+01	
			         1.79833	-2.10000e+01	
			         1.80000	-2.20000e+01	
			         1.80167	-2.20000e+01	
			         1.80333	-2.30000e+01	
			         1.80500	-2.30000e+01	
			         1.80667	-2.40000e+01	
			         1.80833	-2.40000e+01	
			         1.81000	-2.30000e+01	
			         1.81167	-2.30000e+01	
			         1.81333	-2.30000e+01	
			         1.81500	-2.30000e+01	
			         1.81667	-2.20000e+01	
			         1.81833	-2.20000e+01	
			         1.82000	-2.10000e+01	
			         1.82167	-2.10000e+01	
			         1.82333	-2.00000e+01	
			         1.82500	-2.00000e+01	
			         1.82667	-1.90000e+01	
			         1.82833	-1.80000e+01	
			         1.83000	-1.70000e+01	
			         1.83167	-1.60000e+01	
			         1.83333	-1.50000e+01	
			         1.83500	-1.40000e+01	
			         1.83667	-1.30000e+01	
			         1.83833	-1.20000e+01	
			         1.84000	-1.10000e+01	
			         1.84167	-1.00000e+01	
			         1.84333	-1.00000e+01	
			         1.84500	-1.00000e+01	
			         1.84667	-1.00000e+01	
			         1.84833	-1.00000e+01	
			         1.85000	-1.10000e+01	
			         1.85167	-1.10000e+01	
			         1.85333	-1.20000e+01	
			         1.85500	-1.20000e+01	
			         1.85667	-1.20000e+01	
			         1.85833	-1.30000e+01	
			         1.86000	-1.30000e+01	
			         1.86167	-1.40000e+01	
			         1.86333	-1.40000e+01	
			         1.86500	-1.40000e+01	
			         1.86667	-1.30000e+01	
			         1.86833	-1.30000e+01	
			         1.87000	-1.30000e+01	
			         1.87167	-1.30000e+01	
			         1.87333	-1.30000e+01	
			         1.87500	-1.30000e+01	
			         1.87667	-1.30000e+01	
			         1.87833	-1.30000e+01	
			         1.88000	-1.30000e+01	
			         1.88167	-1.30000e+01	
			         1.88333	-1.30000e+01	
			         1.88500	-1.20000e+01	
			         1.88667	-1.20000e+01	
			         1.88833	-1.10000e+01	
			         1.89000	-1.10000e+01	
			         1.89167	-1.10000e+01	
			         1.89333	-1.10000e+01	
			         1.89500	-1.10000e+01	
			         1.89667	-1.10000e+01	
			         1.89833	-1.10000e+01	
			         1.90000	-1.20000e+01	
			         1.90167	-1.20000e+01	
			         1.90333	-1.20000e+01	
			         1.90500	-1.30000e+01	
			         1.90667	-1.30000e+01	
			         1.90833	-1.40000e+01	
			         1.91000	-1.40000e+01	
			         1.91167	-1.40000e+01	
			         1.91333	-1.40000e+01	
			         1.91500	-1.30000e+01	
			         1.91667	-1.30000e+01	
			         1.91833	-1.20000e+01	
			         1.92000	-1.20000e+01	
			         1.92167	-1.10000e+01	
			         1.92333	-1.10000e+01	
			         1.92500	-1.10000e+01	
			         1.92667	-1.00000e+01	
			         1.92833	-1.00000e+01	
			         1.93000	-1.00000e+01	
			         1.93167	-1.00000e+01	
			         1.93333	-1.00000e+01	
			         1.93500	-1.00000e+01	
			         1.93667	-1.10000e+01	
			         1.93833	-1.10000e+01	
			         1.94000	-1.20000e+01	
			         1.94167	-1.20000e+01	
			         1.94333	-1.20000e+01	
			         1.94500	-1.30000e+01	
			         1.94667	-1.30000e+01	
			         1.94833	-1.40000e+01	
			         1.95000	-1.40000e+01	
			         1.95167	-1.40000e+01	
			         1.95333	-1.40000e+01	
			         1.95500	-1.40000e+01	
			         1.95667	-1.40000e+01	
			         1.95833	-1.40000e+01	
			         1.96000	-1.30000e+01	
			         1.96167	-1.30000e+01	
			         1.96333	-1.20000e+01	
			         1.96500	-1.20000e+01	
			         1.96667	-1.20000e+01	
			         1.96833	-1.20000e+01	
			         1.97000	-1.10000e+01	
			         1.97167	-1.10000e+01	
			         1.97333	-1.10000e+01	
			         1.97500	-1.00000e+01	
			         1.97667	-1.00000e+01	
			         1.97833	-1.00000e+01	
			         1.98000	-1.10000e+01	
			         1.98167	-1.10000e+01	
			         1.98333	-1.20000e+01	
			         1.98500	-1.20000e+01	
			         1.98667	-1.30000e+01	
			         1.98833	-1.30000e+01	
			         1.99000	-1.40000e+01	
			         1.99167	-1.50000e+01	
			         1.99333	-1.50000e+01	
			         1.99500	-1.60000e+01	
			         1.99667	-1.70000e+01	
			         1.99833	-1.80000e+01	
			         2.00000	-1.90000e+01	
			         2.00167	-1.90000e+01	
			         2.00333	-2.00000e+01	
			         2.00500	-2.00000e+01	
			         2.00667	-2.00000e+01	
			         2.00833	-2.00000e+01	
			         2.01000	-2.00000e+01	
			         2.01167	-1.90000e+01	
			         2.01333	-1.90000e+01	
			         2.01500	-1.90000e+01	
			         2.01667	-1.80000e+01	
			         2.01833	-1.80000e+01	
			         2.02000	-1.70000e+01	
			         2.02167	-1.70000e+01	
			         2.02333	-1.60000e+01	
			         2.02500	-1.60000e+01	
			         2.02667	-1.60000e+01	
			         2.02833	-1.50000e+01	
			         2.03000	-1.50000e+01	
			         2.03167	-1.50000e+01	
			         2.03333	-1.40000e+01	
			         2.03500	-1.40000e+01	
			         2.03667	-1.40000e+01	
			         2.03833	-1.30000e+01	
			         2.04000	-1.30000e+01	
			         2.04167	-1.30000e+01	
			         2.04333	-1.30000e+01	
			         2.04500	-1.20000e+01	
			         2.04667	-1.20000e+01	
			         2.04833	-1.20000e+01	
			         2.05000	-1.10000e+01	
			         2.05167	-1.10000e+01	
			         2.05333	-1.00000e+01	
			         2.05500	-1.00000e+01	
			         2.05667	-9.00000e+00	
			         2.05833	-8.00000e+00	
			         2.06000	-7.00000e+00	
			         2.06167	-7.00000e+00	
			         2.06333	-6.00000e+00	
			         2.06500	-6.00000e+00	
			         2.06667	-6.00000e+00	
			         2.06833	-6.00000e+00	
			         2.07000	-7.00000e+00	
			         2.07167	-7.00000e+00	
			         2.07333	-8.00000e+00	
			         2.07500	-8.00000e+00	
			         2.07667	-9.00000e+00	
			         2.07833	-9.00000e+00	
			         2.08000	-9.00000e+00	
			         2.08167	-1.00000e+01	
			         2.08333	-1.00000e+01	
			         2.08500	-1.00000e+01	
			         2.08667	-1.00000e+01	
			         2.08833	-9.00000e+00	
			         2.09000	-9.00000e+00	
			         2.09167	-8.00000e+00	
			         2.09333	-8.00000e+00	
			         2.09500	-8.00000e+00	
			         2.09667	-7.00000e+00	
			         2.09833	-7.00000e+00	
			         2.10000	-7.00000e+00	
			         2.10167	-6.00000e+00	
			         2.10333	-6.00000e+00	
			         2.10500	-6.00000e+00	
			         2.10667	-6.00000e+00	
			         2.10833	-6.00000e+00	
			         2.11000	-6.00000e+00	
			         2.11167	-6.00000e+00	
			         2.11333	-6.00000e+00	
			         2.11500	-5.00000e+00	
			         2.11667	-5.00000e+00	
			         2.11833	-4.00000e+00	
			         2.12000	-4.00000e+00	
			         2.12167	-4.00000e+00	
			         2.12333	-4.00000e+00	
			         2.12500	-4.00000e+00	
			         2.12667	-4.00000e+00	
			         2.12833	-4.00000e+00	
			         2.13000	-4.00000e+00	
			         2.13167	-5.00000e+00	
			         2.13333	-6.00000e+00	
			         2.13500	-7.00000e+00	
			         2.13667	-8.00000e+00	
			         2.13833	-9.00000e+00	
			         2.14000	-1.00000e+01	
			         2.14167	-1.00000e+01	
			         2.14333	-1.10000e+01	
			         2.14500	-1.10000e+01	
			         2.14667	-1.10000e+01	
			         2.14833	-1.10000e+01	
			         2.15000	-1.10000e+01	
			         2.15167	-1.00000e+01	
			         2.15333	-1.00000e+01	
			         2.15500	-9.00000e+00	
			         2.15667	-8.00000e+00	
			         2.15833	-7.00000e+00	
			         2.16000	-7.00000e+00	
			         2.16167	-6.00000e+00	
			         2.16333	-6.00000e+00	
			         2.16500	-6.00000e+00	
			         2.16667	-6.00000e+00	
			         2.16833	-6.00000e+00	
			         2.17000	-6.00000e+00	
			         2.17167	-6.00000e+00	
			         2.17333	-6.00000e+00	
			         2.17500	-5.00000e+00	
			         2.17667	-5.00000e+00	
			         2.17833	-4.00000e+00	
			         2.18000	-4.00000e+00	
			         2.18167	-3.00000e+00	
			         2.18333	-2.00000e+00	
			         2.18500	-1.00000e+00	
			         2.18667	0.00000e+00	
			         2.18833	1.00000e+00	
			         2.19000	2.00000e+00	
			         2.19167	2.00000e+00	
			         2.19333	3.00000e+00	
			         2.19500	3.00000e+00	
			         2.19667	3.00000e+00	
			         2.19833	3.00000e+00	
			         2.20000	3.00000e+00	
			         2.20167	3.00000e+00	
			         2.20333	3.00000e+00	
			         2.20500	3.00000e+00	
			         2.20667	3.00000e+00	
			         2.20833	2.00000e+00	
			         2.21000	2.00000e+00	
			         2.21167	3.00000e+00	
			         2.21333	3.00000e+00	
			         2.21500	4.00000e+00	
			         2.21667	5.00000e+00	
			         2.21833	7.00000e+00	
			         2.22000	9.00000e+00	
			         2.22167	1.10000e+01	
			         2.22333	1.30000e+01	
			         2.22500	1.60000e+01	
			         2.22667	1.80000e+01	
			         2.22833	2.10000e+01	
			         2.23000	2.30000e+01	
			         2.23167	2.60000e+01	
			         2.23333	2.90000e+01	
			         2.23500	3.20000e+01	
			         2.23667	3.40000e+01	
			         2.23833	3.70000e+01	
			         2.24000	3.90000e+01	
			         2.24167	4.10000e+01	
			         2.24333	4.30000e+01	
			         2.24500	4.40000e+01	
			         2.24667	4.60000e+01	
			         2.24833	4.70000e+01	
			         2.25000	4.80000e+01	
			         2.25167	4.90000e+01	
			         2.25333	4.90000e+01	
			         2.25500	4.90000e+01	
			         2.25667	4.90000e+01	
			         2.25833	4.90000e+01	
			         2.26000	4.80000e+01	
			         2.26167	4.70000e+01	
			         2.26333	4.50000e+01	
			         2.26500	4.30000e+01	
			         2.26667	4.00000e+01	
			         2.26833	3.60000e+01	
			         2.27000	3.20000e+01	
			         2.27167	2.80000e+01	
			         2.27333	2.30000e+01	
			         2.27500	1.80000e+01	
			         2.27667	1.30000e+01	
			         2.27833	7.00000e+00	
			         2.28000	2.00000e+00	
			         2.28167	-3.00000e+00	
			         2.28333	-7.00000e+00	
			         2.28500	-1.10000e+01	
			         2.28667	-1.50000e+01	
			         2.28833	-1.90000e+01	
			         2.29000	-2.20000e+01	
			         2.29167	-2.50000e+01	
			         2.29333	-2.70000e+01	
			         2.29500	-3.00000e+01	
			         2.29667	-3.20000e+01	
			         2.29833	-3.40000e+01	
			         2.30000	-3.60000e+01	
			         2.30167	-3.70000e+01	
			         2.30333	-3.90000e+01	
			         2.30500	-3.90000e+01	
			         2.30667	-4.00000e+01	
			         2.30833	-4.00000e+01	
			         2.31000	-4.00000e+01	
			         2.31167	-3.90000e+01	
			         2.31333	-3.70000e+01	
			         2.31500	-3.50000e+01	
			         2.31667	-3.30000e+01	
			         2.31833	-3.00000e+01	
			         2.32000	-2.80000e+01	
			         2.32167	-2.50000e+01	
			         2.32333	-2.30000e+01	
			         2.32500	-2.00000e+01	
			         2.32667	-1.80000e+01	
			         2.32833	-1.60000e+01	
			         2.33000	-1.50000e+01	
			         2.33167	-1.30000e+01	
			         2.33333	-1.30000e+01	
			         2.33500	-1.20000e+01	
			         2.33667	-1.20000e+01	
			         2.33833	-1.30000e+01	
			         2.34000	-1.30000e+01	
			         2.34167	-1.30000e+01	
			         2.34333	-1.40000e+01	
			         2.34500	-1.40000e+01	
			         2.34667	-1.40000e+01	
			         2.34833	-1.50000e+01	
			         2.35000	-1.50000e+01	
			         2.35167	-1.60000e+01	
			         2.35333	-1.60000e+01	
			         2.35500	-1.70000e+01	
			         2.35667	-1.70000e+01	
			         2.35833	-1.70000e+01	
			         2.36000	-1.70000e+01	
			         2.36167	-1.70000e+01	
			         2.36333	-1.70000e+01	
			         2.36500	-1.70000e+01	
			         2.36667	-1.70000e+01	
			         2.36833	-1.60000e+01	
			         2.37000	-1.60000e+01	
			         2.37167	-1.50000e+01	
			         2.37333	-1.40000e+01	
			         2.37500	-1.40000e+01	
			         2.37667	-1.30000e+01	
			         2.37833	-1.20000e+01	
			         2.38000	-1.10000e+01	
			         2.38167	-9.00000e+00	
			         2.38333	-8.00000e+00	
			         2.38500	-7.00000e+00	
			         2.38667	-6.00000e+00	
			         2.38833	-5.00000e+00	
			         2.39000	-4.00000e+00	
			         2.39167	-3.00000e+00	
			         2.39333	-1.00000e+00	
			         2.39500	0.00000e+00	
			         2.39667	1.00000e+00	
			         2.39833	2.00000e+00	
			         2.40000	3.00000e+00	
			         2.40167	3.00000e+00	
			         2.40333	4.00000e+00	
			         2.40500	5.00000e+00	
			         2.40667	6.00000e+00	
			         2.40833	6.00000e+00	
			         2.41000	7.00000e+00	
			         2.41167	7.00000e+00	
			         2.41333	7.00000e+00	
			         2.41500	7.00000e+00	
			         2.41667	7.00000e+00	
			         2.41833	7.00000e+00	
			         2.42000	7.00000e+00	
			         2.42167	7.00000e+00	
			         2.42333	7.00000e+00	
			         2.42500	7.00000e+00	
			         2.42667	6.00000e+00	
			         2.42833	6.00000e+00	
			         2.43000	6.00000e+00	
			         2.43167	6.00000e+00	
			         2.43333	6.00000e+00	
			         2.43500	6.00000e+00	
			         2.43667	6.00000e+00	
			         2.43833	6.00000e+00	
			         2.44000	6.00000e+00	
			         2.44167	6.00000e+00	
			         2.44333	5.00000e+00	
			         2.44500	5.00000e+00	
			         2.44667	5.00000e+00	
			         2.44833	5.00000e+00	
			         2.45000	4.00000e+00	
			         2.45167	4.00000e+00	
			         2.45333	5.00000e+00	
			         2.45500	5.00000e+00	
			         2.45667	5.00000e+00	
			         2.45833	6.00000e+00	
			         2.46000	7.00000e+00	
			         2.46167	8.00000e+00	
			         2.46333	1.00000e+01	
			         2.46500	1.10000e+01	
			         2.46667	1.30000e+01	
			         2.46833	1.50000e+01	
			         2.47000	1.80000e+01	
			         2.47167	2.00000e+01	
			         2.47333	2.30000e+01	
			         2.47500	2.60000e+01	
			         2.47667	3.00000e+01	
			         2.47833	3.60000e+01	
			         2.48000	4.30000e+01	
			         2.48167	5.20000e+01	
			         2.48333	6.30000e+01	
			         2.48500	7.60000e+01	
			         2.48667	9.10000e+01	
			         2.48833	1.08000e+02	
			         2.49000	1.28000e+02	
			         2.49167	1.50000e+02	
			         2.49333	1.75000e+02	
			         2.49500	2.02000e+02	
			         2.49667	2.32000e+02	
			         2.49833	2.63000e+02	
			         2.50000	2.93000e+02	
			         2.50167	3.21000e+02	
			         2.50333	3.45000e+02	
			         2.50500	3.63000e+02	
			         2.50667	3.73000e+02	
			         2.50833	3.76000e+02	
			         2.51000	3.69000e+02	
			         2.51167	3.52000e+02	
			         2.51333	3.26000e+02	
			         2.51500	2.91000e+02	
			         2.51667	2.48000e+02	
			         2.51833	1.98000e+02	
			         2.52000	1.44000e+02	
			         2.52167	8.80000e+01	
			         2.52333	3.30000e+01	
			         2.52500	-1.80000e+01	
			         2.52667	-6.30000e+01	
			         2.52833	-1.02000e+02	
			         2.53000	-1.33000e+02	
			         2.53167	-1.56000e+02	
			         2.53333	-1.71000e+02	
			         2.53500	-1.79000e+02	
			         2.53667	-1.80000e+02	
			         2.53833	-1.77000e+02	
			         2.54000	-1.69000e+02	
			         2.54167	-1.59000e+02	
			         2.54333	-1.48000e+02	
			         2.54500	-1.36000e+02	
			         2.54667	-1.24000e+02	
			         2.54833	-1.13000e+02	
			         2.55000	-1.03000e+02	
			         2.55167	-9.40000e+01	
			         2.55333	-8.70000e+01	
			         2.55500	-8.10000e+01	
			         2.55667	-7.60000e+01	
			         2.55833	-7.20000e+01	
			         2.56000	-6.90000e+01	
			         2.56167	-6.70000e+01	
			         2.56333	-6.60000e+01	
			         2.56500	-6.50000e+01	
			         2.56667	-6.40000e+01	
			         2.56833	-6.30000e+01	
			         2.57000	-6.30000e+01	
			         2.57167	-6.20000e+01	
			         2.57333	-6.10000e+01	
			         2.57500	-6.00000e+01	
			         2.57667	-5.90000e+01	
			         2.57833	-5.80000e+01	
			         2.58000	-5.60000e+01	
			         2.58167	-5.50000e+01	
			         2.58333	-5.30000e+01	
			         2.58500	-5.10000e+01	
			         2.58667	-4.80000e+01	
			         2.58833	-4.60000e+01	
			         2.59000	-4.40000e+01	
			         2.59167	-4.20000e+01	
			         2.59333	-4.00000e+01	
			         2.59500	-3.80000e+01	
			         2.59667	-3.60000e+01	
			         2.59833	-3.50000e+01	
			         2.60000	-3.40000e+01	
			         2.60167	-3.30000e+01	
			         2.60333	-3.20000e+01	
			         2.60500	-3.10000e+01	
			         2.60667	-3.00000e+01	
			         2.60833	-2.90000e+01	
			         2.61000	-2.80000e+01	
			         2.61167	-2.70000e+01	
			         2.61333	-2.60000e+01	
			         2.61500	-2.50000e+01	
			         2.61667	-2.40000e+01	
			         2.61833	-2.30000e+01	
			         2.62000	-2.20000e+01	
			         2.62167	-2.10000e+01	
			         2.62333	-2.00000e+01	
			         2.62500	-1.90000e+01	
			         2.62667	-1.80000e+01	
			         2.62833	-1.80000e+01	
			         2.63000	-1.70000e+01	
			         2.63167	-1.60000e+01	
			         2.63333	-1.60000e+01	
			         2.63500	-1.50000e+01	
			         2.63667	-1.40000e+01	
			         2.63833	-1.30000e+01	
			         2.64000	-1.20000e+01	
			         2.64167	-1.10000e+01	
			         2.64333	-9.00000e+00	
			         2.64500	-8.00000e+00	
			         2.64667	-6.00000e+00	
			         2.64833	-5.00000e+00	
			         2.65000	-3.00000e+00	
			         2.65167	-2.00000e+00	
			         2.65333	0.00000e+00	
			         2.65500	1.00000e+00	
			         2.65667	2.00000e+00	
			         2.65833	4.00000e+00	
			         2.66000	5.00000e+00	
			         2.66167	6.00000e+00	
			         2.66333	7.00000e+00	
			         2.66500	8.00000e+00	
			         2.66667	9.00000e+00	
			         2.66833	1.00000e+01	
			         2.67000	1.10000e+01	
			         2.67167	1.20000e+01	
			         2.67333	1.20000e+01	
			         2.67500	1.30000e+01	
			         2.67667	1.40000e+01	
			         2.67833	1.50000e+01	
			         2.68000	1.50000e+01	
			         2.68167	1.60000e+01	
			         2.68333	1.70000e+01	
			         2.68500	1.80000e+01	
			         2.68667	1.90000e+01	
			         2.68833	2.10000e+01	
			         2.69000	2.20000e+01	
			         2.69167	2.40000e+01	
			         2.69333	2.50000e+01	
			         2.69500	2.70000e+01	
			         2.69667	2.90000e+01	
			         2.69833	3.10000e+01	
			         2.70000	3.30000e+01	
			         2.70167	3.50000e+01	
			         2.70333	3.70000e+01	
			         2.70500	3.80000e+01	
			         2.70667	4.00000e+01	
			         2.70833	4.10000e+01	
			         2.71000	4.20000e+01	
			         2.71167	4.30000e+01	
			         2.71333	4.50000e+01	
			         2.71500	4.60000e+01	
			         2.71667	4.70000e+01	
			         2.71833	4.90000e+01	
			         2.72000	5.00000e+01	
			         2.72167	5.20000e+01	
			         2.72333	5.40000e+01	
			         2.72500	5.60000e+01	
			         2.72667	5.90000e+01	
			         2.72833	6.10000e+01	
			         2.73000	6.40000e+01	
			         2.73167	6.70000e+01	
			         2.73333	7.10000e+01	
			         2.73500	7.40000e+01	
			         2.73667	7.70000e+01	
			         2.73833	8.10000e+01	
			         2.74000	8.50000e+01	
			         2.74167	8.90000e+01	
			         2.74333	9.30000e+01	
			         2.74500	9.70000e+01	
			         2.74667	1.02000e+02	
			         2.74833	1.07000e+02	
			         2.75000	1.12000e+02	
			         2.75167	1.17000e+02	
			         2.75333	1.23000e+02	
			         2.75500	1.28000e+02	
			         2.75667	1.34000e+02	
			         2.75833	1.40000e+02	
			         2.76000	1.45000e+02	
			         2.76167	1.51000e+02	
			         2.76333	1.57000e+02	
			         2.76500	1.62000e+02	
			         2.76667	1.68000e+02	
			         2.76833	1.73000e+02	
			         2.77000	1.78000e+02	
			         2.77167	1.83000e+02	
			         2.77333	1.88000e+02	
			         2.77500	1.92000e+02	
			         2.77667	1.97000e+02	
			         2.77833	2.01000e+02	
			         2.78000	2.05000e+02	
			         2.78167	2.09000e+02	
			         2.78333	2.12000e+02	
			         2.78500	2.15000e+02	
			         2.78667	2.17000e+02	
			         2.78833	2.19000e+02	
			         2.79000	2.20000e+02	
			         2.79167	2.21000e+02	
			         2.79333	2.21000e+02	
			         2.79500	2.21000e+02	
			         2.79667	2.20000e+02	
			         2.79833	2.18000e+02	
			         2.80000	2.16000e+02	
			         2.80167	2.14000e+02	
			         2.80333	2.11000e+02	
			         2.80500	2.07000e+02	
			         2.80667	2.03000e+02	
			         2.80833	1.98000e+02	
			         2.81000	1.93000e+02	
			         2.81167	1.87000e+02	
			         2.81333	1.80000e+02	
			         2.81500	1.73000e+02	
			         2.81667	1.66000e+02	
			         2.81833	1.58000e+02	
			         2.82000	1.49000e+02	
			         2.82167	1.39000e+02	
			         2.82333	1.29000e+02	
			         2.82500	1.18000e+02	
			         2.82667	1.07000e+02	
			         2.82833	9.50000e+01	
			         2.83000	8.20000e+01	
			         2.83167	6.80000e+01	
			         2.83333	5.50000e+01	
			         2.83500	4.00000e+01	
			         2.83667	2.60000e+01	
			         2.83833	1.10000e+01	
			         2.84000	-3.00000e+00	
			         2.84167	-1.80000e+01	
			         2.84333	-3.20000e+01	
			         2.84500	-4.50000e+01	
			         2.84667	-5.80000e+01	
			         2.84833	-7.00000e+01	
			         2.85000	-8.20000e+01	
			         2.85167	-9.30000e+01	
			         2.85333	-1.03000e+02	
			         2.85500	-1.12000e+02	
			         2.85667	-1.19000e+02	
			         2.85833	-1.26000e+02	
			         2.86000	-1.33000e+02	
			         2.86167	-1.38000e+02	
			         2.86333	-1.43000e+02	
			         2.86500	-1.47000e+02	
			         2.86667	-1.51000e+02	
			         2.86833	-1.53000e+02	
			         2.87000	-1.56000e+02	
			         2.87167	-1.58000e+02	
			         2.87333	-1.59000e+02	
			         2.87500	-1.60000e+02	
			         2.87667	-1.61000e+02	
			         2.87833	-1.61000e+02	
			         2.88000	-1.61000e+02	
			         2.88167	-1.61000e+02	
			         2.88333	-1.61000e+02	
			         2.88500	-1.60000e+02	
			         2.88667	-1.59000e+02	
			         2.88833	-1.58000e+02	
			         2.89000	-1.57000e+02	
			         2.89167	-1.56000e+02	
			         2.89333	-1.54000e+02	
			         2.89500	-1.52000e+02	
			         2.89667	-1.50000e+02	
			         2.89833	-1.47000e+02	
			         2.90000	-1.44000e+02	
			         2.90167	-1.41000e+02	
			         2.90333	-1.38000e+02	
			         2.90500	-1.35000e+02	
			         2.90667	-1.32000e+02	
			         2.90833	-1.29000e+02	
			         2.91000	-1.26000e+02	
			         2.91167	-1.23000e+02	
			         2.91333	-1.21000e+02	
			         2.91500	-1.18000e+02	
			         2.91667	-1.16000e+02	
			         2.91833	-1.14000e+02	
			         2.92000	-1.12000e+02	
			         2.92167	-1.10000e+02	
			         2.92333	-1.08000e+02	
			         2.92500	-1.06000e+02	
			         2.92667	-1.04000e+02	
			         2.92833	-1.02000e+02	
			         2.93000	-1.00000e+02	
			         2.93167	-9.80000e+01	
			         2.93333	-9.60000e+01	
			         2.93500	-9.40000e+01	
			         2.93667	-9.20000e+01	
			         2.93833	-9.00000e+01	
			         2.94000	-8.80000e+01	
			         2.94167	-8.50000e+01	
			         2.94333	-8.20000e+01	
			         2.94500	-8.00000e+01	
			         2.94667	-7.70000e+01	
			         2.94833	-7.40000e+01	
			         2.95000	-7.10000e+01	
			         2.95167	-6.80000e+01	
			         2.95333	-6.50000e+01	
			         2.95500	-6.20000e+01	
			         2.95667	-5.80000e+01	
			         2.95833	-5.50000e+01	
			         2.96000	-5.20000e+01	
			         2.96167	-5.00000e+01	
			         2.96333	-4.70000e+01	
			         2.96500	-4.50000e+01	
			         2.96667	-4.30000e+01	
			         2.96833	-4.20000e+01	
			         2.97000	-4.10000e+01	
			         2.97167	-3.90000e+01	
			         2.97333	-3.90000e+01	
			         2.97500	-3.80000e+01	
			         2.97667	-3.70000e+01	
			         2.97833	-3.70000e+01	
			         2.98000	-3.60000e+01	
			         2.98167	-3.60000e+01	
			         2.98333	-3.50000e+01	
			         2.98500	-3.50000e+01	
			         2.98667	-3.40000e+01	
			         2.98833	-3.30000e+01	
			         2.99000	-3.30000e+01	
			         2.99167	-3.20000e+01	
			         2.99333	-3.10000e+01	
			         2.99500	-3.00000e+01	
			         2.99667	-2.90000e+01	
			         2.99833	-2.70000e+01	
			         3.00000	-2.60000e+01	
			         3.00167	-2.50000e+01	
			         3.00333	-2.40000e+01	
			         3.00500	-2.20000e+01	
			         3.00667	-2.10000e+01	
			         3.00833	-1.90000e+01	
			         3.01000	-1.80000e+01	
			         3.01167	-1.70000e+01	
			         3.01333	-1.60000e+01	
			         3.01500	-1.50000e+01	
			         3.01667	-1.40000e+01	
			         3.01833	-1.40000e+01	
			         3.02000	-1.40000e+01	
			         3.02167	-1.40000e+01	
			         3.02333	-1.40000e+01	
			         3.02500	-1.40000e+01	
			         3.02667	-1.40000e+01	
			         3.02833	-1.50000e+01	
			         3.03000	-1.50000e+01	
			         3.03167	-1.50000e+01	
			         3.03333	-1.40000e+01	
			         3.03500	-1.40000e+01	
			         3.03667	-1.30000e+01	
			         3.03833	-1.20000e+01	
			         3.04000	-1.10000e+01	
			         3.04167	-1.00000e+01	
			         3.04333	-9.00000e+00	
			         3.04500	-8.00000e+00	
			         3.04667	-7.00000e+00	
			         3.04833	-7.00000e+00	
			         3.05000	-7.00000e+00	
			         3.05167	-7.00000e+00	
			         3.05333	-7.00000e+00	
			         3.05500	-8.00000e+00	
			         3.05667	-8.00000e+00	
			         3.05833	-9.00000e+00	
			         3.06000	-1.00000e+01	
			         3.06167	-1.10000e+01	
			         3.06333	-1.10000e+01	
			         3.06500	-1.20000e+01	
			         3.06667	-1.30000e+01	
			         3.06833	-1.30000e+01	
			         3.07000	-1.30000e+01	
			         3.07167	-1.40000e+01	
			         3.07333	-1.40000e+01	
			         3.07500	-1.40000e+01	
			         3.07667	-1.40000e+01	
			         3.07833	-1.40000e+01	
			         3.08000	-1.40000e+01	
			         3.08167	-1.40000e+01	
			         3.08333	-1.40000e+01	
			         3.08500	-1.40000e+01	
			         3.08667	-1.40000e+01	
			         3.08833	-1.40000e+01	
			         3.09000	-1.40000e+01	
			         3.09167	-1.40000e+01	
			         3.09333	-1.40000e+01	
			         3.09500	-1.40000e+01	
			         3.09667	-1.40000e+01	
			         3.09833	-1.40000e+01	
			         3.10000	-1.40000e+01	
			         3.10167	-1.50000e+01	
			         3.10333	-1.50000e+01	
			         3.10500	-1.50000e+01	
			         3.10667	-1.50000e+01	
			         3.10833	-1.60000e+01	
			         3.11000	-1.60000e+01	
			         3.11167	-1.60000e+01	
			         3.11333	-1.60000e+01	
			         3.11500	-1.60000e+01	
			         3.11667	-1.60000e+01	
			         3.11833	-1.70000e+01	
			         3.12000	-1.70000e+01	
			         3.12167	-1.60000e+01	
			         3.12333	-1.60000e+01	
			         3.12500	-1.60000e+01	
			         3.12667	-1.60000e+01	
			         3.12833	-1.60000e+01	
			         3.13000	-1.60000e+01	
			         3.13167	-1.60000e+01	
			         3.13333	-1.60000e+01	
			         3.13500	-1.50000e+01	
			         3.13667	-1.40000e+01	
			         3.13833	-1.40000e+01	
			         3.14000	-1.30000e+01	
			         3.14167	-1.20000e+01	
			         3.14333	-1.10000e+01	
			         3.14500	-1.10000e+01	
			         3.14667	-1.00000e+01	
			         3.14833	-1.00000e+01	
			         3.15000	-1.00000e+01	
			         3.15167	-1.00000e+01	
			         3.15333	-1.00000e+01	
			         3.15500	-1.00000e+01	
			         3.15667	-1.10000e+01	
			         3.15833	-1.10000e+01	
			         3.16000	-1.20000e+01	
			         3.16167	-1.20000e+01	
			         3.16333	-1.20000e+01	
			         3.16500	-1.30000e+01	
			         3.16667	-1.30000e+01	
			         3.16833	-1.30000e+01	
			         3.17000	-1.30000e+01	
			         3.17167	-1.30000e+01	
			         3.17333	-1.30000e+01	
			         3.17500	-1.30000e+01	
			         3.17667	-1.30000e+01	
			         3.17833	-1.30000e+01	
			         3.18000	-1.30000e+01	
			         3.18167	-1.30000e+01	
			         3.18333	-1.30000e+01	
			         3.18500	-1.30000e+01	
			         3.18667	-1.40000e+01	
			         3.18833	-1.40000e+01	
			         3.19000	-1.50000e+01	
			         3.19167	-1.50000e+01	
			         3.19333	-1.60000e+01	
			         3.19500	-1.60000e+01	
			         3.19667	-1.70000e+01	
			         3.19833	-1.70000e+01	
			         3.20000	-1.70000e+01	
			         3.20167	-1.70000e+01	
			         3.20333	-1.60000e+01	
			         3.20500	-1.60000e+01	
			         3.20667	-1.60000e+01	
			         3.20833	-1.50000e+01	
			         3.21000	-1.50000e+01	
			         3.21167	-1.40000e+01	
			         3.21333	-1.30000e+01	
			         3.21500	-1.20000e+01	
			         3.21667	-1.20000e+01	
			         3.21833	-1.10000e+01	
			         3.22000	-1.10000e+01	
			         3.22167	-1.00000e+01	
			         3.22333	-1.00000e+01	
			         3.22500	-9.00000e+00	
			         3.22667	-9.00000e+00	
			         3.22833	-8.00000e+00	
			         3.23000	-8.00000e+00	
			         3.23167	-8.00000e+00	
			         3.23333	-8.00000e+00	
			         3.23500	-8.00000e+00	
			         3.23667	-8.00000e+00	
			         3.23833	-8.00000e+00	
			         3.24000	-7.00000e+00	
			         3.24167	-7.00000e+00	
			         3.24333	-7.00000e+00	
			         3.24500	-7.00000e+00	
			         3.24667	-7.00000e+00	
			         3.24833	-6.00000e+00	
			         3.25000	-6.00000e+00	
			         3.25167	-6.00000e+00	
			         3.25333	-5.00000e+00	
			         3.25500	-5.00000e+00	
			         3.25667	-5.00000e+00	
			         3.25833	-4.00000e+00	
			         3.26000	-4.00000e+00	
			         3.26167	-4.00000e+00	
			         3.26333	-4.00000e+00	
			         3.26500	-5.00000e+00	
			         3.26667	-5.00000e+00	
			         3.26833	-5.00000e+00	
			         3.27000	-6.00000e+00	
			         3.27167	-6.00000e+00	
			         3.27333	-6.00000e+00	
			         3.27500	-7.00000e+00	
			         3.27667	-7.00000e+00	
			         3.27833	-7.00000e+00	
			         3.28000	-7.00000e+00	
			         3.28167	-8.00000e+00	
			         3.28333	-8.00000e+00	
			         3.28500	-7.00000e+00	
			         3.28667	-7.00000e+00	
			         3.28833	-7.00000e+00	
			         3.29000	-7.00000e+00	
			         3.29167	-7.00000e+00	
			         3.29333	-6.00000e+00	
			         3.29500	-6.00000e+00	
			         3.29667	-6.00000e+00	
			         3.29833	-6.00000e+00	
			         3.30000	-5.00000e+00	
			         3.30167	-5.00000e+00	
			         3.30333	-5.00000e+00	
			         3.30500	-5.00000e+00	
			         3.30667	-5.00000e+00	
			         3.30833	-5.00000e+00	
			         3.31000	-5.00000e+00	
			         3.31167	-5.00000e+00	
			         3.31333	-6.00000e+00	
			         3.31500	-6.00000e+00	
			         3.31667	-7.00000e+00	
			         3.31833	-8.00000e+00	
			         3.32000	-9.00000e+00	
			         3.32167	-9.00000e+00	
			         3.32333	-1.00000e+01	
			         3.32500	-1.10000e+01	
			         3.32667	-1.10000e+01	
			         3.32833	-1.10000e+01	
			         3.33000	-1.10000e+01	
			         3.33167	-1.10000e+01	
			         3.33333	-1.10000e+01	
			         3.33500	-1.00000e+01	
			         3.33667	-9.00000e+00	
			         3.33833	-9.00000e+00	
			         3.34000	-8.00000e+00	
			         3.34167	-7.00000e+00	
			         3.34333	-5.00000e+00	
			         3.34500	-4.00000e+00	
			         3.34667	-4.00000e+00	
			         3.34833	-3.00000e+00	
			         3.35000	-2.00000e+00	
			         3.35167	-2.00000e+00	
			         3.35333	-1.00000e+00	
			         3.35500	-1.00000e+00	
			         3.35667	-1.00000e+00	
			         3.35833	0.00000e+00	
			         3.36000	0.00000e+00	
			         3.36167	0.00000e+00	
			         3.36333	1.00000e+00	
			         3.36500	1.00000e+00	
			         3.36667	1.00000e+00	
			         3.36833	1.00000e+00	
			         3.37000	1.00000e+00	
			         3.37167	1.00000e+00	
			         3.37333	1.00000e+00	
			         3.37500	1.00000e+00	
			         3.37667	1.00000e+00	
			         3.37833	1.00000e+00	
			         3.38000	1.00000e+00	
			         3.38167	0.00000e+00	
			         3.38333	0.00000e+00	
			         3.38500	0.00000e+00	
			         3.38667	-1.00000e+00	
			         3.38833	-1.00000e+00	
			         3.39000	-1.00000e+00	
			         3.39167	-2.00000e+00	
			         3.39333	-2.00000e+00	
			         3.39500	-2.00000e+00	
			         3.39667	-2.00000e+00	
			         3.39833	-2.00000e+00	
			         3.40000	-2.00000e+00	
			         3.40167	-2.00000e+00	
			         3.40333	-1.00000e+00	
			         3.40500	-1.00000e+00	
			         3.40667	-1.00000e+00	
			         3.40833	-1.00000e+00	
			         3.41000	-1.00000e+00	
			         3.41167	-1.00000e+00	
			         3.41333	-1.00000e+00	
			         3.41500	-1.00000e+00	
			         3.41667	-2.00000e+00	
			         3.41833	-2.00000e+00	
			         3.42000	-3.00000e+00	
			         3.42167	-3.00000e+00	
			         3.42333	-4.00000e+00	
			         3.42500	-5.00000e+00	
			         3.42667	-6.00000e+00	
			         3.42833	-7.00000e+00	
			         3.43000	-7.00000e+00	
			         3.43167	-8.00000e+00	
			         3.43333	-9.00000e+00	
			         3.43500	-1.00000e+01	
			         3.43667	-1.10000e+01	
			         3.43833	-1.20000e+01	
			         3.44000	-1.20000e+01	
			         3.44167	-1.30000e+01	
			         3.44333	-1.40000e+01	
			         3.44500	-1.50000e+01	
			         3.44667	-1.50000e+01	
			         3.44833	-1.60000e+01	
			         3.45000	-1.60000e+01	
			         3.45167	-1.60000e+01	
			         3.45333	-1.60000e+01	
			         3.45500	-1.60000e+01	
			         3.45667	-1.60000e+01	
			         3.45833	-1.50000e+01	
			         3.46000	-1.40000e+01	
			         3.46167	-1.30000e+01	
			         3.46333	-1.10000e+01	
			         3.46500	-9.00000e+00	
			         3.46667	-7.00000e+00	
			         3.46833	-4.00000e+00	
			         3.47000	-1.00000e+00	
			         3.47167	2.00000e+00	
			         3.47333	6.00000e+00	
			         3.47500	1.00000e+01	
			         3.47667	1.40000e+01	
			         3.47833	1.80000e+01	
			         3.48000	2.10000e+01	
			         3.48167	2.50000e+01	
			         3.48333	2.80000e+01	
			         3.48500	3.20000e+01	
			         3.48667	3.50000e+01	
			         3.48833	3.70000e+01	
			         3.49000	4.00000e+01	
			         3.49167	4.20000e+01	
			         3.49333	4.40000e+01	
			         3.49500	4.60000e+01	
			         3.49667	4.70000e+01	
			         3.49833	4.90000e+01	
			         3.50000	5.00000e+01	
			         3.50167	5.20000e+01	
			         3.50333	5.30000e+01	
			         3.50500	5.40000e+01	
			         3.50667	5.50000e+01	
			         3.50833	5.50000e+01	
			         3.51000	5.40000e+01	
			         3.51167	5.30000e+01	
			         3.51333	5.10000e+01	
			         3.51500	4.80000e+01	
			         3.51667	4.50000e+01	
			         3.51833	4.10000e+01	
			         3.52000	3.60000e+01	
			         3.52167	3.10000e+01	
			         3.52333	2.50000e+01	
			         3.52500	1.90000e+01	
			         3.52667	1.30000e+01	
			         3.52833	7.00000e+00	
			         3.53000	2.00000e+00	
			         3.53167	-4.00000e+00	
			         3.53333	-9.00000e+00	
			         3.53500	-1.30000e+01	
			         3.53667	-1.70000e+01	
			         3.53833	-2.10000e+01	
			         3.54000	-2.40000e+01	
			         3.54167	-2.60000e+01	
			         3.54333	-2.80000e+01	
			         3.54500	-3.00000e+01	
			         3.54667	-3.20000e+01	
			         3.54833	-3.30000e+01	
			         3.55000	-3.40000e+01	
			         3.55167	-3.40000e+01	
			         3.55333	-3.40000e+01	
			         3.55500	-3.40000e+01	
			         3.55667	-3.30000e+01	
			         3.55833	-3.20000e+01	
			         3.56000	-3.10000e+01	
			         3.56167	-3.00000e+01	
			         3.56333	-2.90000e+01	
			         3.56500	-2.80000e+01	
			         3.56667	-2.60000e+01	
			         3.56833	-2.50000e+01	
			         3.57000	-2.40000e+01	
			         3.57167	-2.30000e+01	
			         3.57333	-2.20000e+01	
			         3.57500	-2.20000e+01	
			         3.57667	-2.10000e+01	
			         3.57833	-2.10000e+01	
			         3.58000	-2.10000e+01	
			         3.58167	-2.20000e+01	
			         3.58333	-2.20000e+01	
			         3.58500	-2.30000e+01	
			         3.58667	-2.30000e+01	
			         3.58833	-2.40000e+01	
			         3.59000	-2.50000e+01	
			         3.59167	-2.60000e+01	
			         3.59333	-2.60000e+01	
			         3.59500	-2.60000e+01	
			         3.59667	-2.60000e+01	
			         3.59833	-2.60000e+01	
			         3.60000	-2.60000e+01	
			         3.60167	-2.60000e+01	
			         3.60333	-2.50000e+01	
			         3.60500	-2.40000e+01	
			         3.60667	-2.30000e+01	
			         3.60833	-2.20000e+01	
			         3.61000	-2.10000e+01	
			         3.61167	-2.10000e+01	
			         3.61333	-2.00000e+01	
			         3.61500	-1.90000e+01	
			         3.61667	-1.80000e+01	
			         3.61833	-1.70000e+01	
			         3.62000	-1.70000e+01	
			         3.62167	-1.60000e+01	
			         3.62333	-1.60000e+01	
			         3.62500	-1.50000e+01	
			         3.62667	-1.50000e+01	
			         3.62833	-1.50000e+01	
			         3.63000	-1.50000e+01	
			         3.63167	-1.60000e+01	
			         3.63333	-1.60000e+01	
			         3.63500	-1.60000e+01	
			         3.63667	-1.60000e+01	
			         3.63833	-1.60000e+01	
			         3.64000	-1.60000e+01	
			         3.64167	-1.60000e+01	
			         3.64333	-1.60000e+01	
			         3.64500	-1.60000e+01	
			         3.64667	-1.50000e+01	
			         3.64833	-1.50000e+01	
			         3.65000	-1.50000e+01	
			         3.65167	-1.40000e+01	
			         3.65333	-1.40000e+01	
			         3.65500	-1.40000e+01	
			         3.65667	-1.40000e+01	
			         3.65833	-1.30000e+01	
			         3.66000	-1.30000e+01	
			         3.66167	-1.20000e+01	
			         3.66333	-1.20000e+01	
			         3.66500	-1.20000e+01	
			         3.66667	-1.20000e+01	
			         3.66833	-1.20000e+01	
			         3.67000	-1.10000e+01	
			         3.67167	-1.10000e+01	
			         3.67333	-1.10000e+01	
			         3.67500	-1.10000e+01	
			         3.67667	-1.00000e+01	
			         3.67833	-1.00000e+01	
			         3.68000	-1.00000e+01	
			         3.68167	-1.00000e+01	
			         3.68333	-1.00000e+01	
			         3.68500	-9.00000e+00	
			         3.68667	-9.00000e+00	
			         3.68833	-9.00000e+00	
			         3.69000	-9.00000e+00	
			         3.69167	-9.00000e+00	
			         3.69333	-8.00000e+00	
			         3.69500	-8.00000e+00	
			         3.69667	-7.00000e+00	
			         3.69833	-7.00000e+00	
			         3.70000	-6.00000e+00	
			         3.70167	-5.00000e+00	
			         3.70333	-4.00000e+00	
			         3.70500	-4.00000e+00	
			         3.70667	-3.00000e+00	
			         3.70833	-2.00000e+00	
			         3.71000	-1.00000e+00	
			         3.71167	0.00000e+00	
			         3.71333	1.00000e+00	
			         3.71500	2.00000e+00	
			         3.71667	4.00000e+00	
			         3.71833	5.00000e+00	
			         3.72000	7.00000e+00	
			         3.72167	9.00000e+00	
			         3.72333	1.20000e+01	
			         3.72500	1.50000e+01	
			         3.72667	1.90000e+01	
			         3.72833	2.50000e+01	
			         3.73000	3.20000e+01	
			         3.73167	4.10000e+01	
			         3.73333	5.20000e+01	
			         3.73500	6.40000e+01	
			         3.73667	7.80000e+01	
			         3.73833	9.30000e+01	
			         3.74000	1.11000e+02	
			         3.74167	1.30000e+02	
			         3.74333	1.52000e+02	
			         3.74500	1.75000e+02	
			         3.74667	2.00000e+02	
			         3.74833	2.25000e+02	
			         3.75000	2.48000e+02	
			         3.75167	2.70000e+02	
			         3.75333	2.87000e+02	
			         3.75500	2.98000e+02	
			         3.75667	3.03000e+02	
			         3.75833	3.00000e+02	
			         3.76000	2.89000e+02	
			         3.76167	2.70000e+02	
			         3.76333	2.44000e+02	
			         3.76500	2.10000e+02	
			         3.76667	1.70000e+02	
			         3.76833	1.25000e+02	
			         3.77000	7.80000e+01	
			         3.77167	3.00000e+01	
			         3.77333	-1.50000e+01	
			         3.77500	-5.60000e+01	
			         3.77667	-9.20000e+01	
			         3.77833	-1.20000e+02	
			         3.78000	-1.42000e+02	
			         3.78167	-1.57000e+02	
			         3.78333	-1.65000e+02	
			         3.78500	-1.67000e+02	
			         3.78667	-1.64000e+02	
			         3.78833	-1.58000e+02	
			         3.79000	-1.48000e+02	
			         3.79167	-1.38000e+02	
			         3.79333	-1.26000e+02	
			         3.79500	-1.14000e+02	
			         3.79667	-1.03000e+02	
			         3.79833	-9.30000e+01	
			         3.80000	-8.40000e+01	
			         3.80167	-7.60000e+01	
			         3.80333	-7.00000e+01	
			         3.80500	-6.50000e+01	
			         3.80667	-6.00000e+01	
			         3.80833	-5.70000e+01	
			         3.81000	-5.50000e+01	
			         3.81167	-5.30000e+01	
			         3.81333	-5.10000e+01	
			         3.81500	-5.00000e+01	
			         3.81667	-5.00000e+01	
			         3.81833	-4.90000e+01	
			         3.82000	-4.90000e+01	
			         3.82167	-4.90000e+01	
			         3.82333	-4.80000e+01	
			         3.82500	-4.80000e+01	
			         3.82667	-4.80000e+01	
			         3.82833	-4.70000e+01	
			         3.83000	-4.70000e+01	
			         3.83167	-4.60000e+01	
			         3.83333	-4.50000e+01	
			         3.83500	-4.40000e+01	
			         3.83667	-4.20000e+01	
			         3.83833	-4.10000e+01	
			         3.84000	-3.90000e+01	
			         3.84167	-3.70000e+01	
			         3.84333	-3.50000e+01	
			         3.84500	-3.40000e+01	
			         3.84667	-3.20000e+01	
			         3.84833	-3.00000e+01	
			         3.85000	-2.90000e+01	
			         3.85167	-2.80000e+01	
