Velocity (TVI), in cm/s

Time (s) :	Trace 1 : 		Ecg : 		
0.01700   	-3.75299e+00		         0.00000	-3.00000e+01	
0.02310   	-2.78583e+00		         0.00167	-2.80000e+01	
0.02948   	-1.92063e+00		         0.00333	-2.70000e+01	
0.03558   	-7.36421e-01		         0.00500	-2.50000e+01	
0.04169   	5.34762e-01		         0.00667	-2.40000e+01	
0.04779   	1.30899e+00		         0.00833	-2.30000e+01	
0.05417   	9.51346e-01		         0.01000	-2.20000e+01	
0.06027   	3.30090e-01		         0.01167	-2.00000e+01	
0.06638   	7.48600e-02		         0.01333	-1.70000e+01	
0.07248   	-6.36646e-01		         0.01500	-1.20000e+01	
0.07886   	-1.26683e+00		         0.01667	-5.00000e+00	
0.08496   	-1.15931e+00		         0.01833	5.00000e+00	
0.09107   	-4.31009e-01		         0.02000	1.80000e+01	
0.09717   	4.29817e-01		         0.02167	3.30000e+01	
0.10355   	1.84092e+00		         0.02333	5.10000e+01	
0.10966   	3.64901e+00		         0.02500	7.00000e+01	
0.11576   	5.14123e+00		         0.02667	9.10000e+01	
0.12186   	5.94174e+00		         0.02833	1.11000e+02	
0.12824   	6.32416e+00		         0.03000	1.30000e+02	
0.13434   	6.40192e+00		         0.03167	1.47000e+02	
0.14044   	6.35050e+00		         0.03333	1.61000e+02	
0.14655   	6.30011e+00		         0.03500	1.71000e+02	
0.15293   	6.33950e+00		         0.03667	1.75000e+02	
0.15903   	6.18458e+00		         0.03833	1.74000e+02	
0.16518   	6.05874e+00		         0.04000	1.68000e+02	
0.17124   	5.87236e+00		         0.04167	1.57000e+02	
0.17762   	5.79582e+00		         0.04333	1.40000e+02	
0.18372   	5.64332e+00		         0.04500	1.20000e+02	
0.18983   	5.54978e+00		         0.04667	9.70000e+01	
0.19593   	5.40698e+00		         0.04833	7.20000e+01	
0.20231   	5.31266e+00		         0.05000	4.70000e+01	
0.20841   	5.18934e+00		         0.05167	2.30000e+01	
0.21491   	5.09593e+00		         0.05333	1.00000e+00	
0.22062   	5.09386e+00		         0.05500	-1.80000e+01	
0.22700   	5.05622e+00		         0.05667	-3.30000e+01	
0.23310   	5.00760e+00		         0.05833	-4.60000e+01	
0.23921   	4.92551e+00		         0.06000	-5.50000e+01	
0.24531   	4.84404e+00		         0.06167	-6.20000e+01	
0.25169   	4.74242e+00		         0.06333	-6.60000e+01	
0.25780   	4.66319e+00		         0.06500	-6.70000e+01	
0.26390   	4.57158e+00		         0.06667	-6.70000e+01	
0.27000   	4.49406e+00		         0.06833	-6.50000e+01	
0.27638   	4.39838e+00		         0.07000	-6.20000e+01	
0.28248   	4.30828e+00		         0.07167	-5.90000e+01	
0.28859   	4.23643e+00		         0.07333	-5.60000e+01	
0.29469   	4.12413e+00		         0.07500	-5.30000e+01	
0.30107   	4.01373e+00		         0.07667	-5.10000e+01	
0.30718   	3.90664e+00		         0.07833	-4.90000e+01	
0.31328   	3.75683e+00		         0.08000	-4.70000e+01	
0.31938   	3.60078e+00		         0.08167	-4.60000e+01	
0.32576   	3.48009e+00		         0.08333	-4.50000e+01	
0.33186   	3.36048e+00		         0.08500	-4.50000e+01	
0.33797   	3.22546e+00		         0.08667	-4.50000e+01	
0.34407   	3.10199e+00		         0.08833	-4.40000e+01	
0.35045   	2.96744e+00		         0.09000	-4.40000e+01	
0.35656   	2.81798e+00		         0.09167	-4.40000e+01	
0.36266   	2.66327e+00		         0.09333	-4.40000e+01	
0.36877   	2.53623e+00		         0.09500	-4.40000e+01	
0.37514   	2.37179e+00		         0.09667	-4.40000e+01	
0.38131   	2.18401e+00		         0.09833	-4.30000e+01	
0.38735   	1.96317e+00		         0.10000	-4.30000e+01	
0.39346   	1.64947e+00		         0.10167	-4.20000e+01	
0.39983   	1.17857e+00		         0.10333	-4.10000e+01	
0.40593   	5.61422e-01		         0.10500	-4.00000e+01	
0.41204   	-2.56497e-01		         0.10667	-3.90000e+01	
0.41814   	-1.24510e+00		         0.10833	-3.80000e+01	
0.42452   	-2.01774e+00		         0.11000	-3.60000e+01	
0.43075   	-2.36448e+00		         0.11167	-3.50000e+01	
0.43673   	-2.48843e+00		         0.11333	-3.40000e+01	
0.44284   	-2.35067e+00		         0.11500	-3.30000e+01	
0.44921   	-1.98013e+00		         0.11667	-3.20000e+01	
0.45531   	-1.56497e+00		         0.11833	-3.10000e+01	
0.46142   	-1.34029e+00		         0.12000	-3.00000e+01	
0.46752   	-9.32712e-01		         0.12167	-3.00000e+01	
0.47390   	-4.94562e-01		         0.12333	-2.90000e+01	
0.48000   	-4.92138e-02		         0.12500	-2.90000e+01	
0.48611   	3.64307e-01		         0.12667	-2.90000e+01	
0.49222   	5.30890e-01		         0.12833	-2.90000e+01	
0.49859   	6.04424e-01		         0.13000	-2.80000e+01	
0.50470   	4.41551e-01		         0.13167	-2.80000e+01	
0.51080   	1.84661e-01		         0.13333	-2.70000e+01	
0.51690   	-3.05399e-01		         0.13500	-2.60000e+01	
0.52328   	-7.46868e-01		         0.13667	-2.50000e+01	
0.52938   	-1.63704e+00		         0.13833	-2.30000e+01	
0.53549   	-2.45851e+00		         0.14000	-2.20000e+01	
0.54160   	-3.37181e+00		         0.14167	-2.00000e+01	
0.54797   	-4.28802e+00		         0.14333	-1.80000e+01	
0.55408   	-5.11328e+00		         0.14500	-1.70000e+01	
0.56018   	-5.49572e+00		         0.14667	-1.60000e+01	
0.56628   	-5.71816e+00		         0.14833	-1.50000e+01	
0.57266   	-5.77482e+00		         0.15000	-1.40000e+01	
0.57876   	-5.66079e+00		         0.15167	-1.40000e+01	
0.58487   	-5.37311e+00		         0.15333	-1.40000e+01	
0.59097   	-5.10832e+00		         0.15500	-1.40000e+01	
0.59735   	-4.76166e+00		         0.15667	-1.40000e+01	
0.60346   	-4.37108e+00		         0.15833	-1.40000e+01	
0.60956   	-3.99397e+00		         0.16000	-1.50000e+01	
0.61566   	-3.67328e+00		         0.16167	-1.50000e+01	
0.62204   	-3.40105e+00		         0.16333	-1.50000e+01	
0.62814   	-3.16312e+00		         0.16500	-1.50000e+01	
0.63425   	-2.87243e+00		         0.16667	-1.40000e+01	
0.64036   	-2.50482e+00		         0.16833	-1.40000e+01	
0.64673   	-2.13952e+00		         0.17000	-1.20000e+01	
0.65284   	-1.76958e+00		         0.17167	-1.10000e+01	
0.65895   	-1.41214e+00		         0.17333	-1.00000e+01	
0.66504   	-1.05778e+00		         0.17500	-8.00000e+00	
0.67142   	-7.76618e-01		         0.17667	-7.00000e+00	
0.67752   	-5.39869e-01		         0.17833	-6.00000e+00	
0.68363   	-3.16028e-01		         0.18000	-5.00000e+00	
0.68974   	-1.70598e-01		         0.18167	-3.00000e+00	
0.69630   	-9.50164e-02		         0.18333	-3.00000e+00	
0.70222   	-6.01996e-02		         0.18500	-2.00000e+00	
0.70832   	-1.45513e-01		         0.18667	-1.00000e+00	
0.71443   	-2.15133e-01		         0.18833	-1.00000e+00	
0.72080   	-2.88583e-01		         0.19000	0.00000e+00	
0.72690   	-2.95022e-01		         0.19167	0.00000e+00	
0.73301   	-2.63061e-01		         0.19333	0.00000e+00	
0.73912   	-1.51992e-01		         0.19500	0.00000e+00	
0.74549   	-6.71725e-02		         0.19667	0.00000e+00	
0.75160   	3.73408e-02		         0.19833	-1.00000e+00	
0.75770   	7.62837e-02		         0.20000	-1.00000e+00	
0.76380   	1.13614e-01		         0.20167	-1.00000e+00	
0.77018   	1.53585e-01		         0.20333	-2.00000e+00	
0.77628   	1.78881e-01		         0.20500	-2.00000e+00	
0.78239   	2.13688e-01		         0.20667	-3.00000e+00	
0.78850   	2.36144e-01		         0.20833	-3.00000e+00	
0.79487   	2.08671e-01		         0.21000	-4.00000e+00	
0.80097   	1.47371e-01		         0.21167	-4.00000e+00	
0.80708   	9.89629e-02		         0.21333	-5.00000e+00	
0.81319   	3.86621e-02		         0.21500	-5.00000e+00	
0.81956   	-2.05607e-02		         0.21667	-5.00000e+00	
0.82567   	-4.84869e-02		         0.21833	-5.00000e+00	
0.83177   	-1.60631e-02		         0.22000	-5.00000e+00	
0.83788   	3.11533e-02		         0.22167	-5.00000e+00	
0.84425   	4.23001e-02		         0.22333	-4.00000e+00	
0.85036   	-5.24855e-02		         0.22500	-4.00000e+00	
0.85646   	-3.38026e-01		         0.22667	-3.00000e+00	
0.86257   	-9.60726e-01		         0.22833	-1.00000e+00	
0.86894   	-1.98093e+00		         0.23000	0.00000e+00	
0.87505   	-3.40687e+00		         0.23167	2.00000e+00	
0.88115   	-5.00977e+00		         0.23333	4.00000e+00	
0.88726   	-6.77557e+00		         0.23500	7.00000e+00	
0.89363   	-8.35132e+00		         0.23667	9.00000e+00	
0.89974   	-9.71916e+00		         0.23833	1.10000e+01	
0.90584   	-1.06552e+01		         0.24000	1.30000e+01	
0.91225   	-1.12141e+01		         0.24167	1.40000e+01	
0.91832   	-1.11502e+01		         0.24333	1.50000e+01	
0.92443   	-1.05793e+01		         0.24500	1.70000e+01	
0.93053   	-9.48258e+00		         0.24667	1.70000e+01	
0.93664   	-8.14658e+00		         0.24833	1.80000e+01	
0.94301   	-6.76317e+00		         0.25000	1.90000e+01	
0.94912   	-5.40108e+00		         0.25167	1.90000e+01	
0.95522   	-4.20988e+00		         0.25333	2.00000e+01	
0.96133   	-3.05252e+00		         0.25500	2.10000e+01	
0.96770   	-1.82722e+00		         0.25667	2.20000e+01	
0.97381   	-4.31091e-01		         0.25833	2.40000e+01	
0.97991   	5.46500e-01		         0.26000	2.50000e+01	
0.98602   	8.71381e-01		         0.26167	2.60000e+01	
0.99239   	7.19438e-01		         0.26333	2.80000e+01	
0.99850   	6.73413e-01		         0.26500	2.90000e+01	
1.00460   	-4.59321e-02		         0.26667	3.00000e+01	
1.01071   	-7.52876e-01		         0.26833	3.10000e+01	
1.01708   	-8.28614e-01		         0.27000	3.20000e+01	
1.02319   	-5.90639e-01		         0.27167	3.30000e+01	
1.02929   	6.44872e-02		         0.27333	3.30000e+01	
1.03540   	1.37341e+00		         0.27500	3.40000e+01	
1.04177   	3.04128e+00		         0.27667	3.40000e+01	
1.04788   	4.52190e+00		         0.27833	3.40000e+01	
1.05398   	5.75928e+00		         0.28000	3.40000e+01	
1.06008   	6.20861e+00		         0.28167	3.50000e+01	
1.06646   	6.43867e+00		         0.28333	3.50000e+01	
1.07257   	6.44599e+00		         0.28500	3.50000e+01	
1.07867   	6.38322e+00		         0.28667	3.60000e+01	
1.08478   	6.40062e+00		         0.28833	3.60000e+01	
1.09115   	6.35611e+00		         0.29000	3.70000e+01	
1.09726   	6.18769e+00		         0.29167	3.70000e+01	
1.10336   	6.02938e+00		         0.29333	3.80000e+01	
1.10947   	5.88394e+00		         0.29500	3.80000e+01	
1.11584   	5.67699e+00		         0.29667	3.80000e+01	
1.12195   	5.52280e+00		         0.29833	3.70000e+01	
1.12818   	5.41550e+00		         0.30000	3.70000e+01	
1.13416   	5.28635e+00		         0.30167	3.70000e+01	
1.14053   	5.18991e+00		         0.30333	3.60000e+01	
1.14664   	5.15896e+00		         0.30500	3.60000e+01	
1.15274   	5.05658e+00		         0.30667	3.50000e+01	
1.15885   	5.01323e+00		         0.30833	3.50000e+01	
1.16523   	4.95430e+00		         0.31000	3.40000e+01	
1.17133   	4.92765e+00		         0.31167	3.30000e+01	
1.17743   	4.85956e+00		         0.31333	3.10000e+01	
1.18354   	4.80857e+00		         0.31500	3.00000e+01	
1.18991   	4.70340e+00		         0.31667	2.90000e+01	
1.19602   	4.61506e+00		         0.31833	2.70000e+01	
1.20212   	4.50586e+00		         0.32000	2.60000e+01	
1.20823   	4.42405e+00		         0.32167	2.40000e+01	
1.21460   	4.36176e+00		         0.32333	2.30000e+01	
1.22071   	4.29610e+00		         0.32500	2.10000e+01	
1.22681   	4.19978e+00		         0.32667	1.90000e+01	
1.23292   	4.11749e+00		         0.32833	1.70000e+01	
1.23929   	3.99254e+00		         0.33000	1.50000e+01	
1.24540   	3.88354e+00		         0.33167	1.20000e+01	
1.25150   	3.74084e+00		         0.33333	9.00000e+00	
1.25761   	3.62805e+00		         0.33500	7.00000e+00	
1.26398   	3.49275e+00		         0.33667	4.00000e+00	
1.27009   	3.36680e+00		         0.33833	1.00000e+00	
1.27619   	3.22067e+00		         0.34000	-2.00000e+00	
1.28230   	3.07624e+00		         0.34167	-5.00000e+00	
1.28867   	2.91860e+00		         0.34333	-8.00000e+00	
1.29478   	2.76245e+00		         0.34500	-1.20000e+01	
1.30088   	2.60973e+00		         0.34667	-1.50000e+01	
1.30699   	2.43863e+00		         0.34833	-1.90000e+01	
1.31336   	2.26297e+00		         0.35000	-2.20000e+01	
1.31947   	2.05529e+00		         0.35167	-2.60000e+01	
1.32557   	1.77822e+00		         0.35333	-2.90000e+01	
1.33168   	1.41262e+00		         0.35500	-3.20000e+01	
1.33805   	9.15469e-01		         0.35667	-3.50000e+01	
1.34416   	2.47153e-01		         0.35833	-3.70000e+01	
1.35026   	-5.87457e-01		         0.36000	-4.00000e+01	
1.35637   	-1.46899e+00		         0.36167	-4.10000e+01	
1.36274   	-2.04879e+00		         0.36333	-4.30000e+01	
1.36885   	-2.27173e+00		         0.36500	-4.40000e+01	
1.37495   	-2.17741e+00		         0.36667	-4.50000e+01	
1.38106   	-1.87841e+00		         0.36833	-4.50000e+01	
1.38743   	-1.40207e+00		         0.37000	-4.50000e+01	
1.39354   	-1.02096e+00		         0.37167	-4.50000e+01	
1.39964   	-6.95660e-01		         0.37333	-4.40000e+01	
1.40575   	-3.55048e-01		         0.37500	-4.40000e+01	
1.41212   	1.04382e-02		         0.37667	-4.30000e+01	
1.41823   	3.98514e-01		         0.37833	-4.20000e+01	
1.42433   	6.35824e-01		         0.38000	-4.00000e+01	
1.43044   	7.96425e-01		         0.38167	-3.90000e+01	
1.43682   	8.10391e-01		         0.38333	-3.80000e+01	
1.44292   	6.38596e-01		         0.38500	-3.70000e+01	
1.44903   	1.58555e-01		         0.38667	-3.60000e+01	
1.45513   	-1.57373e-01		         0.38833	-3.60000e+01	
1.46151   	-1.04815e+00		         0.39000	-3.60000e+01	
1.46761   	-2.18865e+00		         0.39167	-3.60000e+01	
1.47371   	-3.30767e+00		         0.39333	-3.70000e+01	
1.47982   	-4.20307e+00		         0.39500	-3.80000e+01	
1.48619   	-5.21947e+00		         0.39667	-3.90000e+01	
1.49230   	-5.70356e+00		         0.39833	-4.10000e+01	
1.49840   	-5.90579e+00		         0.40000	-4.30000e+01	
1.50451   	-5.89355e+00		         0.40167	-4.50000e+01	
1.51088   	-5.80853e+00		         0.40333	-4.70000e+01	
1.51699   	-5.65886e+00		         0.40500	-4.90000e+01	
1.52309   	-5.34243e+00		         0.40667	-5.00000e+01	
1.52920   	-4.97580e+00		         0.40833	-5.10000e+01	
1.53558   	-4.66609e+00		         0.41000	-5.10000e+01	
1.54168   	-4.35263e+00		         0.41167	-5.00000e+01	
1.54778   	-4.03477e+00		         0.41333	-5.00000e+01	
1.55389   	-3.83066e+00		         0.41500	-4.80000e+01	
1.56026   	-3.62591e+00		         0.41667	-4.60000e+01	
1.56637   	-3.29929e+00		         0.41833	-4.40000e+01	
1.57247   	-2.95151e+00		         0.42000	-4.20000e+01	
1.57858   	-2.54896e+00		         0.42167	-4.00000e+01	
1.58496   	-2.17608e+00		         0.42333	-3.70000e+01	
1.59106   	-1.76738e+00		         0.42500	-3.50000e+01	
1.59717   	-1.37888e+00		         0.42667	-3.20000e+01	
1.60327   	-1.03320e+00		         0.42833	-3.00000e+01	
1.60964   	-7.44689e-01		         0.43000	-2.90000e+01	
1.61575   	-4.53652e-01		         0.43167	-2.70000e+01	
1.62186   	-2.44833e-01		         0.43333	-2.60000e+01	
1.62796   	-1.34315e-01		         0.43500	-2.50000e+01	
1.63433   	-6.11599e-02		         0.43667	-2.50000e+01	
1.64044   	1.02104e-02		         0.43833	-2.50000e+01	
1.64655   	2.70030e-02		         0.44000	-2.50000e+01	
1.65265   	2.35165e-02		         0.44167	-2.50000e+01	
1.65913   	4.35312e-02		         0.44333	-2.50000e+01	
1.66513   	7.00233e-02		         0.44500	-2.60000e+01	
1.67124   	6.58802e-02		         0.44667	-2.60000e+01	
1.67734   	7.57641e-02		         0.44833	-2.60000e+01	
1.68372   	9.30013e-02		         0.45000	-2.60000e+01	
1.68982   	1.08265e-01		         0.45167	-2.60000e+01	
1.69592   	1.43248e-01		         0.45333	-2.50000e+01	
1.70203   	1.67222e-01		         0.45500	-2.40000e+01	
1.70840   	1.82573e-01		         0.45667	-2.30000e+01	
1.71451   	1.95637e-01		         0.45833	-2.20000e+01	
1.72061   	2.02491e-01		         0.46000	-2.10000e+01	
1.72672   	1.81635e-01		         0.46167	-2.00000e+01	
1.73310   	1.61957e-01		         0.46333	-1.80000e+01	
1.73920   	1.44334e-01		         0.46500	-1.70000e+01	
1.74530   	1.46277e-01		         0.46667	-1.60000e+01	
1.75141   	1.47252e-01		         0.46833	-1.50000e+01	
1.75778   	1.69956e-01		         0.47000	-1.40000e+01	
1.76389   	1.15012e-01		         0.47167	-1.30000e+01	
1.76999   	1.01722e-02		         0.47333	-1.30000e+01	
1.77610   	-4.34165e-01		         0.47500	-1.20000e+01	
1.78248   	-1.26787e+00		         0.47667	-1.10000e+01	
1.78858   	-2.49254e+00		         0.47833	-1.10000e+01	
1.79468   	-3.92950e+00		         0.48000	-1.10000e+01	
1.80079   	-5.71254e+00		         0.48167	-1.00000e+01	
1.80716   	-7.40228e+00		         0.48333	-1.00000e+01	
1.81327   	-8.91022e+00		         0.48500	-1.00000e+01	
1.81937   	-1.01985e+01		         0.48667	-1.00000e+01	
1.82548   	-1.10819e+01		         0.48833	-1.10000e+01	
1.83186   	-1.13657e+01		         0.49000	-1.10000e+01	
1.83796   	-1.11147e+01		         0.49167	-1.20000e+01	
1.84406   	-1.03309e+01		         0.49333	-1.20000e+01	
1.85017   	-9.02730e+00		         0.49500	-1.30000e+01	
1.85654   	-7.59963e+00		         0.49667	-1.40000e+01	
1.86265   	-6.24073e+00		         0.49833	-1.50000e+01	
1.86876   	-4.96123e+00		         0.50000	-1.50000e+01	
1.87515   	-3.66221e+00		         0.50167	-1.60000e+01	
1.88124   	-2.28135e+00		         0.50333	-1.60000e+01	
1.88734   	-9.67459e-01		         0.50500	-1.70000e+01	
1.89344   	3.49905e-01		         0.50667	-1.60000e+01	
1.89955   	1.32819e+00		         0.50833	-1.60000e+01	
1.90593   	1.01556e+00		         0.51000	-1.50000e+01	
1.91203   	2.92170e-01		         0.51167	-1.40000e+01	
1.91814   	-4.53381e-01		         0.51333	-1.30000e+01	
1.92424   	-1.37451e+00		         0.51500	-1.10000e+01	
1.93062   	-2.19087e+00		         0.51667	-9.00000e+00	
1.93672   	-1.79817e+00		         0.51833	-8.00000e+00	
1.94282   	-8.37931e-01		         0.52000	-6.00000e+00	
1.94893   	4.36784e-01		         0.52167	-4.00000e+00	
1.95530   	2.01876e+00		         0.52333	-3.00000e+00	
1.96141   	3.78281e+00		         0.52500	-1.00000e+00	
1.96752   	5.21712e+00		         0.52667	0.00000e+00	
1.97362   	5.94135e+00		         0.52833	2.00000e+00	
1.98000   	6.27923e+00		         0.53000	3.00000e+00	
1.98610   	6.34365e+00		         0.53167	4.00000e+00	
1.99220   	6.23817e+00		         0.53333	4.00000e+00	
1.99831   	6.21026e+00		         0.53500	4.00000e+00	
2.00469   	6.20828e+00		         0.53667	4.00000e+00	
2.01079   	6.11508e+00		         0.53833	4.00000e+00	
2.01690   	5.99695e+00		         0.54000	4.00000e+00	
2.02300   	5.89976e+00		         0.54167	3.00000e+00	
2.02938   	5.76065e+00		         0.54333	2.00000e+00	
2.03548   	5.63085e+00		         0.54500	2.00000e+00	
2.04158   	5.51365e+00		         0.54667	1.00000e+00	
2.04769   	5.38119e+00		         0.54833	1.00000e+00	
2.05407   	5.24711e+00		         0.55000	0.00000e+00	
2.06017   	5.10498e+00		         0.55167	0.00000e+00	
2.06628   	4.99323e+00		         0.55333	0.00000e+00	
2.07238   	4.91338e+00		         0.55500	0.00000e+00	
2.07876   	4.89329e+00		         0.55667	0.00000e+00	
2.08486   	4.81256e+00		         0.55833	1.00000e+00	
2.09096   	4.76043e+00		         0.56000	1.00000e+00	
2.09707   	4.74139e+00		         0.56167	2.00000e+00	
2.10344   	4.67596e+00		         0.56333	2.00000e+00	
2.10955   	4.57587e+00		         0.56500	2.00000e+00	
2.11566   	4.47690e+00		         0.56667	1.00000e+00	
2.12176   	4.40719e+00		         0.56833	1.00000e+00	
2.12814   	4.32484e+00		         0.57000	1.00000e+00	
2.13424   	4.25445e+00		         0.57167	0.00000e+00	
2.14034   	4.20544e+00		         0.57333	0.00000e+00	
2.14644   	4.14122e+00		         0.57500	-1.00000e+00	
2.15283   	4.02044e+00		         0.57667	-1.00000e+00	
2.15893   	3.91544e+00		         0.57833	-1.00000e+00	
2.16504   	3.77717e+00		         0.58000	-2.00000e+00	
2.17114   	3.64153e+00		         0.58167	-1.00000e+00	
2.17752   	3.54539e+00		         0.58333	-1.00000e+00	
2.18362   	3.41676e+00		         0.58500	-1.00000e+00	
2.18972   	3.25989e+00		         0.58667	0.00000e+00	
2.19583   	3.12236e+00		         0.58833	0.00000e+00	
2.20221   	2.99422e+00		         0.59000	1.00000e+00	
2.20831   	2.83021e+00		         0.59167	1.00000e+00	
2.21442   	2.68265e+00		         0.59333	1.00000e+00	
2.22052   	2.54965e+00		         0.59500	1.00000e+00	
2.22690   	2.40531e+00		         0.59667	0.00000e+00	
2.23300   	2.21305e+00		         0.59833	0.00000e+00	
2.23911   	1.99813e+00		         0.60000	-1.00000e+00	
2.24521   	1.72426e+00		         0.60167	-1.00000e+00	
2.25159   	1.34738e+00		         0.60333	-2.00000e+00	
2.25769   	8.07983e-01		         0.60500	-3.00000e+00	
2.26380   	5.25521e-02		         0.60667	-4.00000e+00	
2.26990   	-8.37569e-01		         0.60833	-5.00000e+00	
2.27628   	-1.58328e+00		         0.61000	-6.00000e+00	
2.28238   	-2.02373e+00		         0.61167	-6.00000e+00	
2.28849   	-2.20920e+00		         0.61333	-7.00000e+00	
2.29459   	-2.05242e+00		         0.61500	-7.00000e+00	
2.30097   	-1.70851e+00		         0.61667	-7.00000e+00	
2.30725   	-1.30784e+00		         0.61833	-7.00000e+00	
2.31318   	-1.02621e+00		         0.62000	-7.00000e+00	
2.31928   	-6.18920e-01		         0.62167	-7.00000e+00	
2.32566   	-2.71297e-01		         0.62333	-6.00000e+00	
2.33176   	1.68555e-01		         0.62500	-6.00000e+00	
2.33787   	4.99303e-01		         0.62667	-5.00000e+00	
2.34397   	7.58220e-01		         0.62833	-5.00000e+00	
2.35035   	8.22180e-01		         0.63000	-4.00000e+00	
2.35645   	6.57769e-01		         0.63167	-4.00000e+00	
2.36256   	3.31821e-01		         0.63333	-3.00000e+00	
2.36866   	3.50183e-02		         0.63500	-3.00000e+00	
2.37504   	-5.18800e-01		         0.63667	-2.00000e+00	
2.38114   	-1.41541e+00		         0.63833	-2.00000e+00	
2.38725   	-2.32389e+00		         0.64000	-2.00000e+00	
2.39335   	-3.37106e+00		         0.64167	-1.00000e+00	
2.39973   	-4.43651e+00		         0.64333	-1.00000e+00	
2.40583   	-5.26135e+00		         0.64500	-1.00000e+00	
2.41194   	-5.69891e+00		         0.64667	0.00000e+00	
2.41804   	-5.84993e+00		         0.64833	0.00000e+00	
2.42442   	-5.81480e+00		         0.65000	-1.00000e+00	
2.43052   	-5.73942e+00		         0.65167	-1.00000e+00	
2.43663   	-5.46682e+00		         0.65333	-1.00000e+00	
2.44273   	-5.21790e+00		         0.65500	-2.00000e+00	
2.44911   	-4.91859e+00		         0.65667	-2.00000e+00	
2.45521   	-4.57489e+00		         0.65833	-3.00000e+00	
2.46132   	-4.19787e+00		         0.66000	-3.00000e+00	
2.46742   	-3.96704e+00		         0.66167	-4.00000e+00	
2.47380   	-3.68541e+00		         0.66333	-4.00000e+00	
2.47990   	-3.45169e+00		         0.66500	-4.00000e+00	
2.48601   	-3.09062e+00		         0.66667	-4.00000e+00	
2.49211   	-2.72255e+00		         0.66833	-4.00000e+00	
2.49849   	-2.33589e+00		         0.67000	-3.00000e+00	
2.50459   	-1.94492e+00		         0.67167	-3.00000e+00	
2.51070   	-1.52010e+00		         0.67333	-2.00000e+00	
2.51680   	-1.19756e+00		         0.67500	-2.00000e+00	
2.52318   	-8.81123e-01		         0.67667	-2.00000e+00	
2.52929   	-5.81770e-01		         0.67833	-3.00000e+00	
2.53539   	-3.04703e-01		         0.68000	-3.00000e+00	
2.54149   	-1.46624e-01		         0.68167	-4.00000e+00	
2.54787   	-1.29654e-02		         0.68333	-5.00000e+00	
2.55397   	2.74983e-02		         0.68500	-6.00000e+00	
2.56008   	5.35455e-02		         0.68667	-7.00000e+00	
2.56618   	1.56342e-02		         0.68833	-8.00000e+00	
2.57256   	-4.74385e-02		         0.69000	-1.00000e+01	
2.57866   	-1.61048e-01		         0.69167	-1.10000e+01	
2.58477   	-2.52159e-01		         0.69333	-1.10000e+01	
2.59087   	-3.43838e-01		         0.69500	-1.20000e+01	
2.59725   	-3.79209e-01		         0.69667	-1.20000e+01	
2.60335   	-3.42123e-01		         0.69833	-1.20000e+01	
2.60946   	-2.25256e-01		         0.70000	-1.20000e+01	
2.61556   	-1.12824e-01		         0.70167	-1.20000e+01	
2.62214   	-4.58290e-03		         0.70333	-1.10000e+01	
2.62805   	6.24573e-02		         0.70500	-1.00000e+01	
2.63415   	1.01090e-01		         0.70667	-9.00000e+00	
2.64025   	1.02999e-01		         0.70833	-9.00000e+00	
2.64663   	1.09568e-01		         0.71000	-7.00000e+00	
2.65273   	1.01162e-01		         0.71167	-6.00000e+00	
2.65884   	1.08410e-01		         0.71333	-5.00000e+00	
2.66495   	1.11645e-01		         0.71500	-4.00000e+00	
2.67132   	1.52321e-01		         0.71667	-2.00000e+00	
2.67743   	2.32069e-01		         0.71833	-1.00000e+00	
2.68353   	3.12624e-01		         0.72000	0.00000e+00	
2.68963   	1.02880e-01		         0.72167	1.00000e+00	
2.69601   	-4.49176e-01		         0.72333	2.00000e+00	
2.70211   	-1.42310e+00		         0.72500	3.00000e+00	
2.70822   	-2.85308e+00		         0.72667	3.00000e+00	
2.71432   	-4.58309e+00		         0.72833	4.00000e+00	
2.72070   	-6.38578e+00		         0.73000	4.00000e+00	
2.72680   	-8.02235e+00		         0.73167	3.00000e+00	
2.73291   	-9.49260e+00		         0.73333	3.00000e+00	
2.73901   	-1.05599e+01		         0.73500	2.00000e+00	
2.74539   	-1.12089e+01		         0.73667	1.00000e+00	
2.75150   	-1.12794e+01		         0.73833	0.00000e+00	
2.75760   	-1.08397e+01		         0.74000	0.00000e+00	
2.76370   	-9.84258e+00		         0.74167	-2.00000e+00	
2.77008   	-8.57717e+00		         0.74333	-3.00000e+00	
2.77619   	-7.19380e+00		         0.74500	-4.00000e+00	
2.78229   	-5.95415e+00		         0.74667	-5.00000e+00	
2.78839   	-4.60830e+00		         0.74833	-5.00000e+00	
2.79477   	-3.21567e+00		         0.75000	-6.00000e+00	
2.80087   	-2.02470e+00		         0.75167	-6.00000e+00	
2.80698   	-8.18810e-01		         0.75333	-6.00000e+00	
2.81309   	3.92746e-01		         0.75500	-6.00000e+00	
2.81946   	9.59615e-01		         0.75667	-6.00000e+00	
2.82556   	1.26492e+00		         0.75833	-6.00000e+00	
			         0.76000	-6.00000e+00	
			         0.76167	-5.00000e+00	
			         0.76333	-5.00000e+00	
			         0.76500	-5.00000e+00	
			         0.76667	-4.00000e+00	
			         0.76833	-4.00000e+00	
			         0.77000	-3.00000e+00	
			         0.77167	-3.00000e+00	
			         0.77333	-3.00000e+00	
			         0.77500	-3.00000e+00	
			         0.77667	-2.00000e+00	
			         0.77833	-2.00000e+00	
			         0.78000	-2.00000e+00	
			         0.78167	-2.00000e+00	
			         0.78333	-1.00000e+00	
			         0.78500	0.00000e+00	
			         0.78667	0.00000e+00	
			         0.78833	1.00000e+00	
			         0.79000	2.00000e+00	
			         0.79167	2.00000e+00	
			         0.79333	3.00000e+00	
			         0.79500	5.00000e+00	
			         0.79667	6.00000e+00	
			         0.79833	8.00000e+00	
			         0.80000	1.00000e+01	
			         0.80167	1.20000e+01	
			         0.80333	1.40000e+01	
			         0.80500	1.70000e+01	
			         0.80667	2.00000e+01	
			         0.80833	2.30000e+01	
			         0.81000	2.70000e+01	
			         0.81167	3.10000e+01	
			         0.81333	3.60000e+01	
			         0.81500	4.00000e+01	
			         0.81667	4.50000e+01	
			         0.81833	5.00000e+01	
			         0.82000	5.40000e+01	
			         0.82167	5.80000e+01	
			         0.82333	6.20000e+01	
			         0.82500	6.50000e+01	
			         0.82667	6.70000e+01	
			         0.82833	6.80000e+01	
			         0.83000	6.90000e+01	
			         0.83167	6.90000e+01	
			         0.83333	6.80000e+01	
			         0.83500	6.60000e+01	
			         0.83667	6.40000e+01	
			         0.83833	6.20000e+01	
			         0.84000	5.90000e+01	
			         0.84167	5.60000e+01	
			         0.84333	5.30000e+01	
			         0.84500	5.00000e+01	
			         0.84667	4.70000e+01	
			         0.84833	4.50000e+01	
			         0.85000	4.20000e+01	
			         0.85167	4.00000e+01	
			         0.85333	3.70000e+01	
			         0.85500	3.30000e+01	
			         0.85667	2.90000e+01	
			         0.85833	2.50000e+01	
			         0.86000	2.10000e+01	
			         0.86167	1.60000e+01	
			         0.86333	1.20000e+01	
			         0.86500	7.00000e+00	
			         0.86667	1.00000e+00	
			         0.86833	-4.00000e+00	
			         0.87000	-9.00000e+00	
			         0.87167	-1.40000e+01	
			         0.87333	-1.90000e+01	
			         0.87500	-2.30000e+01	
			         0.87667	-2.70000e+01	
			         0.87833	-3.10000e+01	
			         0.88000	-3.40000e+01	
			         0.88167	-3.70000e+01	
			         0.88333	-4.00000e+01	
			         0.88500	-4.10000e+01	
			         0.88667	-4.30000e+01	
			         0.88833	-4.40000e+01	
			         0.89000	-4.50000e+01	
			         0.89167	-4.60000e+01	
			         0.89333	-4.70000e+01	
			         0.89500	-4.70000e+01	
			         0.89667	-4.70000e+01	
			         0.89833	-4.70000e+01	
			         0.90000	-4.70000e+01	
			         0.90167	-4.70000e+01	
			         0.90333	-4.70000e+01	
			         0.90500	-4.70000e+01	
			         0.90667	-4.70000e+01	
			         0.90833	-4.60000e+01	
			         0.91000	-4.60000e+01	
			         0.91167	-4.50000e+01	
			         0.91333	-4.40000e+01	
			         0.91500	-4.30000e+01	
			         0.91667	-4.20000e+01	
			         0.91833	-4.10000e+01	
			         0.92000	-4.00000e+01	
			         0.92167	-3.90000e+01	
			         0.92333	-3.70000e+01	
			         0.92500	-3.50000e+01	
			         0.92667	-3.40000e+01	
			         0.92833	-3.20000e+01	
			         0.93000	-3.00000e+01	
			         0.93167	-2.90000e+01	
			         0.93333	-2.80000e+01	
			         0.93500	-2.60000e+01	
			         0.93667	-2.50000e+01	
			         0.93833	-2.40000e+01	
			         0.94000	-2.40000e+01	
			         0.94167	-2.30000e+01	
			         0.94333	-2.20000e+01	
			         0.94500	-2.10000e+01	
			         0.94667	-2.00000e+01	
			         0.94833	-1.70000e+01	
			         0.95000	-1.30000e+01	
			         0.95167	-6.00000e+00	
			         0.95333	3.00000e+00	
			         0.95500	1.50000e+01	
			         0.95667	3.00000e+01	
			         0.95833	4.80000e+01	
			         0.96000	6.70000e+01	
			         0.96167	8.80000e+01	
			         0.96333	1.10000e+02	
			         0.96500	1.31000e+02	
			         0.96667	1.50000e+02	
			         0.96833	1.66000e+02	
			         0.97000	1.78000e+02	
			         0.97167	1.85000e+02	
			         0.97333	1.87000e+02	
			         0.97500	1.83000e+02	
			         0.97667	1.75000e+02	
			         0.97833	1.61000e+02	
			         0.98000	1.43000e+02	
			         0.98167	1.21000e+02	
			         0.98333	9.70000e+01	
			         0.98500	7.20000e+01	
			         0.98667	4.70000e+01	
			         0.98833	2.40000e+01	
			         0.99000	3.00000e+00	
			         0.99167	-1.50000e+01	
			         0.99333	-3.00000e+01	
			         0.99500	-4.20000e+01	
			         0.99667	-5.10000e+01	
			         0.99833	-5.70000e+01	
			         1.00000	-6.00000e+01	
			         1.00167	-6.00000e+01	
			         1.00333	-5.90000e+01	
			         1.00500	-5.70000e+01	
			         1.00667	-5.50000e+01	
			         1.00833	-5.20000e+01	
			         1.01000	-5.00000e+01	
			         1.01167	-4.70000e+01	
			         1.01333	-4.60000e+01	
			         1.01500	-4.50000e+01	
			         1.01667	-4.40000e+01	
			         1.01833	-4.40000e+01	
			         1.02000	-4.40000e+01	
			         1.02167	-4.50000e+01	
			         1.02333	-4.60000e+01	
			         1.02500	-4.60000e+01	
			         1.02667	-4.60000e+01	
			         1.02833	-4.70000e+01	
			         1.03000	-4.60000e+01	
			         1.03167	-4.60000e+01	
			         1.03333	-4.50000e+01	
			         1.03500	-4.40000e+01	
			         1.03667	-4.30000e+01	
			         1.03833	-4.10000e+01	
			         1.04000	-4.00000e+01	
			         1.04167	-3.80000e+01	
			         1.04333	-3.70000e+01	
			         1.04500	-3.60000e+01	
			         1.04667	-3.50000e+01	
			         1.04833	-3.40000e+01	
			         1.05000	-3.20000e+01	
			         1.05167	-3.10000e+01	
			         1.05333	-3.00000e+01	
			         1.05500	-2.80000e+01	
			         1.05667	-2.70000e+01	
			         1.05833	-2.60000e+01	
			         1.06000	-2.40000e+01	
			         1.06167	-2.30000e+01	
			         1.06333	-2.10000e+01	
			         1.06500	-2.00000e+01	
			         1.06667	-1.80000e+01	
			         1.06833	-1.70000e+01	
			         1.07000	-1.60000e+01	
			         1.07167	-1.50000e+01	
			         1.07333	-1.40000e+01	
			         1.07500	-1.30000e+01	
			         1.07667	-1.30000e+01	
			         1.07833	-1.20000e+01	
			         1.08000	-1.10000e+01	
			         1.08167	-1.00000e+01	
			         1.08333	-9.00000e+00	
			         1.08500	-8.00000e+00	
			         1.08667	-7.00000e+00	
			         1.08833	-6.00000e+00	
			         1.09000	-5.00000e+00	
			         1.09167	-4.00000e+00	
			         1.09333	-3.00000e+00	
			         1.09500	-2.00000e+00	
			         1.09667	-2.00000e+00	
			         1.09833	-1.00000e+00	
			         1.10000	-1.00000e+00	
			         1.10167	0.00000e+00	
			         1.10333	0.00000e+00	
			         1.10500	0.00000e+00	
			         1.10667	0.00000e+00	
			         1.10833	0.00000e+00	
			         1.11000	0.00000e+00	
			         1.11167	0.00000e+00	
			         1.11333	1.00000e+00	
			         1.11500	1.00000e+00	
			         1.11667	1.00000e+00	
			         1.11833	2.00000e+00	
			         1.12000	2.00000e+00	
			         1.12167	2.00000e+00	
			         1.12333	3.00000e+00	
			         1.12500	3.00000e+00	
			         1.12667	4.00000e+00	
			         1.12833	5.00000e+00	
			         1.13000	5.00000e+00	
			         1.13167	6.00000e+00	
			         1.13333	7.00000e+00	
			         1.13500	7.00000e+00	
			         1.13667	8.00000e+00	
			         1.13833	9.00000e+00	
			         1.14000	1.00000e+01	
			         1.14167	1.10000e+01	
			         1.14333	1.20000e+01	
			         1.14500	1.30000e+01	
			         1.14667	1.40000e+01	
			         1.14833	1.40000e+01	
			         1.15000	1.50000e+01	
			         1.15167	1.50000e+01	
			         1.15333	1.50000e+01	
			         1.15500	1.60000e+01	
			         1.15667	1.60000e+01	
			         1.15833	1.60000e+01	
			         1.16000	1.70000e+01	
			         1.16167	1.70000e+01	
			         1.16333	1.70000e+01	
			         1.16500	1.80000e+01	
			         1.16667	1.80000e+01	
			         1.16833	1.90000e+01	
			         1.17000	2.00000e+01	
			         1.17167	2.10000e+01	
			         1.17333	2.10000e+01	
			         1.17500	2.20000e+01	
			         1.17667	2.30000e+01	
			         1.17833	2.40000e+01	
			         1.18000	2.50000e+01	
			         1.18167	2.60000e+01	
			         1.18333	2.70000e+01	
			         1.18500	2.80000e+01	
			         1.18667	2.80000e+01	
			         1.18833	2.90000e+01	
			         1.19000	3.00000e+01	
			         1.19167	3.10000e+01	
			         1.19333	3.10000e+01	
			         1.19500	3.10000e+01	
			         1.19667	3.20000e+01	
			         1.19833	3.20000e+01	
			         1.20000	3.20000e+01	
			         1.20167	3.20000e+01	
			         1.20333	3.30000e+01	
			         1.20500	3.30000e+01	
			         1.20667	3.30000e+01	
			         1.20833	3.40000e+01	
			         1.21000	3.50000e+01	
			         1.21167	3.60000e+01	
			         1.21333	3.70000e+01	
			         1.21500	3.80000e+01	
			         1.21667	4.00000e+01	
			         1.21833	4.10000e+01	
			         1.22000	4.30000e+01	
			         1.22167	4.50000e+01	
			         1.22333	4.60000e+01	
			         1.22500	4.80000e+01	
			         1.22667	5.00000e+01	
			         1.22833	5.10000e+01	
			         1.23000	5.30000e+01	
			         1.23167	5.40000e+01	
			         1.23333	5.50000e+01	
			         1.23500	5.60000e+01	
			         1.23667	5.60000e+01	
			         1.23833	5.60000e+01	
			         1.24000	5.60000e+01	
			         1.24167	5.50000e+01	
			         1.24333	5.30000e+01	
			         1.24500	5.00000e+01	
			         1.24667	4.80000e+01	
			         1.24833	4.40000e+01	
			         1.25000	4.10000e+01	
			         1.25167	3.70000e+01	
			         1.25333	3.40000e+01	
			         1.25500	3.00000e+01	
			         1.25667	2.70000e+01	
			         1.25833	2.40000e+01	
			         1.26000	2.20000e+01	
			         1.26167	1.90000e+01	
			         1.26333	1.80000e+01	
			         1.26500	1.60000e+01	
			         1.26667	1.50000e+01	
			         1.26833	1.30000e+01	
			         1.27000	1.10000e+01	
			         1.27167	9.00000e+00	
			         1.27333	7.00000e+00	
			         1.27500	4.00000e+00	
			         1.27667	1.00000e+00	
			         1.27833	-3.00000e+00	
			         1.28000	-6.00000e+00	
			         1.28167	-1.00000e+01	
			         1.28333	-1.40000e+01	
			         1.28500	-1.80000e+01	
			         1.28667	-2.20000e+01	
			         1.28833	-2.60000e+01	
			         1.29000	-3.00000e+01	
			         1.29167	-3.30000e+01	
			         1.29333	-3.60000e+01	
			         1.29500	-3.90000e+01	
			         1.29667	-4.10000e+01	
			         1.29833	-4.30000e+01	
			         1.30000	-4.50000e+01	
			         1.30167	-4.70000e+01	
			         1.30333	-4.90000e+01	
			         1.30500	-5.10000e+01	
			         1.30667	-5.20000e+01	
			         1.30833	-5.30000e+01	
			         1.31000	-5.40000e+01	
			         1.31167	-5.40000e+01	
			         1.31333	-5.50000e+01	
			         1.31500	-5.50000e+01	
			         1.31667	-5.50000e+01	
			         1.31833	-5.60000e+01	
			         1.32000	-5.50000e+01	
			         1.32167	-5.50000e+01	
			         1.32333	-5.40000e+01	
			         1.32500	-5.30000e+01	
			         1.32667	-5.20000e+01	
			         1.32833	-5.00000e+01	
			         1.33000	-4.90000e+01	
			         1.33167	-4.70000e+01	
			         1.33333	-4.50000e+01	
			         1.33500	-4.30000e+01	
			         1.33667	-4.10000e+01	
			         1.33833	-3.90000e+01	
			         1.34000	-3.70000e+01	
			         1.34167	-3.60000e+01	
			         1.34333	-3.60000e+01	
			         1.34500	-3.60000e+01	
			         1.34667	-3.70000e+01	
			         1.34833	-3.70000e+01	
			         1.35000	-3.80000e+01	
			         1.35167	-4.00000e+01	
			         1.35333	-4.20000e+01	
			         1.35500	-4.30000e+01	
			         1.35667	-4.50000e+01	
			         1.35833	-4.60000e+01	
			         1.36000	-4.80000e+01	
			         1.36167	-4.80000e+01	
			         1.36333	-4.90000e+01	
			         1.36500	-4.80000e+01	
			         1.36667	-4.80000e+01	
			         1.36833	-4.70000e+01	
			         1.37000	-4.60000e+01	
			         1.37167	-4.40000e+01	
			         1.37333	-4.20000e+01	
			         1.37500	-4.00000e+01	
			         1.37667	-3.80000e+01	
			         1.37833	-3.60000e+01	
			         1.38000	-3.40000e+01	
			         1.38167	-3.20000e+01	
			         1.38333	-3.00000e+01	
			         1.38500	-2.90000e+01	
			         1.38667	-2.80000e+01	
			         1.38833	-2.70000e+01	
			         1.39000	-2.60000e+01	
			         1.39167	-2.60000e+01	
			         1.39333	-2.50000e+01	
			         1.39500	-2.50000e+01	
			         1.39667	-2.50000e+01	
			         1.39833	-2.40000e+01	
			         1.40000	-2.40000e+01	
			         1.40167	-2.30000e+01	
			         1.40333	-2.30000e+01	
			         1.40500	-2.20000e+01	
			         1.40667	-2.10000e+01	
			         1.40833	-2.00000e+01	
			         1.41000	-1.90000e+01	
			         1.41167	-1.80000e+01	
			         1.41333	-1.70000e+01	
			         1.41500	-1.70000e+01	
			         1.41667	-1.60000e+01	
			         1.41833	-1.50000e+01	
			         1.42000	-1.30000e+01	
			         1.42167	-1.20000e+01	
			         1.42333	-1.10000e+01	
			         1.42500	-1.00000e+01	
			         1.42667	-9.00000e+00	
			         1.42833	-8.00000e+00	
			         1.43000	-7.00000e+00	
			         1.43167	-6.00000e+00	
			         1.43333	-5.00000e+00	
			         1.43500	-4.00000e+00	
			         1.43667	-4.00000e+00	
			         1.43833	-4.00000e+00	
			         1.44000	-4.00000e+00	
			         1.44167	-5.00000e+00	
			         1.44333	-5.00000e+00	
			         1.44500	-6.00000e+00	
			         1.44667	-6.00000e+00	
			         1.44833	-7.00000e+00	
			         1.45000	-7.00000e+00	
			         1.45167	-8.00000e+00	
			         1.45333	-9.00000e+00	
			         1.45500	-9.00000e+00	
			         1.45667	-9.00000e+00	
			         1.45833	-9.00000e+00	
			         1.46000	-9.00000e+00	
			         1.46167	-8.00000e+00	
			         1.46333	-8.00000e+00	
			         1.46500	-8.00000e+00	
			         1.46667	-9.00000e+00	
			         1.46833	-9.00000e+00	
			         1.47000	-1.00000e+01	
			         1.47167	-1.00000e+01	
			         1.47333	-1.10000e+01	
			         1.47500	-1.00000e+01	
			         1.47667	-1.00000e+01	
			         1.47833	-1.00000e+01	
			         1.48000	-9.00000e+00	
			         1.48167	-9.00000e+00	
			         1.48333	-8.00000e+00	
			         1.48500	-7.00000e+00	
			         1.48667	-6.00000e+00	
			         1.48833	-5.00000e+00	
			         1.49000	-4.00000e+00	
			         1.49167	-3.00000e+00	
			         1.49333	-3.00000e+00	
			         1.49500	-2.00000e+00	
			         1.49667	-2.00000e+00	
			         1.49833	-2.00000e+00	
			         1.50000	-2.00000e+00	
			         1.50167	-2.00000e+00	
			         1.50333	-2.00000e+00	
			         1.50500	-2.00000e+00	
			         1.50667	-3.00000e+00	
			         1.50833	-3.00000e+00	
			         1.51000	-4.00000e+00	
			         1.51167	-4.00000e+00	
			         1.51333	-5.00000e+00	
			         1.51500	-5.00000e+00	
			         1.51667	-6.00000e+00	
			         1.51833	-7.00000e+00	
			         1.52000	-7.00000e+00	
			         1.52167	-8.00000e+00	
			         1.52333	-8.00000e+00	
			         1.52500	-7.00000e+00	
			         1.52667	-7.00000e+00	
			         1.52833	-6.00000e+00	
			         1.53000	-6.00000e+00	
			         1.53167	-5.00000e+00	
			         1.53333	-4.00000e+00	
			         1.53500	-4.00000e+00	
			         1.53667	-4.00000e+00	
			         1.53833	-5.00000e+00	
			         1.54000	-5.00000e+00	
			         1.54167	-6.00000e+00	
			         1.54333	-6.00000e+00	
			         1.54500	-7.00000e+00	
			         1.54667	-8.00000e+00	
			         1.54833	-9.00000e+00	
			         1.55000	-1.00000e+01	
			         1.55167	-1.00000e+01	
			         1.55333	-1.10000e+01	
			         1.55500	-1.10000e+01	
			         1.55667	-1.00000e+01	
			         1.55833	-1.00000e+01	
			         1.56000	-9.00000e+00	
			         1.56167	-8.00000e+00	
			         1.56333	-7.00000e+00	
			         1.56500	-7.00000e+00	
			         1.56667	-7.00000e+00	
			         1.56833	-6.00000e+00	
			         1.57000	-7.00000e+00	
			         1.57167	-7.00000e+00	
			         1.57333	-8.00000e+00	
			         1.57500	-9.00000e+00	
			         1.57667	-9.00000e+00	
			         1.57833	-1.00000e+01	
			         1.58000	-1.10000e+01	
			         1.58167	-1.20000e+01	
			         1.58333	-1.30000e+01	
			         1.58500	-1.40000e+01	
			         1.58667	-1.40000e+01	
			         1.58833	-1.50000e+01	
			         1.59000	-1.60000e+01	
			         1.59167	-1.60000e+01	
			         1.59333	-1.70000e+01	
			         1.59500	-1.70000e+01	
			         1.59667	-1.70000e+01	
			         1.59833	-1.70000e+01	
			         1.60000	-1.70000e+01	
			         1.60167	-1.70000e+01	
			         1.60333	-1.60000e+01	
			         1.60500	-1.50000e+01	
			         1.60667	-1.40000e+01	
			         1.60833	-1.20000e+01	
			         1.61000	-1.00000e+01	
			         1.61167	-9.00000e+00	
			         1.61333	-7.00000e+00	
			         1.61500	-6.00000e+00	
			         1.61667	-4.00000e+00	
			         1.61833	-4.00000e+00	
			         1.62000	-3.00000e+00	
			         1.62167	-3.00000e+00	
			         1.62333	-4.00000e+00	
			         1.62500	-4.00000e+00	
			         1.62667	-5.00000e+00	
			         1.62833	-7.00000e+00	
			         1.63000	-8.00000e+00	
			         1.63167	-1.00000e+01	
			         1.63333	-1.20000e+01	
			         1.63500	-1.30000e+01	
			         1.63667	-1.40000e+01	
			         1.63833	-1.50000e+01	
			         1.64000	-1.60000e+01	
			         1.64167	-1.60000e+01	
			         1.64333	-1.60000e+01	
			         1.64500	-1.60000e+01	
			         1.64667	-1.50000e+01	
			         1.64833	-1.50000e+01	
			         1.65000	-1.30000e+01	
			         1.65167	-1.20000e+01	
			         1.65333	-1.10000e+01	
			         1.65500	-9.00000e+00	
			         1.65667	-8.00000e+00	
			         1.65833	-6.00000e+00	
			         1.66000	-5.00000e+00	
			         1.66167	-4.00000e+00	
			         1.66333	-4.00000e+00	
			         1.66500	-3.00000e+00	
			         1.66667	-3.00000e+00	
			         1.66833	-3.00000e+00	
			         1.67000	-4.00000e+00	
			         1.67167	-4.00000e+00	
			         1.67333	-5.00000e+00	
			         1.67500	-6.00000e+00	
			         1.67667	-7.00000e+00	
			         1.67833	-9.00000e+00	
			         1.68000	-1.00000e+01	
			         1.68167	-1.10000e+01	
			         1.68333	-1.10000e+01	
			         1.68500	-1.10000e+01	
			         1.68667	-1.10000e+01	
			         1.68833	-1.10000e+01	
			         1.69000	-1.00000e+01	
			         1.69167	-9.00000e+00	
			         1.69333	-8.00000e+00	
			         1.69500	-6.00000e+00	
			         1.69667	-5.00000e+00	
			         1.69833	-4.00000e+00	
			         1.70000	-2.00000e+00	
			         1.70167	-1.00000e+00	
			         1.70333	0.00000e+00	
			         1.70500	1.00000e+00	
			         1.70667	2.00000e+00	
			         1.70833	3.00000e+00	
			         1.71000	4.00000e+00	
			         1.71167	5.00000e+00	
			         1.71333	6.00000e+00	
			         1.71500	7.00000e+00	
			         1.71667	9.00000e+00	
			         1.71833	1.00000e+01	
			         1.72000	1.20000e+01	
			         1.72167	1.30000e+01	
			         1.72333	1.50000e+01	
			         1.72500	1.70000e+01	
			         1.72667	2.00000e+01	
			         1.72833	2.20000e+01	
			         1.73000	2.40000e+01	
			         1.73167	2.70000e+01	
			         1.73333	3.00000e+01	
			         1.73500	3.30000e+01	
			         1.73667	3.60000e+01	
			         1.73833	3.90000e+01	
			         1.74000	4.30000e+01	
			         1.74167	4.60000e+01	
			         1.74333	4.90000e+01	
			         1.74500	5.20000e+01	
			         1.74667	5.40000e+01	
			         1.74833	5.60000e+01	
			         1.75000	5.80000e+01	
			         1.75167	5.90000e+01	
			         1.75333	5.90000e+01	
			         1.75500	5.90000e+01	
			         1.75667	5.80000e+01	
			         1.75833	5.70000e+01	
			         1.76000	5.60000e+01	
			         1.76167	5.40000e+01	
			         1.76333	5.20000e+01	
			         1.76500	5.00000e+01	
			         1.76667	4.70000e+01	
			         1.76833	4.40000e+01	
			         1.77000	4.00000e+01	
			         1.77167	3.60000e+01	
			         1.77333	3.20000e+01	
			         1.77500	2.80000e+01	
			         1.77667	2.30000e+01	
			         1.77833	1.90000e+01	
			         1.78000	1.40000e+01	
			         1.78167	9.00000e+00	
			         1.78333	4.00000e+00	
			         1.78500	-2.00000e+00	
			         1.78667	-7.00000e+00	
			         1.78833	-1.20000e+01	
			         1.79000	-1.70000e+01	
			         1.79167	-2.10000e+01	
			         1.79333	-2.50000e+01	
			         1.79500	-2.90000e+01	
			         1.79667	-3.20000e+01	
			         1.79833	-3.50000e+01	
			         1.80000	-3.70000e+01	
			         1.80167	-4.00000e+01	
			         1.80333	-4.10000e+01	
			         1.80500	-4.30000e+01	
			         1.80667	-4.40000e+01	
			         1.80833	-4.50000e+01	
			         1.81000	-4.60000e+01	
			         1.81167	-4.70000e+01	
			         1.81333	-4.80000e+01	
			         1.81500	-4.90000e+01	
			         1.81667	-5.00000e+01	
			         1.81833	-5.00000e+01	
			         1.82000	-5.10000e+01	
			         1.82167	-5.10000e+01	
			         1.82333	-5.10000e+01	
			         1.82500	-5.10000e+01	
			         1.82667	-5.10000e+01	
			         1.82833	-5.00000e+01	
			         1.83000	-5.00000e+01	
			         1.83167	-4.80000e+01	
			         1.83333	-4.70000e+01	
			         1.83500	-4.60000e+01	
			         1.83667	-4.50000e+01	
			         1.83833	-4.40000e+01	
			         1.84000	-4.20000e+01	
			         1.84167	-4.10000e+01	
			         1.84333	-4.00000e+01	
			         1.84500	-3.80000e+01	
			         1.84667	-3.70000e+01	
			         1.84833	-3.60000e+01	
			         1.85000	-3.50000e+01	
			         1.85167	-3.40000e+01	
			         1.85333	-3.30000e+01	
			         1.85500	-3.20000e+01	
			         1.85667	-3.10000e+01	
			         1.85833	-2.90000e+01	
			         1.86000	-2.70000e+01	
			         1.86167	-2.50000e+01	
			         1.86333	-2.20000e+01	
			         1.86500	-1.80000e+01	
			         1.86667	-1.30000e+01	
			         1.86833	-6.00000e+00	
			         1.87000	4.00000e+00	
			         1.87167	1.60000e+01	
			         1.87333	3.10000e+01	
			         1.87500	4.90000e+01	
			         1.87667	6.80000e+01	
			         1.87833	8.80000e+01	
			         1.88000	1.09000e+02	
			         1.88167	1.28000e+02	
			         1.88333	1.46000e+02	
			         1.88500	1.60000e+02	
			         1.88667	1.71000e+02	
			         1.88833	1.77000e+02	
			         1.89000	1.78000e+02	
			         1.89167	1.73000e+02	
			         1.89333	1.63000e+02	
			         1.89500	1.49000e+02	
			         1.89667	1.30000e+02	
			         1.89833	1.08000e+02	
			         1.90000	8.40000e+01	
			         1.90167	5.90000e+01	
			         1.90333	3.40000e+01	
			         1.90500	1.20000e+01	
			         1.90667	-9.00000e+00	
			         1.90833	-2.60000e+01	
			         1.91000	-4.00000e+01	
			         1.91167	-5.10000e+01	
			         1.91333	-6.00000e+01	
			         1.91500	-6.50000e+01	
			         1.91667	-6.90000e+01	
			         1.91833	-6.90000e+01	
			         1.92000	-6.90000e+01	
			         1.92167	-6.70000e+01	
			         1.92333	-6.40000e+01	
			         1.92500	-6.10000e+01	
			         1.92667	-5.70000e+01	
			         1.92833	-5.50000e+01	
			         1.93000	-5.20000e+01	
			         1.93167	-5.00000e+01	
			         1.93333	-4.80000e+01	
			         1.93500	-4.70000e+01	
			         1.93667	-4.60000e+01	
			         1.93833	-4.50000e+01	
			         1.94000	-4.40000e+01	
			         1.94167	-4.30000e+01	
			         1.94333	-4.20000e+01	
			         1.94500	-4.20000e+01	
			         1.94667	-4.20000e+01	
			         1.94833	-4.20000e+01	
			         1.95000	-4.10000e+01	
			         1.95167	-4.10000e+01	
			         1.95333	-4.10000e+01	
			         1.95500	-4.10000e+01	
			         1.95667	-4.10000e+01	
			         1.95833	-4.10000e+01	
			         1.96000	-4.10000e+01	
			         1.96167	-4.10000e+01	
			         1.96333	-4.00000e+01	
			         1.96500	-4.00000e+01	
			         1.96667	-4.00000e+01	
			         1.96833	-3.90000e+01	
			         1.97000	-3.80000e+01	
			         1.97167	-3.80000e+01	
			         1.97333	-3.70000e+01	
			         1.97500	-3.60000e+01	
			         1.97667	-3.50000e+01	
			         1.97833	-3.40000e+01	
			         1.98000	-3.30000e+01	
			         1.98167	-3.30000e+01	
			         1.98333	-3.20000e+01	
			         1.98500	-3.10000e+01	
			         1.98667	-3.10000e+01	
			         1.98833	-3.00000e+01	
			         1.99000	-2.90000e+01	
			         1.99167	-2.80000e+01	
			         1.99333	-2.60000e+01	
			         1.99500	-2.50000e+01	
			         1.99667	-2.30000e+01	
			         1.99833	-2.10000e+01	
			         2.00000	-1.90000e+01	
			         2.00167	-1.80000e+01	
			         2.00333	-1.60000e+01	
			         2.00500	-1.40000e+01	
			         2.00667	-1.20000e+01	
			         2.00833	-1.00000e+01	
			         2.01000	-9.00000e+00	
			         2.01167	-8.00000e+00	
			         2.01333	-7.00000e+00	
			         2.01500	-6.00000e+00	
			         2.01667	-6.00000e+00	
			         2.01833	-5.00000e+00	
			         2.02000	-5.00000e+00	
			         2.02167	-4.00000e+00	
			         2.02333	-4.00000e+00	
			         2.02500	-4.00000e+00	
			         2.02667	-3.00000e+00	
			         2.02833	-2.00000e+00	
			         2.03000	-1.00000e+00	
			         2.03167	0.00000e+00	
			         2.03333	2.00000e+00	
			         2.03500	3.00000e+00	
			         2.03667	4.00000e+00	
			         2.03833	4.00000e+00	
			         2.04000	5.00000e+00	
			         2.04167	5.00000e+00	
			         2.04333	5.00000e+00	
			         2.04500	5.00000e+00	
			         2.04667	5.00000e+00	
			         2.04833	4.00000e+00	
			         2.05000	4.00000e+00	
			         2.05167	3.00000e+00	
			         2.05333	2.00000e+00	
			         2.05500	1.00000e+00	
			         2.05667	0.00000e+00	
			         2.05833	0.00000e+00	
			         2.06000	-1.00000e+00	
			         2.06167	-1.00000e+00	
			         2.06333	-1.00000e+00	
			         2.06500	-1.00000e+00	
			         2.06667	-1.00000e+00	
			         2.06833	-1.00000e+00	
			         2.07000	0.00000e+00	
			         2.07167	1.00000e+00	
			         2.07333	2.00000e+00	
			         2.07500	3.00000e+00	
			         2.07667	5.00000e+00	
			         2.07833	6.00000e+00	
			         2.08000	8.00000e+00	
			         2.08167	1.00000e+01	
			         2.08333	1.20000e+01	
			         2.08500	1.40000e+01	
			         2.08667	1.60000e+01	
			         2.08833	1.80000e+01	
			         2.09000	2.00000e+01	
			         2.09167	2.20000e+01	
			         2.09333	2.40000e+01	
			         2.09500	2.60000e+01	
			         2.09667	2.70000e+01	
			         2.09833	2.90000e+01	
			         2.10000	3.10000e+01	
			         2.10167	3.30000e+01	
			         2.10333	3.60000e+01	
			         2.10500	3.80000e+01	
			         2.10667	4.00000e+01	
			         2.10833	4.20000e+01	
			         2.11000	4.40000e+01	
			         2.11167	4.60000e+01	
			         2.11333	4.80000e+01	
			         2.11500	5.00000e+01	
			         2.11667	5.20000e+01	
			         2.11833	5.40000e+01	
			         2.12000	5.50000e+01	
			         2.12167	5.60000e+01	
			         2.12333	5.70000e+01	
			         2.12500	5.80000e+01	
			         2.12667	5.80000e+01	
			         2.12833	5.90000e+01	
			         2.13000	5.90000e+01	
			         2.13167	5.80000e+01	
			         2.13333	5.80000e+01	
			         2.13500	5.80000e+01	
			         2.13667	5.70000e+01	
			         2.13833	5.70000e+01	
			         2.14000	5.60000e+01	
			         2.14167	5.50000e+01	
			         2.14333	5.40000e+01	
			         2.14500	5.40000e+01	
			         2.14667	5.30000e+01	
			         2.14833	5.20000e+01	
			         2.15000	5.10000e+01	
			         2.15167	5.10000e+01	
			         2.15333	5.00000e+01	
			         2.15500	4.90000e+01	
			         2.15667	4.90000e+01	
			         2.15833	4.80000e+01	
			         2.16000	4.70000e+01	
			         2.16167	4.70000e+01	
			         2.16333	4.60000e+01	
			         2.16500	4.40000e+01	
			         2.16667	4.30000e+01	
			         2.16833	4.10000e+01	
			         2.17000	3.90000e+01	
			         2.17167	3.70000e+01	
			         2.17333	3.50000e+01	
			         2.17500	3.30000e+01	
			         2.17667	3.00000e+01	
			         2.17833	2.80000e+01	
			         2.18000	2.50000e+01	
			         2.18167	2.20000e+01	
			         2.18333	2.00000e+01	
			         2.18500	1.70000e+01	
			         2.18667	1.40000e+01	
			         2.18833	1.10000e+01	
			         2.19000	8.00000e+00	
			         2.19167	5.00000e+00	
			         2.19333	2.00000e+00	
			         2.19500	-1.00000e+00	
			         2.19667	-4.00000e+00	
			         2.19833	-7.00000e+00	
			         2.20000	-1.10000e+01	
			         2.20167	-1.40000e+01	
			         2.20333	-1.70000e+01	
			         2.20500	-1.90000e+01	
			         2.20667	-2.20000e+01	
			         2.20833	-2.40000e+01	
			         2.21000	-2.60000e+01	
			         2.21167	-2.90000e+01	
			         2.21333	-3.10000e+01	
			         2.21500	-3.40000e+01	
			         2.21667	-3.60000e+01	
			         2.21833	-3.90000e+01	
			         2.22000	-4.10000e+01	
			         2.22167	-4.30000e+01	
			         2.22333	-4.60000e+01	
			         2.22500	-4.70000e+01	
			         2.22667	-4.90000e+01	
			         2.22833	-5.10000e+01	
			         2.23000	-5.20000e+01	
			         2.23167	-5.20000e+01	
			         2.23333	-5.30000e+01	
			         2.23500	-5.30000e+01	
			         2.23667	-5.30000e+01	
			         2.23833	-5.30000e+01	
			         2.24000	-5.20000e+01	
			         2.24167	-5.20000e+01	
			         2.24333	-5.10000e+01	
			         2.24500	-5.00000e+01	
			         2.24667	-5.00000e+01	
			         2.24833	-5.00000e+01	
			         2.25000	-5.00000e+01	
			         2.25167	-4.90000e+01	
			         2.25333	-4.90000e+01	
			         2.25500	-4.90000e+01	
			         2.25667	-4.80000e+01	
			         2.25833	-4.80000e+01	
			         2.26000	-4.70000e+01	
			         2.26167	-4.70000e+01	
			         2.26333	-4.60000e+01	
			         2.26500	-4.50000e+01	
			         2.26667	-4.50000e+01	
			         2.26833	-4.40000e+01	
			         2.27000	-4.30000e+01	
			         2.27167	-4.20000e+01	
			         2.27333	-4.10000e+01	
			         2.27500	-4.00000e+01	
			         2.27667	-3.90000e+01	
			         2.27833	-3.80000e+01	
			         2.28000	-3.70000e+01	
			         2.28167	-3.70000e+01	
			         2.28333	-3.60000e+01	
			         2.28500	-3.60000e+01	
			         2.28667	-3.50000e+01	
			         2.28833	-3.50000e+01	
			         2.29000	-3.40000e+01	
			         2.29167	-3.40000e+01	
			         2.29333	-3.40000e+01	
			         2.29500	-3.30000e+01	
			         2.29667	-3.30000e+01	
			         2.29833	-3.20000e+01	
			         2.30000	-3.20000e+01	
			         2.30167	-3.00000e+01	
			         2.30333	-2.90000e+01	
			         2.30500	-2.70000e+01	
			         2.30667	-2.50000e+01	
			         2.30833	-2.30000e+01	
			         2.31000	-2.00000e+01	
			         2.31167	-1.80000e+01	
			         2.31333	-1.50000e+01	
			         2.31500	-1.30000e+01	
			         2.31667	-1.00000e+01	
			         2.31833	-8.00000e+00	
			         2.32000	-6.00000e+00	
			         2.32167	-5.00000e+00	
			         2.32333	-4.00000e+00	
			         2.32500	-4.00000e+00	
			         2.32667	-4.00000e+00	
			         2.32833	-5.00000e+00	
			         2.33000	-6.00000e+00	
			         2.33167	-7.00000e+00	
			         2.33333	-9.00000e+00	
			         2.33500	-1.00000e+01	
			         2.33667	-1.10000e+01	
			         2.33833	-1.20000e+01	
			         2.34000	-1.30000e+01	
			         2.34167	-1.30000e+01	
			         2.34333	-1.30000e+01	
			         2.34500	-1.30000e+01	
			         2.34667	-1.20000e+01	
			         2.34833	-1.00000e+01	
			         2.35000	-9.00000e+00	
			         2.35167	-8.00000e+00	
			         2.35333	-7.00000e+00	
			         2.35500	-6.00000e+00	
			         2.35667	-5.00000e+00	
			         2.35833	-4.00000e+00	
			         2.36000	-4.00000e+00	
			         2.36167	-4.00000e+00	
			         2.36333	-4.00000e+00	
			         2.36500	-5.00000e+00	
			         2.36667	-5.00000e+00	
			         2.36833	-6.00000e+00	
			         2.37000	-7.00000e+00	
			         2.37167	-7.00000e+00	
			         2.37333	-8.00000e+00	
			         2.37500	-8.00000e+00	
			         2.37667	-8.00000e+00	
			         2.37833	-8.00000e+00	
			         2.38000	-7.00000e+00	
			         2.38167	-6.00000e+00	
			         2.38333	-4.00000e+00	
			         2.38500	-3.00000e+00	
			         2.38667	-1.00000e+00	
			         2.38833	0.00000e+00	
			         2.39000	2.00000e+00	
			         2.39167	4.00000e+00	
			         2.39333	6.00000e+00	
			         2.39500	8.00000e+00	
			         2.39667	9.00000e+00	
			         2.39833	1.10000e+01	
			         2.40000	1.20000e+01	
			         2.40167	1.20000e+01	
			         2.40333	1.30000e+01	
			         2.40500	1.30000e+01	
			         2.40667	1.40000e+01	
			         2.40833	1.40000e+01	
			         2.41000	1.30000e+01	
			         2.41167	1.30000e+01	
			         2.41333	1.10000e+01	
			         2.41500	1.00000e+01	
			         2.41667	8.00000e+00	
			         2.41833	6.00000e+00	
			         2.42000	4.00000e+00	
			         2.42167	2.00000e+00	
			         2.42333	0.00000e+00	
			         2.42500	-2.00000e+00	
			         2.42667	-4.00000e+00	
			         2.42833	-5.00000e+00	
			         2.43000	-7.00000e+00	
			         2.43167	-7.00000e+00	
			         2.43333	-8.00000e+00	
			         2.43500	-8.00000e+00	
			         2.43667	-7.00000e+00	
			         2.43833	-7.00000e+00	
			         2.44000	-7.00000e+00	
			         2.44167	-6.00000e+00	
			         2.44333	-6.00000e+00	
			         2.44500	-6.00000e+00	
			         2.44667	-6.00000e+00	
			         2.44833	-6.00000e+00	
			         2.45000	-6.00000e+00	
			         2.45167	-6.00000e+00	
			         2.45333	-6.00000e+00	
			         2.45500	-6.00000e+00	
			         2.45667	-6.00000e+00	
			         2.45833	-6.00000e+00	
			         2.46000	-5.00000e+00	
			         2.46167	-4.00000e+00	
			         2.46333	-3.00000e+00	
			         2.46500	-2.00000e+00	
			         2.46667	-1.00000e+00	
			         2.46833	0.00000e+00	
			         2.47000	1.00000e+00	
			         2.47167	1.00000e+00	
			         2.47333	2.00000e+00	
			         2.47500	2.00000e+00	
			         2.47667	2.00000e+00	
			         2.47833	1.00000e+00	
			         2.48000	1.00000e+00	
			         2.48167	0.00000e+00	
			         2.48333	0.00000e+00	
			         2.48500	-1.00000e+00	
			         2.48667	-1.00000e+00	
			         2.48833	-1.00000e+00	
			         2.49000	-1.00000e+00	
			         2.49167	-1.00000e+00	
			         2.49333	-1.00000e+00	
			         2.49500	0.00000e+00	
			         2.49667	0.00000e+00	
			         2.49833	0.00000e+00	
			         2.50000	0.00000e+00	
			         2.50167	1.00000e+00	
			         2.50333	1.00000e+00	
			         2.50500	1.00000e+00	
			         2.50667	1.00000e+00	
			         2.50833	1.00000e+00	
			         2.51000	1.00000e+00	
			         2.51167	1.00000e+00	
			         2.51333	1.00000e+00	
			         2.51500	1.00000e+00	
			         2.51667	1.00000e+00	
			         2.51833	1.00000e+00	
			         2.52000	1.00000e+00	
			         2.52167	1.00000e+00	
			         2.52333	1.00000e+00	
			         2.52500	1.00000e+00	
			         2.52667	1.00000e+00	
			         2.52833	1.00000e+00	
			         2.53000	2.00000e+00	
			         2.53167	2.00000e+00	
			         2.53333	2.00000e+00	
			         2.53500	3.00000e+00	
			         2.53667	4.00000e+00	
			         2.53833	5.00000e+00	
			         2.54000	6.00000e+00	
			         2.54167	7.00000e+00	
			         2.54333	8.00000e+00	
			         2.54500	9.00000e+00	
			         2.54667	1.00000e+01	
			         2.54833	1.10000e+01	
			         2.55000	1.20000e+01	
			         2.55167	1.20000e+01	
			         2.55333	1.20000e+01	
			         2.55500	1.20000e+01	
			         2.55667	1.20000e+01	
			         2.55833	1.10000e+01	
			         2.56000	1.00000e+01	
			         2.56167	9.00000e+00	
			         2.56333	8.00000e+00	
			         2.56500	7.00000e+00	
			         2.56667	7.00000e+00	
			         2.56833	6.00000e+00	
			         2.57000	5.00000e+00	
			         2.57167	4.00000e+00	
			         2.57333	3.00000e+00	
			         2.57500	2.00000e+00	
			         2.57667	0.00000e+00	
			         2.57833	-1.00000e+00	
			         2.58000	-2.00000e+00	
			         2.58167	-3.00000e+00	
			         2.58333	-4.00000e+00	
			         2.58500	-4.00000e+00	
			         2.58667	-5.00000e+00	
			         2.58833	-5.00000e+00	
			         2.59000	-5.00000e+00	
			         2.59167	-5.00000e+00	
			         2.59333	-4.00000e+00	
			         2.59500	-4.00000e+00	
			         2.59667	-3.00000e+00	
			         2.59833	-3.00000e+00	
			         2.60000	-3.00000e+00	
			         2.60167	-2.00000e+00	
			         2.60333	-2.00000e+00	
			         2.60500	-1.00000e+00	
			         2.60667	-1.00000e+00	
			         2.60833	-1.00000e+00	
			         2.61000	-1.00000e+00	
			         2.61167	-1.00000e+00	
			         2.61333	0.00000e+00	
			         2.61500	1.00000e+00	
			         2.61667	2.00000e+00	
			         2.61833	3.00000e+00	
			         2.62000	5.00000e+00	
			         2.62167	6.00000e+00	
			         2.62333	8.00000e+00	
			         2.62500	1.00000e+01	
			         2.62667	1.20000e+01	
			         2.62833	1.30000e+01	
			         2.63000	1.50000e+01	
			         2.63167	1.70000e+01	
			         2.63333	1.90000e+01	
			         2.63500	2.00000e+01	
			         2.63667	2.20000e+01	
			         2.63833	2.40000e+01	
			         2.64000	2.60000e+01	
			         2.64167	2.80000e+01	
			         2.64333	3.00000e+01	
			         2.64500	3.20000e+01	
			         2.64667	3.50000e+01	
			         2.64833	3.80000e+01	
			         2.65000	4.10000e+01	
			         2.65167	4.40000e+01	
			         2.65333	4.80000e+01	
			         2.65500	5.20000e+01	
			         2.65667	5.60000e+01	
			         2.65833	5.90000e+01	
			         2.66000	6.20000e+01	
			         2.66167	6.50000e+01	
			         2.66333	6.80000e+01	
			         2.66500	7.00000e+01	
			         2.66667	7.10000e+01	
			         2.66833	7.20000e+01	
			         2.67000	7.20000e+01	
			         2.67167	7.20000e+01	
			         2.67333	7.10000e+01	
			         2.67500	6.90000e+01	
			         2.67667	6.70000e+01	
			         2.67833	6.50000e+01	
			         2.68000	6.30000e+01	
			         2.68167	6.00000e+01	
			         2.68333	5.80000e+01	
			         2.68500	5.50000e+01	
			         2.68667	5.20000e+01	
			         2.68833	4.80000e+01	
			         2.69000	4.40000e+01	
			         2.69167	4.00000e+01	
			         2.69333	3.60000e+01	
			         2.69500	3.10000e+01	
			         2.69667	2.60000e+01	
			         2.69833	2.00000e+01	
			         2.70000	1.50000e+01	
			         2.70167	9.00000e+00	
			         2.70333	2.00000e+00	
			         2.70500	-4.00000e+00	
			         2.70667	-1.00000e+01	
			         2.70833	-1.60000e+01	
			         2.71000	-2.20000e+01	
			         2.71167	-2.60000e+01	
			         2.71333	-3.10000e+01	
			         2.71500	-3.50000e+01	
			         2.71667	-3.80000e+01	
			         2.71833	-4.10000e+01	
			         2.72000	-4.40000e+01	
			         2.72167	-4.60000e+01	
			         2.72333	-4.70000e+01	
			         2.72500	-4.80000e+01	
			         2.72667	-4.90000e+01	
			         2.72833	-4.90000e+01	
			         2.73000	-4.90000e+01	
			         2.73167	-4.90000e+01	
			         2.73333	-4.80000e+01	
			         2.73500	-4.70000e+01	
			         2.73667	-4.60000e+01	
			         2.73833	-4.50000e+01	
			         2.74000	-4.40000e+01	
			         2.74167	-4.30000e+01	
			         2.74333	-4.20000e+01	
			         2.74500	-4.00000e+01	
			         2.74667	-3.90000e+01	
			         2.74833	-3.70000e+01	
			         2.75000	-3.60000e+01	
			         2.75167	-3.50000e+01	
			         2.75333	-3.40000e+01	
			         2.75500	-3.30000e+01	
			         2.75667	-3.20000e+01	
			         2.75833	-3.10000e+01	
			         2.76000	-3.00000e+01	
			         2.76167	-2.80000e+01	
			         2.76333	-2.60000e+01	
			         2.76500	-2.50000e+01	
			         2.76667	-2.30000e+01	
			         2.76833	-2.10000e+01	
			         2.77000	-1.90000e+01	
			         2.77167	-1.70000e+01	
			         2.77333	-1.50000e+01	
			         2.77500	-1.30000e+01	
			         2.77667	-1.10000e+01	
			         2.77833	-8.00000e+00	
			         2.78000	-5.00000e+00	
			         2.78167	-2.00000e+00	
			         2.78333	2.00000e+00	
			         2.78500	9.00000e+00	
			         2.78667	1.70000e+01	
			         2.78833	2.90000e+01	
			         2.79000	4.30000e+01	
			         2.79167	5.90000e+01	
			         2.79333	7.70000e+01	
			         2.79500	9.70000e+01	
			         2.79667	1.18000e+02	
			         2.79833	1.38000e+02	
			         2.80000	1.57000e+02	
			         2.80167	1.73000e+02	
			         2.80333	1.86000e+02	
			         2.80500	1.94000e+02	
			         2.80667	1.98000e+02	
			         2.80833	1.96000e+02	
			         2.81000	1.88000e+02	
			         2.81167	1.75000e+02	
			         2.81333	1.58000e+02	
			         2.81500	1.37000e+02	
			         2.81667	1.13000e+02	
			         2.81833	8.70000e+01	
			         2.82000	6.20000e+01	
			         2.82167	3.80000e+01	
			         2.82333	1.60000e+01	
			         2.82500	-3.00000e+00	
			         2.82667	-1.90000e+01	
			         2.82833	-3.10000e+01	
			         2.83000	-4.00000e+01	
			         2.83167	-4.60000e+01	
			         2.83333	-4.90000e+01	
			         2.83500	-4.90000e+01	
			         2.83667	-4.70000e+01	
			         2.83833	-4.40000e+01	
			         2.84000	-4.00000e+01	
			         2.84167	-3.60000e+01	
			         2.84333	-3.20000e+01	
			         2.84500	-2.90000e+01	
			         2.84667	-2.60000e+01	
			         2.84833	-2.50000e+01	
			         2.85000	-2.30000e+01	
			         2.85167	-2.30000e+01	
			         2.85333	-2.30000e+01	
			         2.85500	-2.30000e+01	
			         2.85667	-2.30000e+01	
			         2.85833	-2.30000e+01	
			         2.86000	-2.30000e+01	
			         2.86167	-2.30000e+01	
			         2.86333	-2.30000e+01	
			         2.86500	-2.30000e+01	
