Velocity (TVI), in cm/s

Time (s) :	Trace 1 : 		Ecg : 		
0.01172   	2.55483e-01		         0.00000	1.26000e+02	
0.01786   	3.94445e-01		         0.00167	1.36000e+02	
0.02400   	3.89715e-01		         0.00333	1.44000e+02	
0.03041   	1.46107e-01		         0.00500	1.49000e+02	
0.03655   	5.69668e-02		         0.00667	1.50000e+02	
0.04269   	1.15085e-01		         0.00833	1.48000e+02	
0.04882   	-3.47228e-01		         0.01000	1.41000e+02	
0.05523   	-6.39836e-01		         0.01167	1.29000e+02	
0.06137   	-3.39166e-01		         0.01333	1.14000e+02	
0.06751   	2.28149e-01		         0.01500	9.60000e+01	
0.07364   	1.20715e+00		         0.01667	7.40000e+01	
0.08027   	2.54230e+00		         0.01833	5.00000e+01	
0.08619   	3.86896e+00		         0.02000	2.30000e+01	
0.09233   	4.71281e+00		         0.02167	-4.00000e+00	
0.09846   	5.25036e+00		         0.02333	-3.20000e+01	
0.10487   	5.52174e+00		         0.02500	-5.90000e+01	
0.11101   	5.60015e+00		         0.02667	-8.40000e+01	
0.11715   	5.61048e+00		         0.02833	-1.07000e+02	
0.12329   	5.60465e+00		         0.03000	-1.26000e+02	
0.12986   	5.63186e+00		         0.03167	-1.42000e+02	
0.13583   	5.60498e+00		         0.03333	-1.55000e+02	
0.14197   	5.54932e+00		         0.03500	-1.63000e+02	
0.14811   	5.44321e+00		         0.03667	-1.68000e+02	
0.15452   	5.30748e+00		         0.03833	-1.68000e+02	
0.16065   	5.19657e+00		         0.04000	-1.66000e+02	
0.16679   	5.03035e+00		         0.04167	-1.60000e+02	
0.17293   	4.87608e+00		         0.04333	-1.51000e+02	
0.17965   	4.82160e+00		         0.04500	-1.40000e+02	
0.18548   	4.79872e+00		         0.04667	-1.28000e+02	
0.19162   	4.66328e+00		         0.04833	-1.15000e+02	
0.19775   	4.64110e+00		         0.05000	-1.01000e+02	
0.20416   	4.60981e+00		         0.05167	-8.70000e+01	
0.21030   	4.51532e+00		         0.05333	-7.40000e+01	
0.21643   	4.40259e+00		         0.05500	-6.20000e+01	
0.22257   	4.33518e+00		         0.05667	-5.00000e+01	
0.22898   	4.24264e+00		         0.05833	-4.00000e+01	
0.23512   	4.14782e+00		         0.06000	-3.20000e+01	
0.24126   	4.02056e+00		         0.06167	-2.40000e+01	
0.24740   	3.92982e+00		         0.06333	-1.80000e+01	
0.25381   	3.79955e+00		         0.06500	-1.30000e+01	
0.25994   	3.68666e+00		         0.06667	-1.00000e+01	
0.26608   	3.55693e+00		         0.06833	-7.00000e+00	
0.27222   	3.50123e+00		         0.07000	-4.00000e+00	
0.27863   	3.33704e+00		         0.07167	-3.00000e+00	
0.28477   	3.26404e+00		         0.07333	-2.00000e+00	
0.29090   	3.14020e+00		         0.07500	-1.00000e+00	
0.29704   	3.02257e+00		         0.07667	-1.00000e+00	
0.30345   	2.82223e+00		         0.07833	0.00000e+00	
0.30959   	2.64473e+00		         0.08000	0.00000e+00	
0.31573   	2.46389e+00		         0.08167	0.00000e+00	
0.32186   	2.29909e+00		         0.08333	0.00000e+00	
0.32827   	2.13466e+00		         0.08500	1.00000e+00	
0.33441   	1.99974e+00		         0.08667	1.00000e+00	
0.34055   	1.91546e+00		         0.08833	1.00000e+00	
0.34668   	1.75165e+00		         0.09000	2.00000e+00	
0.35309   	1.57634e+00		         0.09167	2.00000e+00	
0.35923   	1.40161e+00		         0.09333	2.00000e+00	
0.36537   	1.26626e+00		         0.09500	2.00000e+00	
0.37151   	1.32074e+00		         0.09667	2.00000e+00	
0.37791   	1.53020e+00		         0.09833	2.00000e+00	
0.38405   	1.09777e+00		         0.10000	2.00000e+00	
0.39019   	5.80017e-01		         0.10167	2.00000e+00	
0.39633   	3.79720e-01		         0.10333	2.00000e+00	
0.40274   	-1.74091e-01		         0.10500	2.00000e+00	
0.40887   	-6.60987e-01		         0.10667	2.00000e+00	
0.41501   	-4.44516e-01		         0.10833	2.00000e+00	
0.42115   	-4.70802e-04		         0.11000	2.00000e+00	
0.42756   	1.79453e-01		         0.11167	2.00000e+00	
0.43370   	7.17711e-01		         0.11333	2.00000e+00	
0.43983   	9.39941e-01		         0.11500	2.00000e+00	
0.44597   	1.15914e+00		         0.11667	2.00000e+00	
0.45238   	1.25097e+00		         0.11833	1.00000e+00	
0.45852   	1.11413e+00		         0.12000	1.00000e+00	
0.46465   	8.84598e-01		         0.12167	1.00000e+00	
0.47079   	5.61811e-01		         0.12333	1.00000e+00	
0.47720   	2.70722e-02		         0.12500	1.00000e+00	
0.48334   	-7.86475e-01		         0.12667	1.00000e+00	
0.48948   	-1.77718e+00		         0.12833	1.00000e+00	
0.49562   	-3.03758e+00		         0.13000	1.00000e+00	
0.50202   	-4.12217e+00		         0.13167	0.00000e+00	
0.50816   	-5.08092e+00		         0.13333	0.00000e+00	
0.51430   	-5.74365e+00		         0.13500	0.00000e+00	
0.52044   	-6.04521e+00		         0.13667	0.00000e+00	
0.52684   	-6.13597e+00		         0.13833	0.00000e+00	
0.53298   	-6.01326e+00		         0.14000	0.00000e+00	
0.53912   	-5.70401e+00		         0.14167	0.00000e+00	
0.54526   	-5.31022e+00		         0.14333	0.00000e+00	
0.55167   	-4.90722e+00		         0.14500	0.00000e+00	
0.55781   	-4.39215e+00		         0.14667	0.00000e+00	
0.56394   	-4.00965e+00		         0.14833	-1.00000e+00	
0.57008   	-3.71680e+00		         0.15000	-1.00000e+00	
0.57649   	-3.43601e+00		         0.15167	-1.00000e+00	
0.58263   	-3.24115e+00		         0.15333	-1.00000e+00	
0.58876   	-3.12838e+00		         0.15500	-1.00000e+00	
0.59490   	-2.98330e+00		         0.15667	-1.00000e+00	
0.60131   	-2.86263e+00		         0.15833	0.00000e+00	
0.60745   	-2.70386e+00		         0.16000	0.00000e+00	
0.61359   	-2.52949e+00		         0.16167	0.00000e+00	
0.61973   	-2.32551e+00		         0.16333	1.00000e+00	
0.62613   	-2.14391e+00		         0.16500	1.00000e+00	
0.63227   	-1.91275e+00		         0.16667	2.00000e+00	
0.63841   	-1.72027e+00		         0.16833	3.00000e+00	
0.64461   	-1.52736e+00		         0.17000	3.00000e+00	
0.65096   	-1.50216e+00		         0.17167	4.00000e+00	
0.65710   	-1.54293e+00		         0.17333	5.00000e+00	
0.66323   	-1.71174e+00		         0.17500	5.00000e+00	
0.66937   	-2.04481e+00		         0.17667	6.00000e+00	
0.67578   	-2.43726e+00		         0.17833	7.00000e+00	
0.68192   	-2.88806e+00		         0.18000	7.00000e+00	
0.68805   	-3.47084e+00		         0.18167	7.00000e+00	
0.69450   	-4.11639e+00		         0.18333	8.00000e+00	
0.70060   	-4.83402e+00		         0.18500	8.00000e+00	
0.70674   	-5.65445e+00		         0.18667	8.00000e+00	
0.71287   	-6.41419e+00		         0.18833	9.00000e+00	
0.71901   	-7.10463e+00		         0.19000	9.00000e+00	
0.72542   	-7.68187e+00		         0.19167	9.00000e+00	
0.73156   	-8.11969e+00		         0.19333	9.00000e+00	
0.73770   	-8.25044e+00		         0.19500	9.00000e+00	
0.74383   	-8.15003e+00		         0.19667	9.00000e+00	
0.75024   	-7.79624e+00		         0.19833	9.00000e+00	
0.75638   	-7.13509e+00		         0.20000	9.00000e+00	
0.76252   	-6.33419e+00		         0.20167	1.00000e+01	
0.76866   	-5.37089e+00		         0.20333	1.10000e+01	
0.77507   	-4.32294e+00		         0.20500	1.10000e+01	
0.78120   	-3.42198e+00		         0.20667	1.30000e+01	
0.78734   	-2.62351e+00		         0.20833	1.40000e+01	
0.79348   	-1.84498e+00		         0.21000	1.60000e+01	
0.79989   	-1.27271e+00		         0.21167	1.80000e+01	
0.80603   	-7.69728e-01		         0.21333	2.00000e+01	
0.81216   	-1.49944e-01		         0.21500	2.20000e+01	
0.81830   	3.32737e-01		         0.21667	2.40000e+01	
0.82471   	8.45425e-01		         0.21833	2.60000e+01	
0.83085   	1.42165e+00		         0.22000	2.80000e+01	
0.83698   	1.90023e+00		         0.22167	3.00000e+01	
0.84312   	2.28321e+00		         0.22333	3.20000e+01	
0.84953   	2.57072e+00		         0.22500	3.40000e+01	
0.85567   	2.70787e+00		         0.22667	3.60000e+01	
0.86181   	2.78240e+00		         0.22833	3.80000e+01	
0.86794   	2.74361e+00		         0.23000	4.00000e+01	
0.87435   	2.70545e+00		         0.23167	4.20000e+01	
0.88049   	2.51395e+00		         0.23333	4.40000e+01	
0.88663   	2.19068e+00		         0.23500	4.60000e+01	
0.89276   	1.67151e+00		         0.23667	4.80000e+01	
0.89918   	1.02923e+00		         0.23833	5.00000e+01	
0.90532   	5.94853e-01		         0.24000	5.20000e+01	
0.91145   	6.70647e-01		         0.24167	5.40000e+01	
0.91759   	1.32838e+00		         0.24333	5.60000e+01	
0.92400   	2.29296e+00		         0.24500	5.70000e+01	
0.93014   	3.60463e+00		         0.24667	5.90000e+01	
0.93627   	4.66990e+00		         0.24833	6.10000e+01	
0.94241   	5.51272e+00		         0.25000	6.20000e+01	
0.94882   	5.92081e+00		         0.25167	6.40000e+01	
0.95496   	6.13771e+00		         0.25333	6.50000e+01	
0.96109   	6.17675e+00		         0.25500	6.70000e+01	
0.96723   	6.20758e+00		         0.25667	6.80000e+01	
0.97364   	6.12445e+00		         0.25833	6.90000e+01	
0.97978   	6.03034e+00		         0.26000	7.00000e+01	
0.98592   	5.96221e+00		         0.26167	7.00000e+01	
0.99205   	5.79884e+00		         0.26333	7.10000e+01	
0.99846   	5.62041e+00		         0.26500	7.10000e+01	
1.00460   	5.40873e+00		         0.26667	7.10000e+01	
1.01074   	5.27726e+00		         0.26833	7.10000e+01	
1.01688   	5.08710e+00		         0.27000	7.10000e+01	
1.02328   	4.93574e+00		         0.27167	7.10000e+01	
1.02942   	4.82836e+00		         0.27333	7.10000e+01	
1.03556   	4.72171e+00		         0.27500	7.10000e+01	
1.04170   	4.62954e+00		         0.27667	7.00000e+01	
1.04810   	4.55068e+00		         0.27833	7.00000e+01	
1.05424   	4.52410e+00		         0.28000	6.90000e+01	
1.06038   	4.49570e+00		         0.28167	6.70000e+01	
1.06652   	4.47189e+00		         0.28333	6.60000e+01	
1.07293   	4.42724e+00		         0.28500	6.40000e+01	
1.07907   	4.38475e+00		         0.28667	6.20000e+01	
1.08521   	4.30395e+00		         0.28833	5.90000e+01	
1.09134   	4.17485e+00		         0.29000	5.60000e+01	
1.09775   	4.09103e+00		         0.29167	5.20000e+01	
1.10389   	3.97338e+00		         0.29333	4.90000e+01	
1.11002   	3.79929e+00		         0.29500	4.50000e+01	
1.11617   	3.67639e+00		         0.29667	4.10000e+01	
1.12257   	3.50507e+00		         0.29833	3.70000e+01	
1.12871   	3.39389e+00		         0.30000	3.30000e+01	
1.13485   	3.20301e+00		         0.30167	2.80000e+01	
1.14098   	3.06763e+00		         0.30333	2.40000e+01	
1.14740   	2.90618e+00		         0.30500	2.00000e+01	
1.15353   	2.81922e+00		         0.30667	1.60000e+01	
1.15967   	2.66981e+00		         0.30833	1.20000e+01	
1.16581   	2.54510e+00		         0.31000	8.00000e+00	
1.17222   	2.43339e+00		         0.31167	4.00000e+00	
1.17835   	2.26899e+00		         0.31333	0.00000e+00	
1.18449   	2.10996e+00		         0.31500	-4.00000e+00	
1.19063   	1.89347e+00		         0.31667	-8.00000e+00	
1.19704   	1.61852e+00		         0.31833	-1.20000e+01	
1.20318   	1.29678e+00		         0.32000	-1.60000e+01	
1.20931   	9.61090e-01		         0.32167	-2.00000e+01	
1.21545   	4.88658e-01		         0.32333	-2.50000e+01	
1.22186   	-3.59416e-02		         0.32500	-2.90000e+01	
1.22800   	-5.96579e-01		         0.32667	-3.30000e+01	
1.23414   	-1.11266e+00		         0.32833	-3.60000e+01	
1.24027   	-1.65677e+00		         0.33000	-4.00000e+01	
1.24669   	-2.22925e+00		         0.33167	-4.30000e+01	
1.25282   	-2.55412e+00		         0.33333	-4.60000e+01	
1.25913   	-2.46511e+00		         0.33500	-4.90000e+01	
1.26510   	-2.39780e+00		         0.33667	-5.10000e+01	
1.27150   	-2.12304e+00		         0.33833	-5.40000e+01	
1.27764   	-1.56652e+00		         0.34000	-5.60000e+01	
1.28378   	-9.27262e-01		         0.34167	-5.80000e+01	
1.28992   	-4.29842e-01		         0.34333	-5.90000e+01	
1.29633   	3.21855e-02		         0.34500	-6.10000e+01	
1.30246   	3.44642e-01		         0.34667	-6.30000e+01	
1.30888   	5.35937e-01		         0.34833	-6.40000e+01	
1.31474   	4.89478e-01		         0.35000	-6.50000e+01	
1.32115   	-1.13000e-01		         0.35167	-6.70000e+01	
1.32728   	-6.82125e-01		         0.35333	-6.80000e+01	
1.33342   	-1.48566e+00		         0.35500	-6.90000e+01	
1.33956   	-2.42475e+00		         0.35667	-7.00000e+01	
1.34597   	-3.49782e+00		         0.35833	-7.00000e+01	
1.35211   	-4.18262e+00		         0.36000	-7.10000e+01	
1.35824   	-4.81975e+00		         0.36167	-7.10000e+01	
1.36438   	-5.21118e+00		         0.36333	-7.10000e+01	
1.37079   	-5.42599e+00		         0.36500	-7.00000e+01	
1.37693   	-5.40539e+00		         0.36667	-7.00000e+01	
1.38307   	-5.28335e+00		         0.36833	-7.00000e+01	
1.38920   	-5.03271e+00		         0.37000	-6.90000e+01	
1.39561   	-4.71142e+00		         0.37167	-6.80000e+01	
1.40175   	-4.31544e+00		         0.37333	-6.80000e+01	
1.40789   	-3.86592e+00		         0.37500	-6.70000e+01	
1.41403   	-3.40835e+00		         0.37667	-6.60000e+01	
1.42044   	-3.12076e+00		         0.37833	-6.60000e+01	
1.42657   	-2.79151e+00		         0.38000	-6.50000e+01	
1.43271   	-2.50786e+00		         0.38167	-6.50000e+01	
1.43885   	-2.33306e+00		         0.38333	-6.40000e+01	
1.44526   	-2.21561e+00		         0.38500	-6.40000e+01	
1.45139   	-2.03474e+00		         0.38667	-6.30000e+01	
1.45753   	-1.91305e+00		         0.38833	-6.30000e+01	
1.46367   	-1.83817e+00		         0.39000	-6.30000e+01	
1.47008   	-1.72146e+00		         0.39167	-6.20000e+01	
1.47622   	-1.62557e+00		         0.39333	-6.20000e+01	
1.48235   	-1.51248e+00		         0.39500	-6.10000e+01	
1.48849   	-1.41065e+00		         0.39667	-6.10000e+01	
1.49490   	-1.32313e+00		         0.39833	-6.00000e+01	
1.50104   	-1.31007e+00		         0.40000	-6.00000e+01	
1.50718   	-1.36821e+00		         0.40167	-5.90000e+01	
1.51331   	-1.59310e+00		         0.40333	-5.90000e+01	
1.51972   	-1.93848e+00		         0.40500	-5.80000e+01	
1.52586   	-2.43894e+00		         0.40667	-5.80000e+01	
1.53200   	-3.10266e+00		         0.40833	-5.70000e+01	
1.53814   	-3.92516e+00		         0.41000	-5.60000e+01	
1.54455   	-4.79724e+00		         0.41167	-5.60000e+01	
1.55069   	-5.79786e+00		         0.41333	-5.50000e+01	
1.55682   	-6.69776e+00		         0.41500	-5.40000e+01	
1.56296   	-7.39858e+00		         0.41667	-5.30000e+01	
1.56937   	-7.87014e+00		         0.41833	-5.20000e+01	
1.57550   	-8.14088e+00		         0.42000	-5.10000e+01	
1.58164   	-8.15125e+00		         0.42167	-4.90000e+01	
1.58778   	-8.01969e+00		         0.42333	-4.80000e+01	
1.59419   	-7.80047e+00		         0.42500	-4.70000e+01	
1.60033   	-7.33059e+00		         0.42667	-4.60000e+01	
1.60646   	-6.65474e+00		         0.42833	-4.50000e+01	
1.61261   	-5.73183e+00		         0.43000	-4.40000e+01	
1.61901   	-4.67110e+00		         0.43167	-4.30000e+01	
1.62515   	-3.55667e+00		         0.43333	-4.20000e+01	
1.63129   	-2.53025e+00		         0.43500	-4.20000e+01	
1.63742   	-1.51824e+00		         0.43667	-4.10000e+01	
1.64383   	-6.98599e-01		         0.43833	-4.10000e+01	
1.64997   	-7.46632e-02		         0.44000	-4.00000e+01	
1.65611   	4.22815e-01		         0.44167	-4.00000e+01	
1.66225   	7.20090e-01		         0.44333	-4.00000e+01	
1.66866   	8.38024e-01		         0.44500	-3.90000e+01	
1.67479   	8.21302e-01		         0.44667	-3.90000e+01	
1.68093   	7.40079e-01		         0.44833	-3.80000e+01	
1.68707   	5.98737e-01		         0.45000	-3.70000e+01	
1.69348   	6.11921e-01		         0.45167	-3.60000e+01	
1.69962   	7.40430e-01		         0.45333	-3.50000e+01	
1.70575   	1.03696e+00		         0.45500	-3.40000e+01	
1.71189   	1.45452e+00		         0.45667	-3.20000e+01	
1.71830   	2.05002e+00		         0.45833	-3.10000e+01	
1.72443   	2.61160e+00		         0.46000	-3.00000e+01	
1.73058   	2.94271e+00		         0.46167	-2.90000e+01	
1.73671   	2.85956e+00		         0.46333	-2.70000e+01	
1.74312   	2.60435e+00		         0.46500	-2.60000e+01	
1.74926   	2.11041e+00		         0.46667	-2.50000e+01	
1.75539   	1.36178e+00		         0.46833	-2.40000e+01	
1.76154   	8.79363e-01		         0.47000	-2.30000e+01	
1.76794   	9.43254e-01		         0.47167	-2.30000e+01	
1.77408   	1.48721e+00		         0.47333	-2.20000e+01	
1.78022   	2.47348e+00		         0.47500	-2.20000e+01	
1.78636   	3.78195e+00		         0.47667	-2.20000e+01	
1.79276   	4.94661e+00		         0.47833	-2.20000e+01	
1.79890   	5.91060e+00		         0.48000	-2.20000e+01	
1.80504   	6.44375e+00		         0.48167	-2.20000e+01	
1.81118   	6.55741e+00		         0.48333	-2.20000e+01	
1.81759   	6.57149e+00		         0.48500	-2.30000e+01	
1.82383   	6.52016e+00		         0.48667	-2.30000e+01	
1.82986   	6.38316e+00		         0.48833	-2.30000e+01	
1.83600   	6.23519e+00		         0.49000	-2.30000e+01	
1.84241   	6.12668e+00		         0.49167	-2.30000e+01	
1.84855   	5.89668e+00		         0.49333	-2.20000e+01	
1.85468   	5.61967e+00		         0.49500	-2.10000e+01	
1.86082   	5.41545e+00		         0.49667	-2.00000e+01	
1.86723   	5.25341e+00		         0.49833	-1.90000e+01	
1.87338   	5.07984e+00		         0.50000	-1.70000e+01	
1.87951   	4.89276e+00		         0.50167	-1.60000e+01	
1.88564   	4.82762e+00		         0.50333	-1.50000e+01	
1.89205   	4.70467e+00		         0.50500	-1.40000e+01	
1.89819   	4.62408e+00		         0.50667	-1.30000e+01	
1.90433   	4.52287e+00		         0.50833	-1.20000e+01	
1.91046   	4.49429e+00		         0.51000	-1.20000e+01	
1.91688   	4.44647e+00		         0.51167	-1.20000e+01	
1.92327   	4.40190e+00		         0.51333	-1.20000e+01	
1.92915   	4.33383e+00		         0.51500	-1.20000e+01	
1.93529   	4.29171e+00		         0.51667	-1.30000e+01	
1.94170   	4.23892e+00		         0.51833	-1.30000e+01	
1.94784   	4.13085e+00		         0.52000	-1.30000e+01	
1.95397   	3.99584e+00		         0.52167	-1.40000e+01	
1.96011   	3.82598e+00		         0.52333	-1.40000e+01	
1.96652   	3.75373e+00		         0.52500	-1.40000e+01	
1.97266   	3.59589e+00		         0.52667	-1.50000e+01	
1.97879   	3.43294e+00		         0.52833	-1.50000e+01	
1.98493   	3.32463e+00		         0.53000	-1.50000e+01	
1.99134   	3.25515e+00		         0.53167	-1.40000e+01	
1.99748   	3.11324e+00		         0.53333	-1.40000e+01	
2.00361   	2.96946e+00		         0.53500	-1.40000e+01	
2.00975   	2.80303e+00		         0.53667	-1.30000e+01	
2.01617   	2.60517e+00		         0.53833	-1.30000e+01	
2.02230   	2.37670e+00		         0.54000	-1.30000e+01	
2.02844   	2.19009e+00		         0.54167	-1.20000e+01	
2.03458   	2.03045e+00		         0.54333	-1.20000e+01	
2.04098   	1.87764e+00		         0.54500	-1.20000e+01	
2.04712   	1.73551e+00		         0.54667	-1.20000e+01	
2.05326   	1.52554e+00		         0.54833	-1.20000e+01	
2.05940   	1.16811e+00		         0.55000	-1.20000e+01	
2.06581   	8.58305e-01		         0.55167	-1.20000e+01	
2.07194   	4.72125e-01		         0.55333	-1.20000e+01	
2.07808   	-3.14193e-02		         0.55500	-1.30000e+01	
2.08422   	-6.67695e-01		         0.55667	-1.30000e+01	
2.09063   	-1.12006e+00		         0.55833	-1.30000e+01	
2.09676   	-1.80508e+00		         0.56000	-1.40000e+01	
2.10290   	-2.53687e+00		         0.56167	-1.40000e+01	
2.10904   	-2.95954e+00		         0.56333	-1.50000e+01	
2.11545   	-2.84715e+00		         0.56500	-1.60000e+01	
2.12159   	-2.71954e+00		         0.56667	-1.60000e+01	
2.12772   	-2.41418e+00		         0.56833	-1.70000e+01	
2.13386   	-1.73290e+00		         0.57000	-1.80000e+01	
2.14027   	-1.05080e+00		         0.57167	-1.80000e+01	
2.14641   	-5.92473e-01		         0.57333	-1.90000e+01	
2.15255   	-2.99349e-01		         0.57500	-1.90000e+01	
2.15868   	1.00481e-01		         0.57667	-2.00000e+01	
2.16509   	5.57285e-02		         0.57833	-2.00000e+01	
2.17123   	-2.43292e-01		         0.58000	-2.10000e+01	
2.17737   	-8.87860e-01		         0.58167	-2.10000e+01	
2.18351   	-1.61262e+00		         0.58333	-2.10000e+01	
2.18991   	-2.39361e+00		         0.58500	-2.10000e+01	
2.19605   	-3.07695e+00		         0.58667	-2.10000e+01	
2.20219   	-3.84563e+00		         0.58833	-2.00000e+01	
2.20833   	-4.48950e+00		         0.59000	-2.00000e+01	
2.21474   	-4.91949e+00		         0.59167	-1.90000e+01	
2.22087   	-5.30044e+00		         0.59333	-1.90000e+01	
2.22701   	-5.47453e+00		         0.59500	-1.80000e+01	
2.23315   	-5.41374e+00		         0.59667	-1.70000e+01	
2.23956   	-5.18622e+00		         0.59833	-1.60000e+01	
2.24570   	-4.94032e+00		         0.60000	-1.50000e+01	
2.25184   	-4.68062e+00		         0.60167	-1.40000e+01	
2.25797   	-4.35514e+00		         0.60333	-1.30000e+01	
2.26438   	-3.98709e+00		         0.60500	-1.20000e+01	
2.27052   	-3.57208e+00		         0.60667	-1.10000e+01	
2.27666   	-3.20844e+00		         0.60833	-1.00000e+01	
2.28280   	-2.77838e+00		         0.61000	-9.00000e+00	
2.28920   	-2.45231e+00		         0.61167	-8.00000e+00	
2.29534   	-2.24347e+00		         0.61333	-7.00000e+00	
2.30148   	-2.08094e+00		         0.61500	-6.00000e+00	
2.30762   	-1.93163e+00		         0.61667	-6.00000e+00	
2.31403   	-1.84038e+00		         0.61833	-5.00000e+00	
2.32016   	-1.84117e+00		         0.62000	-4.00000e+00	
2.32630   	-1.79353e+00		         0.62167	-4.00000e+00	
2.33244   	-1.78667e+00		         0.62333	-3.00000e+00	
2.33885   	-1.74814e+00		         0.62500	-2.00000e+00	
2.34499   	-1.69518e+00		         0.62667	-1.00000e+00	
2.35112   	-1.60891e+00		         0.62833	-1.00000e+00	
2.35726   	-1.67191e+00		         0.63000	0.00000e+00	
2.36367   	-1.78844e+00		         0.63167	1.00000e+00	
2.36981   	-1.99959e+00		         0.63333	3.00000e+00	
2.37595   	-2.24385e+00		         0.63500	4.00000e+00	
2.38208   	-2.54693e+00		         0.63667	5.00000e+00	
2.38849   	-2.88313e+00		         0.63833	7.00000e+00	
2.39463   	-3.30460e+00		         0.64000	8.00000e+00	
2.40077   	-3.84448e+00		         0.64167	1.00000e+01	
2.40690   	-4.49265e+00		         0.64333	1.10000e+01	
2.41331   	-5.23513e+00		         0.64500	1.20000e+01	
2.41945   	-5.98261e+00		         0.64667	1.40000e+01	
2.42559   	-6.71812e+00		         0.64833	1.50000e+01	
2.43173   	-7.26316e+00		         0.65000	1.60000e+01	
2.43814   	-7.80143e+00		         0.65167	1.70000e+01	
2.44427   	-8.10713e+00		         0.65333	1.80000e+01	
2.45041   	-8.18352e+00		         0.65500	1.80000e+01	
2.45655   	-8.00245e+00		         0.65667	1.80000e+01	
2.46296   	-7.66816e+00		         0.65833	1.80000e+01	
2.46909   	-7.02876e+00		         0.66000	1.70000e+01	
2.47523   	-6.18221e+00		         0.66167	1.60000e+01	
2.48137   	-5.23074e+00		         0.66333	1.50000e+01	
2.48778   	-4.21645e+00		         0.66500	1.40000e+01	
2.49392   	-3.20109e+00		         0.66667	1.20000e+01	
2.50005   	-2.30743e+00		         0.66833	9.00000e+00	
2.50619   	-1.60907e+00		         0.67000	7.00000e+00	
2.51260   	-1.06777e+00		         0.67167	4.00000e+00	
2.51874   	-5.41565e-01		         0.67333	1.00000e+00	
2.52488   	-2.06777e-02		         0.67500	-2.00000e+00	
2.53101   	4.71755e-01		         0.67667	-4.00000e+00	
2.53742   	9.93481e-01		         0.67833	-7.00000e+00	
2.54356   	1.60757e+00		         0.68000	-9.00000e+00	
2.54970   	2.11024e+00		         0.68167	-1.10000e+01	
2.55583   	2.47264e+00		         0.68333	-1.20000e+01	
2.56224   	2.62566e+00		         0.68500	-1.40000e+01	
2.56838   	2.68490e+00		         0.68667	-1.50000e+01	
2.57452   	2.72512e+00		         0.68833	-1.50000e+01	
2.58066   	2.75575e+00		         0.69000	-1.60000e+01	
2.58708   	2.72785e+00		         0.69167	-1.60000e+01	
2.59321   	2.68393e+00		         0.69333	-1.60000e+01	
2.59935   	2.35289e+00		         0.69500	-1.60000e+01	
2.60548   	2.21910e+00		         0.69667	-1.60000e+01	
2.61189   	1.90717e+00		         0.69833	-1.50000e+01	
			         0.70000	-1.50000e+01	
			         0.70167	-1.50000e+01	
			         0.70333	-1.50000e+01	
			         0.70500	-1.40000e+01	
			         0.70667	-1.50000e+01	
			         0.70833	-1.50000e+01	
			         0.71000	-1.50000e+01	
			         0.71167	-1.60000e+01	
			         0.71333	-1.70000e+01	
			         0.71500	-1.80000e+01	
			         0.71667	-1.90000e+01	
			         0.71833	-2.00000e+01	
			         0.72000	-2.10000e+01	
			         0.72167	-2.20000e+01	
			         0.72333	-2.30000e+01	
			         0.72500	-2.40000e+01	
			         0.72667	-2.50000e+01	
			         0.72833	-2.50000e+01	
			         0.73000	-2.50000e+01	
			         0.73167	-2.60000e+01	
			         0.73333	-2.60000e+01	
			         0.73500	-2.60000e+01	
			         0.73667	-2.60000e+01	
			         0.73833	-2.60000e+01	
			         0.74000	-2.60000e+01	
			         0.74167	-2.70000e+01	
			         0.74333	-2.70000e+01	
			         0.74500	-2.70000e+01	
			         0.74667	-2.70000e+01	
			         0.74833	-2.70000e+01	
			         0.75000	-2.70000e+01	
			         0.75167	-2.70000e+01	
			         0.75333	-2.70000e+01	
			         0.75500	-2.70000e+01	
			         0.75667	-2.60000e+01	
			         0.75833	-2.60000e+01	
			         0.76000	-2.60000e+01	
			         0.76167	-2.50000e+01	
			         0.76333	-2.50000e+01	
			         0.76500	-2.50000e+01	
			         0.76667	-2.50000e+01	
			         0.76833	-2.40000e+01	
			         0.77000	-2.40000e+01	
			         0.77167	-2.40000e+01	
			         0.77333	-2.40000e+01	
			         0.77500	-2.40000e+01	
			         0.77667	-2.30000e+01	
			         0.77833	-2.30000e+01	
			         0.78000	-2.30000e+01	
			         0.78167	-2.20000e+01	
			         0.78333	-2.20000e+01	
			         0.78500	-2.10000e+01	
			         0.78667	-2.00000e+01	
			         0.78833	-2.00000e+01	
			         0.79000	-1.90000e+01	
			         0.79167	-1.90000e+01	
			         0.79333	-1.80000e+01	
			         0.79500	-1.70000e+01	
			         0.79667	-1.70000e+01	
			         0.79833	-1.60000e+01	
			         0.80000	-1.60000e+01	
			         0.80167	-1.60000e+01	
			         0.80333	-1.60000e+01	
			         0.80500	-1.60000e+01	
			         0.80667	-1.50000e+01	
			         0.80833	-1.50000e+01	
			         0.81000	-1.50000e+01	
			         0.81167	-1.40000e+01	
			         0.81333	-1.40000e+01	
			         0.81500	-1.30000e+01	
			         0.81667	-1.20000e+01	
			         0.81833	-1.10000e+01	
			         0.82000	-9.00000e+00	
			         0.82167	-7.00000e+00	
			         0.82333	-5.00000e+00	
			         0.82500	-2.00000e+00	
			         0.82667	1.00000e+00	
			         0.82833	5.00000e+00	
			         0.83000	9.00000e+00	
			         0.83167	1.50000e+01	
			         0.83333	2.10000e+01	
			         0.83500	2.80000e+01	
			         0.83667	3.60000e+01	
			         0.83833	4.60000e+01	
			         0.84000	5.70000e+01	
			         0.84167	6.90000e+01	
			         0.84333	8.10000e+01	
			         0.84500	9.30000e+01	
			         0.84667	1.04000e+02	
			         0.84833	1.14000e+02	
			         0.85000	1.23000e+02	
			         0.85167	1.29000e+02	
			         0.85333	1.32000e+02	
			         0.85500	1.32000e+02	
			         0.85667	1.28000e+02	
			         0.85833	1.20000e+02	
			         0.86000	1.08000e+02	
			         0.86167	9.20000e+01	
			         0.86333	7.30000e+01	
			         0.86500	5.20000e+01	
			         0.86667	2.80000e+01	
			         0.86833	3.00000e+00	
			         0.87000	-2.30000e+01	
			         0.87167	-4.80000e+01	
			         0.87333	-7.30000e+01	
			         0.87500	-9.60000e+01	
			         0.87667	-1.16000e+02	
			         0.87833	-1.34000e+02	
			         0.88000	-1.48000e+02	
			         0.88167	-1.59000e+02	
			         0.88333	-1.66000e+02	
			         0.88500	-1.69000e+02	
			         0.88667	-1.69000e+02	
			         0.88833	-1.65000e+02	
			         0.89000	-1.59000e+02	
			         0.89167	-1.49000e+02	
			         0.89333	-1.38000e+02	
			         0.89500	-1.26000e+02	
			         0.89667	-1.12000e+02	
			         0.89833	-9.80000e+01	
			         0.90000	-8.50000e+01	
			         0.90167	-7.20000e+01	
			         0.90333	-6.00000e+01	
			         0.90500	-4.90000e+01	
			         0.90667	-3.90000e+01	
			         0.90833	-3.10000e+01	
			         0.91000	-2.50000e+01	
			         0.91167	-1.90000e+01	
			         0.91333	-1.50000e+01	
			         0.91500	-1.10000e+01	
			         0.91667	-8.00000e+00	
			         0.91833	-6.00000e+00	
			         0.92000	-5.00000e+00	
			         0.92167	-4.00000e+00	
			         0.92333	-3.00000e+00	
			         0.92500	-2.00000e+00	
			         0.92667	-1.00000e+00	
			         0.92833	0.00000e+00	
			         0.93000	0.00000e+00	
			         0.93167	1.00000e+00	
			         0.93333	2.00000e+00	
			         0.93500	2.00000e+00	
			         0.93667	3.00000e+00	
			         0.93833	3.00000e+00	
			         0.94000	4.00000e+00	
			         0.94167	4.00000e+00	
			         0.94333	5.00000e+00	
			         0.94500	5.00000e+00	
			         0.94667	5.00000e+00	
			         0.94833	6.00000e+00	
			         0.95000	6.00000e+00	
			         0.95167	6.00000e+00	
			         0.95333	7.00000e+00	
			         0.95500	7.00000e+00	
			         0.95667	7.00000e+00	
			         0.95833	7.00000e+00	
			         0.96000	8.00000e+00	
			         0.96167	8.00000e+00	
			         0.96333	8.00000e+00	
			         0.96500	8.00000e+00	
			         0.96667	8.00000e+00	
			         0.96833	8.00000e+00	
			         0.97000	8.00000e+00	
			         0.97167	8.00000e+00	
			         0.97333	8.00000e+00	
			         0.97500	8.00000e+00	
			         0.97667	8.00000e+00	
			         0.97833	8.00000e+00	
			         0.98000	8.00000e+00	
			         0.98167	8.00000e+00	
			         0.98333	7.00000e+00	
			         0.98500	7.00000e+00	
			         0.98667	7.00000e+00	
			         0.98833	7.00000e+00	
			         0.99000	7.00000e+00	
			         0.99167	7.00000e+00	
			         0.99333	7.00000e+00	
			         0.99500	7.00000e+00	
			         0.99667	7.00000e+00	
			         0.99833	7.00000e+00	
			         1.00000	7.00000e+00	
			         1.00167	7.00000e+00	
			         1.00333	6.00000e+00	
			         1.00500	6.00000e+00	
			         1.00667	6.00000e+00	
			         1.00833	6.00000e+00	
			         1.01000	5.00000e+00	
			         1.01167	5.00000e+00	
			         1.01333	5.00000e+00	
			         1.01500	5.00000e+00	
			         1.01667	5.00000e+00	
			         1.01833	6.00000e+00	
			         1.02000	6.00000e+00	
			         1.02167	7.00000e+00	
			         1.02333	7.00000e+00	
			         1.02500	8.00000e+00	
			         1.02667	8.00000e+00	
			         1.02833	9.00000e+00	
			         1.03000	9.00000e+00	
			         1.03167	1.00000e+01	
			         1.03333	1.00000e+01	
			         1.03500	1.00000e+01	
			         1.03667	1.10000e+01	
			         1.03833	1.10000e+01	
			         1.04000	1.20000e+01	
			         1.04167	1.20000e+01	
			         1.04333	1.30000e+01	
			         1.04500	1.40000e+01	
			         1.04667	1.50000e+01	
			         1.04833	1.60000e+01	
			         1.05000	1.70000e+01	
			         1.05167	1.80000e+01	
			         1.05333	1.90000e+01	
			         1.05500	2.10000e+01	
			         1.05667	2.20000e+01	
			         1.05833	2.40000e+01	
			         1.06000	2.60000e+01	
			         1.06167	2.80000e+01	
			         1.06333	3.00000e+01	
			         1.06500	3.20000e+01	
			         1.06667	3.40000e+01	
			         1.06833	3.60000e+01	
			         1.07000	3.80000e+01	
			         1.07167	4.00000e+01	
			         1.07333	4.20000e+01	
			         1.07500	4.40000e+01	
			         1.07667	4.50000e+01	
			         1.07833	4.70000e+01	
			         1.08000	4.80000e+01	
			         1.08167	5.00000e+01	
			         1.08333	5.10000e+01	
			         1.08500	5.20000e+01	
			         1.08667	5.30000e+01	
			         1.08833	5.50000e+01	
			         1.09000	5.60000e+01	
			         1.09167	5.80000e+01	
			         1.09333	5.90000e+01	
			         1.09500	6.00000e+01	
			         1.09667	6.20000e+01	
			         1.09833	6.30000e+01	
			         1.10000	6.40000e+01	
			         1.10167	6.60000e+01	
			         1.10333	6.70000e+01	
			         1.10500	6.80000e+01	
			         1.10667	6.90000e+01	
			         1.10833	7.00000e+01	
			         1.11000	7.10000e+01	
			         1.11167	7.20000e+01	
			         1.11333	7.20000e+01	
			         1.11500	7.20000e+01	
			         1.11667	7.20000e+01	
			         1.11833	7.10000e+01	
			         1.12000	7.10000e+01	
			         1.12167	6.90000e+01	
			         1.12333	6.80000e+01	
			         1.12500	6.60000e+01	
			         1.12667	6.40000e+01	
			         1.12833	6.20000e+01	
			         1.13000	6.00000e+01	
			         1.13167	5.70000e+01	
			         1.13333	5.40000e+01	
			         1.13500	5.20000e+01	
			         1.13667	4.90000e+01	
			         1.13833	4.60000e+01	
			         1.14000	4.30000e+01	
			         1.14167	4.00000e+01	
			         1.14333	3.60000e+01	
			         1.14500	3.30000e+01	
			         1.14667	3.00000e+01	
			         1.14833	2.60000e+01	
			         1.15000	2.20000e+01	
			         1.15167	1.80000e+01	
			         1.15333	1.40000e+01	
			         1.15500	1.00000e+01	
			         1.15667	6.00000e+00	
			         1.15833	2.00000e+00	
			         1.16000	-2.00000e+00	
			         1.16167	-6.00000e+00	
			         1.16333	-1.00000e+01	
			         1.16500	-1.40000e+01	
			         1.16667	-1.80000e+01	
			         1.16833	-2.10000e+01	
			         1.17000	-2.50000e+01	
			         1.17167	-2.80000e+01	
			         1.17333	-3.10000e+01	
			         1.17500	-3.40000e+01	
			         1.17667	-3.70000e+01	
			         1.17833	-3.90000e+01	
			         1.18000	-4.20000e+01	
			         1.18167	-4.40000e+01	
			         1.18333	-4.60000e+01	
			         1.18500	-4.80000e+01	
			         1.18667	-5.00000e+01	
			         1.18833	-5.10000e+01	
			         1.19000	-5.30000e+01	
			         1.19167	-5.50000e+01	
			         1.19333	-5.70000e+01	
			         1.19500	-5.90000e+01	
			         1.19667	-6.00000e+01	
			         1.19833	-6.20000e+01	
			         1.20000	-6.30000e+01	
			         1.20167	-6.50000e+01	
			         1.20333	-6.60000e+01	
			         1.20500	-6.60000e+01	
			         1.20667	-6.70000e+01	
			         1.20833	-6.70000e+01	
			         1.21000	-6.60000e+01	
			         1.21167	-6.60000e+01	
			         1.21333	-6.50000e+01	
			         1.21500	-6.40000e+01	
			         1.21667	-6.20000e+01	
			         1.21833	-6.10000e+01	
			         1.22000	-6.00000e+01	
			         1.22167	-5.90000e+01	
			         1.22333	-5.80000e+01	
			         1.22500	-5.70000e+01	
			         1.22667	-5.60000e+01	
			         1.22833	-5.50000e+01	
			         1.23000	-5.50000e+01	
			         1.23167	-5.40000e+01	
			         1.23333	-5.40000e+01	
			         1.23500	-5.30000e+01	
			         1.23667	-5.20000e+01	
			         1.23833	-5.10000e+01	
			         1.24000	-5.00000e+01	
			         1.24167	-4.90000e+01	
			         1.24333	-4.70000e+01	
			         1.24500	-4.60000e+01	
			         1.24667	-4.40000e+01	
			         1.24833	-4.30000e+01	
			         1.25000	-4.20000e+01	
			         1.25167	-4.10000e+01	
			         1.25333	-4.10000e+01	
			         1.25500	-4.00000e+01	
			         1.25667	-4.00000e+01	
			         1.25833	-3.90000e+01	
			         1.26000	-3.90000e+01	
			         1.26167	-3.90000e+01	
			         1.26333	-3.90000e+01	
			         1.26500	-3.90000e+01	
			         1.26667	-3.90000e+01	
			         1.26833	-3.90000e+01	
			         1.27000	-3.90000e+01	
			         1.27167	-3.80000e+01	
			         1.27333	-3.70000e+01	
			         1.27500	-3.70000e+01	
			         1.27667	-3.60000e+01	
			         1.27833	-3.50000e+01	
			         1.28000	-3.40000e+01	
			         1.28167	-3.30000e+01	
			         1.28333	-3.30000e+01	
			         1.28500	-3.20000e+01	
			         1.28667	-3.10000e+01	
			         1.28833	-3.00000e+01	
			         1.29000	-2.90000e+01	
			         1.29167	-2.80000e+01	
			         1.29333	-2.80000e+01	
			         1.29500	-2.70000e+01	
			         1.29667	-2.60000e+01	
			         1.29833	-2.50000e+01	
			         1.30000	-2.40000e+01	
			         1.30167	-2.30000e+01	
			         1.30333	-2.20000e+01	
			         1.30500	-2.10000e+01	
			         1.30667	-1.90000e+01	
			         1.30833	-1.80000e+01	
			         1.31000	-1.60000e+01	
			         1.31167	-1.50000e+01	
			         1.31333	-1.30000e+01	
			         1.31500	-1.20000e+01	
			         1.31667	-1.00000e+01	
			         1.31833	-9.00000e+00	
			         1.32000	-8.00000e+00	
			         1.32167	-7.00000e+00	
			         1.32333	-7.00000e+00	
			         1.32500	-6.00000e+00	
			         1.32667	-6.00000e+00	
			         1.32833	-6.00000e+00	
			         1.33000	-6.00000e+00	
			         1.33167	-6.00000e+00	
			         1.33333	-6.00000e+00	
			         1.33500	-6.00000e+00	
			         1.33667	-6.00000e+00	
			         1.33833	-6.00000e+00	
			         1.34000	-6.00000e+00	
			         1.34167	-5.00000e+00	
			         1.34333	-5.00000e+00	
			         1.34500	-5.00000e+00	
			         1.34667	-4.00000e+00	
			         1.34833	-4.00000e+00	
			         1.35000	-3.00000e+00	
			         1.35167	-3.00000e+00	
			         1.35333	-2.00000e+00	
			         1.35500	-2.00000e+00	
			         1.35667	-1.00000e+00	
			         1.35833	-1.00000e+00	
			         1.36000	0.00000e+00	
			         1.36167	0.00000e+00	
			         1.36333	0.00000e+00	
			         1.36500	1.00000e+00	
			         1.36667	1.00000e+00	
			         1.36833	1.00000e+00	
			         1.37000	1.00000e+00	
			         1.37167	1.00000e+00	
			         1.37333	1.00000e+00	
			         1.37500	1.00000e+00	
			         1.37667	1.00000e+00	
			         1.37833	1.00000e+00	
			         1.38000	1.00000e+00	
			         1.38167	1.00000e+00	
			         1.38333	1.00000e+00	
			         1.38500	0.00000e+00	
			         1.38667	0.00000e+00	
			         1.38833	0.00000e+00	
			         1.39000	-1.00000e+00	
			         1.39167	-1.00000e+00	
			         1.39333	-2.00000e+00	
			         1.39500	-2.00000e+00	
			         1.39667	-3.00000e+00	
			         1.39833	-4.00000e+00	
			         1.40000	-4.00000e+00	
			         1.40167	-4.00000e+00	
			         1.40333	-5.00000e+00	
			         1.40500	-5.00000e+00	
			         1.40667	-5.00000e+00	
			         1.40833	-5.00000e+00	
			         1.41000	-6.00000e+00	
			         1.41167	-6.00000e+00	
			         1.41333	-6.00000e+00	
			         1.41500	-7.00000e+00	
			         1.41667	-7.00000e+00	
			         1.41833	-8.00000e+00	
			         1.42000	-8.00000e+00	
			         1.42167	-9.00000e+00	
			         1.42333	-9.00000e+00	
			         1.42500	-1.00000e+01	
			         1.42667	-1.10000e+01	
			         1.42833	-1.10000e+01	
			         1.43000	-1.20000e+01	
			         1.43167	-1.20000e+01	
			         1.43333	-1.20000e+01	
			         1.43500	-1.20000e+01	
			         1.43667	-1.20000e+01	
			         1.43833	-1.30000e+01	
			         1.44000	-1.30000e+01	
			         1.44167	-1.30000e+01	
			         1.44333	-1.30000e+01	
			         1.44500	-1.30000e+01	
			         1.44667	-1.30000e+01	
			         1.44833	-1.30000e+01	
			         1.45000	-1.20000e+01	
			         1.45167	-1.20000e+01	
			         1.45333	-1.20000e+01	
			         1.45500	-1.20000e+01	
			         1.45667	-1.20000e+01	
			         1.45833	-1.10000e+01	
			         1.46000	-1.10000e+01	
			         1.46167	-1.10000e+01	
			         1.46333	-1.00000e+01	
			         1.46500	-1.00000e+01	
			         1.46667	-9.00000e+00	
			         1.46833	-8.00000e+00	
			         1.47000	-7.00000e+00	
			         1.47167	-7.00000e+00	
			         1.47333	-5.00000e+00	
			         1.47500	-4.00000e+00	
			         1.47667	-3.00000e+00	
			         1.47833	-1.00000e+00	
			         1.48000	0.00000e+00	
			         1.48167	2.00000e+00	
			         1.48333	4.00000e+00	
			         1.48500	6.00000e+00	
			         1.48667	8.00000e+00	
			         1.48833	1.00000e+01	
			         1.49000	1.20000e+01	
			         1.49167	1.40000e+01	
			         1.49333	1.60000e+01	
			         1.49500	1.80000e+01	
			         1.49667	2.00000e+01	
			         1.49833	2.10000e+01	
			         1.50000	2.30000e+01	
			         1.50167	2.50000e+01	
			         1.50333	2.70000e+01	
			         1.50500	2.90000e+01	
			         1.50667	3.10000e+01	
			         1.50833	3.30000e+01	
			         1.51000	3.40000e+01	
			         1.51167	3.60000e+01	
			         1.51333	3.70000e+01	
			         1.51500	3.80000e+01	
			         1.51667	3.80000e+01	
			         1.51833	3.80000e+01	
			         1.52000	3.80000e+01	
			         1.52167	3.70000e+01	
			         1.52333	3.60000e+01	
			         1.52500	3.50000e+01	
			         1.52667	3.30000e+01	
			         1.52833	3.00000e+01	
			         1.53000	2.80000e+01	
			         1.53167	2.50000e+01	
			         1.53333	2.20000e+01	
			         1.53500	1.90000e+01	
			         1.53667	1.60000e+01	
			         1.53833	1.20000e+01	
			         1.54000	9.00000e+00	
			         1.54167	6.00000e+00	
			         1.54333	3.00000e+00	
			         1.54500	1.00000e+00	
			         1.54667	-2.00000e+00	
			         1.54833	-4.00000e+00	
			         1.55000	-6.00000e+00	
			         1.55167	-8.00000e+00	
			         1.55333	-9.00000e+00	
			         1.55500	-1.10000e+01	
			         1.55667	-1.20000e+01	
			         1.55833	-1.30000e+01	
			         1.56000	-1.30000e+01	
			         1.56167	-1.40000e+01	
			         1.56333	-1.50000e+01	
			         1.56500	-1.50000e+01	
			         1.56667	-1.50000e+01	
			         1.56833	-1.50000e+01	
			         1.57000	-1.60000e+01	
			         1.57167	-1.60000e+01	
			         1.57333	-1.60000e+01	
			         1.57500	-1.60000e+01	
			         1.57667	-1.60000e+01	
			         1.57833	-1.60000e+01	
			         1.58000	-1.50000e+01	
			         1.58167	-1.50000e+01	
			         1.58333	-1.50000e+01	
			         1.58500	-1.40000e+01	
			         1.58667	-1.40000e+01	
			         1.58833	-1.40000e+01	
			         1.59000	-1.30000e+01	
			         1.59167	-1.30000e+01	
			         1.59333	-1.20000e+01	
			         1.59500	-1.10000e+01	
			         1.59667	-1.10000e+01	
			         1.59833	-1.10000e+01	
			         1.60000	-1.10000e+01	
			         1.60167	-1.10000e+01	
			         1.60333	-1.10000e+01	
			         1.60500	-1.20000e+01	
			         1.60667	-1.20000e+01	
			         1.60833	-1.30000e+01	
			         1.61000	-1.40000e+01	
			         1.61167	-1.50000e+01	
			         1.61333	-1.50000e+01	
			         1.61500	-1.60000e+01	
			         1.61667	-1.60000e+01	
			         1.61833	-1.60000e+01	
			         1.62000	-1.60000e+01	
			         1.62167	-1.50000e+01	
			         1.62333	-1.40000e+01	
			         1.62500	-1.40000e+01	
			         1.62667	-1.30000e+01	
			         1.62833	-1.20000e+01	
			         1.63000	-1.10000e+01	
			         1.63167	-1.00000e+01	
			         1.63333	-9.00000e+00	
			         1.63500	-9.00000e+00	
			         1.63667	-8.00000e+00	
			         1.63833	-8.00000e+00	
			         1.64000	-8.00000e+00	
			         1.64167	-8.00000e+00	
			         1.64333	-8.00000e+00	
			         1.64500	-8.00000e+00	
			         1.64667	-8.00000e+00	
			         1.64833	-8.00000e+00	
			         1.65000	-8.00000e+00	
			         1.65167	-8.00000e+00	
			         1.65333	-7.00000e+00	
			         1.65500	-7.00000e+00	
			         1.65667	-7.00000e+00	
			         1.65833	-7.00000e+00	
			         1.66000	-7.00000e+00	
			         1.66167	-7.00000e+00	
			         1.66333	-7.00000e+00	
			         1.66500	-8.00000e+00	
			         1.66667	-8.00000e+00	
			         1.66833	-8.00000e+00	
			         1.67000	-8.00000e+00	
			         1.67167	-7.00000e+00	
			         1.67333	-6.00000e+00	
			         1.67500	-5.00000e+00	
			         1.67667	-3.00000e+00	
			         1.67833	-1.00000e+00	
			         1.68000	2.00000e+00	
			         1.68167	5.00000e+00	
			         1.68333	9.00000e+00	
			         1.68500	1.30000e+01	
			         1.68667	1.80000e+01	
			         1.68833	2.30000e+01	
			         1.69000	2.90000e+01	
			         1.69167	3.50000e+01	
			         1.69333	4.10000e+01	
			         1.69500	4.90000e+01	
			         1.69667	5.80000e+01	
			         1.69833	6.80000e+01	
			         1.70000	7.80000e+01	
			         1.70167	8.90000e+01	
			         1.70333	1.00000e+02	
			         1.70500	1.11000e+02	
			         1.70667	1.21000e+02	
			         1.70833	1.29000e+02	
			         1.71000	1.36000e+02	
			         1.71167	1.40000e+02	
			         1.71333	1.40000e+02	
			         1.71500	1.37000e+02	
			         1.71667	1.29000e+02	
			         1.71833	1.18000e+02	
			         1.72000	1.03000e+02	
			         1.72167	8.50000e+01	
			         1.72333	6.40000e+01	
			         1.72500	4.00000e+01	
			         1.72667	1.50000e+01	
			         1.72833	-1.10000e+01	
			         1.73000	-3.80000e+01	
			         1.73167	-6.30000e+01	
			         1.73333	-8.60000e+01	
			         1.73500	-1.07000e+02	
			         1.73667	-1.25000e+02	
			         1.73833	-1.40000e+02	
			         1.74000	-1.51000e+02	
			         1.74167	-1.58000e+02	
			         1.74333	-1.61000e+02	
			         1.74500	-1.60000e+02	
			         1.74667	-1.56000e+02	
			         1.74833	-1.49000e+02	
			         1.75000	-1.40000e+02	
			         1.75167	-1.28000e+02	
			         1.75333	-1.15000e+02	
			         1.75500	-1.01000e+02	
			         1.75667	-8.70000e+01	
			         1.75833	-7.40000e+01	
			         1.76000	-6.10000e+01	
			         1.76167	-4.90000e+01	
			         1.76333	-3.80000e+01	
			         1.76500	-2.90000e+01	
			         1.76667	-2.10000e+01	
			         1.76833	-1.40000e+01	
			         1.77000	-8.00000e+00	
			         1.77167	-4.00000e+00	
			         1.77333	0.00000e+00	
			         1.77500	4.00000e+00	
			         1.77667	6.00000e+00	
			         1.77833	9.00000e+00	
			         1.78000	1.10000e+01	
			         1.78167	1.20000e+01	
			         1.78333	1.30000e+01	
			         1.78500	1.40000e+01	
			         1.78667	1.50000e+01	
			         1.78833	1.60000e+01	
			         1.79000	1.60000e+01	
			         1.79167	1.60000e+01	
			         1.79333	1.60000e+01	
			         1.79500	1.60000e+01	
			         1.79667	1.60000e+01	
			         1.79833	1.50000e+01	
			         1.80000	1.50000e+01	
			         1.80167	1.40000e+01	
			         1.80333	1.40000e+01	
			         1.80500	1.40000e+01	
			         1.80667	1.40000e+01	
			         1.80833	1.40000e+01	
			         1.81000	1.40000e+01	
			         1.81167	1.40000e+01	
			         1.81333	1.40000e+01	
			         1.81500	1.40000e+01	
			         1.81667	1.50000e+01	
			         1.81833	1.50000e+01	
			         1.82000	1.50000e+01	
			         1.82167	1.50000e+01	
			         1.82333	1.50000e+01	
			         1.82500	1.50000e+01	
			         1.82667	1.50000e+01	
			         1.82833	1.50000e+01	
			         1.83000	1.40000e+01	
			         1.83167	1.30000e+01	
			         1.83333	1.20000e+01	
			         1.83500	1.20000e+01	
			         1.83667	1.10000e+01	
			         1.83833	1.00000e+01	
			         1.84000	9.00000e+00	
			         1.84167	8.00000e+00	
			         1.84333	8.00000e+00	
			         1.84500	8.00000e+00	
			         1.84667	7.00000e+00	
			         1.84833	7.00000e+00	
			         1.85000	8.00000e+00	
			         1.85167	8.00000e+00	
			         1.85333	9.00000e+00	
			         1.85500	1.00000e+01	
			         1.85667	1.10000e+01	
			         1.85833	1.20000e+01	
			         1.86000	1.30000e+01	
			         1.86167	1.40000e+01	
			         1.86333	1.40000e+01	
			         1.86500	1.50000e+01	
			         1.86667	1.60000e+01	
			         1.86833	1.60000e+01	
			         1.87000	1.60000e+01	
			         1.87167	1.60000e+01	
			         1.87333	1.60000e+01	
			         1.87500	1.60000e+01	
			         1.87667	1.60000e+01	
			         1.87833	1.60000e+01	
			         1.88000	1.60000e+01	
			         1.88167	1.60000e+01	
			         1.88333	1.60000e+01	
			         1.88500	1.60000e+01	
			         1.88667	1.60000e+01	
			         1.88833	1.70000e+01	
			         1.89000	1.70000e+01	
			         1.89167	1.80000e+01	
			         1.89333	1.90000e+01	
			         1.89500	2.00000e+01	
			         1.89667	2.20000e+01	
			         1.89833	2.30000e+01	
			         1.90000	2.50000e+01	
			         1.90167	2.60000e+01	
			         1.90333	2.80000e+01	
			         1.90500	2.90000e+01	
			         1.90667	3.10000e+01	
			         1.90833	3.20000e+01	
			         1.91000	3.30000e+01	
			         1.91167	3.50000e+01	
			         1.91333	3.50000e+01	
			         1.91500	3.60000e+01	
			         1.91667	3.70000e+01	
			         1.91833	3.70000e+01	
			         1.92000	3.80000e+01	
			         1.92167	3.80000e+01	
			         1.92333	3.90000e+01	
			         1.92500	3.90000e+01	
			         1.92667	4.00000e+01	
			         1.92833	4.10000e+01	
			         1.93000	4.20000e+01	
			         1.93167	4.30000e+01	
			         1.93333	4.50000e+01	
			         1.93500	4.60000e+01	
			         1.93667	4.80000e+01	
			         1.93833	5.10000e+01	
			         1.94000	5.30000e+01	
			         1.94167	5.50000e+01	
			         1.94333	5.80000e+01	
			         1.94500	6.10000e+01	
			         1.94667	6.30000e+01	
			         1.94833	6.60000e+01	
			         1.95000	6.80000e+01	
			         1.95167	7.00000e+01	
			         1.95333	7.30000e+01	
			         1.95500	7.50000e+01	
			         1.95667	7.70000e+01	
			         1.95833	7.90000e+01	
			         1.96000	8.00000e+01	
			         1.96167	8.20000e+01	
			         1.96333	8.30000e+01	
			         1.96500	8.40000e+01	
			         1.96667	8.40000e+01	
			         1.96833	8.40000e+01	
			         1.97000	8.40000e+01	
			         1.97167	8.40000e+01	
			         1.97333	8.30000e+01	
			         1.97500	8.30000e+01	
			         1.97667	8.20000e+01	
			         1.97833	8.20000e+01	
			         1.98000	8.10000e+01	
			         1.98167	8.10000e+01	
			         1.98333	8.00000e+01	
			         1.98500	8.00000e+01	
			         1.98667	7.90000e+01	
			         1.98833	7.90000e+01	
			         1.99000	7.80000e+01	
			         1.99167	7.70000e+01	
			         1.99333	7.50000e+01	
			         1.99500	7.40000e+01	
			         1.99667	7.10000e+01	
			         1.99833	6.90000e+01	
			         2.00000	6.60000e+01	
			         2.00167	6.30000e+01	
			         2.00333	5.90000e+01	
			         2.00500	5.50000e+01	
			         2.00667	5.20000e+01	
			         2.00833	4.80000e+01	
			         2.01000	4.40000e+01	
			         2.01167	4.00000e+01	
			         2.01333	3.60000e+01	
			         2.01500	3.20000e+01	
			         2.01667	2.80000e+01	
			         2.01833	2.40000e+01	
			         2.02000	2.00000e+01	
			         2.02167	1.60000e+01	
			         2.02333	1.20000e+01	
			         2.02500	8.00000e+00	
			         2.02667	5.00000e+00	
			         2.02833	1.00000e+00	
			         2.03000	-2.00000e+00	
			         2.03167	-6.00000e+00	
			         2.03333	-9.00000e+00	
			         2.03500	-1.20000e+01	
			         2.03667	-1.50000e+01	
			         2.03833	-1.80000e+01	
			         2.04000	-2.10000e+01	
			         2.04167	-2.30000e+01	
			         2.04333	-2.60000e+01	
			         2.04500	-2.80000e+01	
			         2.04667	-3.10000e+01	
			         2.04833	-3.30000e+01	
			         2.05000	-3.50000e+01	
			         2.05167	-3.70000e+01	
			         2.05333	-3.90000e+01	
			         2.05500	-4.00000e+01	
			         2.05667	-4.20000e+01	
			         2.05833	-4.30000e+01	
			         2.06000	-4.40000e+01	
			         2.06167	-4.40000e+01	
			         2.06333	-4.50000e+01	
			         2.06500	-4.50000e+01	
			         2.06667	-4.50000e+01	
			         2.06833	-4.50000e+01	
			         2.07000	-4.50000e+01	
			         2.07167	-4.50000e+01	
			         2.07333	-4.50000e+01	
			         2.07500	-4.60000e+01	
			         2.07667	-4.60000e+01	
			         2.07833	-4.60000e+01	
			         2.08000	-4.70000e+01	
			         2.08167	-4.70000e+01	
			         2.08333	-4.70000e+01	
			         2.08500	-4.70000e+01	
			         2.08667	-4.60000e+01	
			         2.08833	-4.60000e+01	
			         2.09000	-4.50000e+01	
			         2.09167	-4.40000e+01	
			         2.09333	-4.30000e+01	
			         2.09500	-4.20000e+01	
			         2.09667	-4.10000e+01	
			         2.09833	-4.00000e+01	
			         2.10000	-3.90000e+01	
			         2.10167	-3.80000e+01	
			         2.10333	-3.70000e+01	
			         2.10500	-3.60000e+01	
			         2.10667	-3.60000e+01	
			         2.10833	-3.50000e+01	
			         2.11000	-3.40000e+01	
			         2.11167	-3.30000e+01	
			         2.11333	-3.20000e+01	
			         2.11500	-3.10000e+01	
			         2.11667	-3.00000e+01	
			         2.11833	-2.90000e+01	
			         2.12000	-2.80000e+01	
			         2.12167	-2.70000e+01	
			         2.12333	-2.60000e+01	
			         2.12500	-2.50000e+01	
			         2.12667	-2.50000e+01	
			         2.12833	-2.40000e+01	
			         2.13000	-2.40000e+01	
			         2.13167	-2.30000e+01	
			         2.13333	-2.30000e+01	
			         2.13500	-2.20000e+01	
			         2.13667	-2.20000e+01	
			         2.13833	-2.10000e+01	
			         2.14000	-2.10000e+01	
			         2.14167	-2.00000e+01	
			         2.14333	-1.90000e+01	
			         2.14500	-1.80000e+01	
			         2.14667	-1.70000e+01	
			         2.14833	-1.60000e+01	
			         2.15000	-1.50000e+01	
			         2.15167	-1.40000e+01	
			         2.15333	-1.30000e+01	
			         2.15500	-1.20000e+01	
			         2.15667	-1.10000e+01	
			         2.15833	-1.00000e+01	
			         2.16000	-9.00000e+00	
			         2.16167	-8.00000e+00	
			         2.16333	-7.00000e+00	
			         2.16500	-7.00000e+00	
			         2.16667	-6.00000e+00	
			         2.16833	-5.00000e+00	
			         2.17000	-5.00000e+00	
			         2.17167	-4.00000e+00	
			         2.17333	-3.00000e+00	
			         2.17500	-2.00000e+00	
			         2.17667	-1.00000e+00	
			         2.17833	0.00000e+00	
			         2.18000	1.00000e+00	
			         2.18167	3.00000e+00	
			         2.18333	4.00000e+00	
			         2.18500	5.00000e+00	
			         2.18667	6.00000e+00	
			         2.18833	7.00000e+00	
			         2.19000	7.00000e+00	
			         2.19167	8.00000e+00	
			         2.19333	9.00000e+00	
			         2.19500	9.00000e+00	
			         2.19667	9.00000e+00	
			         2.19833	9.00000e+00	
			         2.20000	1.00000e+01	
			         2.20167	1.00000e+01	
			         2.20333	1.00000e+01	
			         2.20500	1.00000e+01	
			         2.20667	1.10000e+01	
			         2.20833	1.20000e+01	
			         2.21000	1.20000e+01	
			         2.21167	1.30000e+01	
			         2.21333	1.40000e+01	
			         2.21500	1.50000e+01	
			         2.21667	1.50000e+01	
			         2.21833	1.50000e+01	
			         2.22000	1.50000e+01	
			         2.22167	1.50000e+01	
			         2.22333	1.50000e+01	
			         2.22500	1.40000e+01	
			         2.22667	1.30000e+01	
			         2.22833	1.20000e+01	
			         2.23000	1.10000e+01	
			         2.23167	9.00000e+00	
			         2.23333	8.00000e+00	
			         2.23500	7.00000e+00	
			         2.23667	6.00000e+00	
			         2.23833	5.00000e+00	
			         2.24000	4.00000e+00	
			         2.24167	4.00000e+00	
			         2.24333	3.00000e+00	
			         2.24500	3.00000e+00	
			         2.24667	2.00000e+00	
			         2.24833	2.00000e+00	
			         2.25000	2.00000e+00	
			         2.25167	1.00000e+00	
			         2.25333	1.00000e+00	
			         2.25500	0.00000e+00	
			         2.25667	0.00000e+00	
			         2.25833	-1.00000e+00	
			         2.26000	-1.00000e+00	
			         2.26167	-1.00000e+00	
			         2.26333	-1.00000e+00	
			         2.26500	-2.00000e+00	
			         2.26667	-2.00000e+00	
			         2.26833	-2.00000e+00	
			         2.27000	-2.00000e+00	
			         2.27167	-2.00000e+00	
			         2.27333	-2.00000e+00	
			         2.27500	-2.00000e+00	
			         2.27667	-2.00000e+00	
			         2.27833	-2.00000e+00	
			         2.28000	-2.00000e+00	
			         2.28167	-2.00000e+00	
			         2.28333	-2.00000e+00	
			         2.28500	-2.00000e+00	
			         2.28667	-2.00000e+00	
			         2.28833	-2.00000e+00	
			         2.29000	-3.00000e+00	
			         2.29167	-3.00000e+00	
			         2.29333	-3.00000e+00	
			         2.29500	-2.00000e+00	
			         2.29667	-2.00000e+00	
			         2.29833	-2.00000e+00	
			         2.30000	-1.00000e+00	
			         2.30167	0.00000e+00	
			         2.30333	0.00000e+00	
			         2.30500	1.00000e+00	
			         2.30667	1.00000e+00	
			         2.30833	1.00000e+00	
			         2.31000	2.00000e+00	
			         2.31167	2.00000e+00	
			         2.31333	2.00000e+00	
			         2.31500	2.00000e+00	
			         2.31667	2.00000e+00	
			         2.31833	2.00000e+00	
			         2.32000	2.00000e+00	
			         2.32167	1.00000e+00	
			         2.32333	1.00000e+00	
			         2.32500	1.00000e+00	
			         2.32667	2.00000e+00	
			         2.32833	2.00000e+00	
			         2.33000	3.00000e+00	
			         2.33167	3.00000e+00	
			         2.33333	4.00000e+00	
			         2.33500	5.00000e+00	
			         2.33667	7.00000e+00	
			         2.33833	8.00000e+00	
			         2.34000	1.00000e+01	
			         2.34167	1.20000e+01	
			         2.34333	1.30000e+01	
			         2.34500	1.50000e+01	
			         2.34667	1.60000e+01	
			         2.34833	1.80000e+01	
			         2.35000	1.90000e+01	
			         2.35167	2.10000e+01	
			         2.35333	2.20000e+01	
			         2.35500	2.30000e+01	
			         2.35667	2.40000e+01	
			         2.35833	2.60000e+01	
			         2.36000	2.70000e+01	
			         2.36167	2.80000e+01	
			         2.36333	3.00000e+01	
			         2.36500	3.10000e+01	
			         2.36667	3.20000e+01	
			         2.36833	3.30000e+01	
			         2.37000	3.30000e+01	
			         2.37167	3.30000e+01	
			         2.37333	3.30000e+01	
			         2.37500	3.20000e+01	
			         2.37667	3.00000e+01	
			         2.37833	2.80000e+01	
			         2.38000	2.50000e+01	
			         2.38167	2.10000e+01	
			         2.38333	1.70000e+01	
			         2.38500	1.30000e+01	
			         2.38667	9.00000e+00	
			         2.38833	6.00000e+00	
			         2.39000	2.00000e+00	
			         2.39167	-1.00000e+00	
			         2.39333	-4.00000e+00	
			         2.39500	-6.00000e+00	
			         2.39667	-8.00000e+00	
			         2.39833	-9.00000e+00	
			         2.40000	-1.00000e+01	
			         2.40167	-1.00000e+01	
			         2.40333	-1.00000e+01	
			         2.40500	-9.00000e+00	
			         2.40667	-8.00000e+00	
			         2.40833	-8.00000e+00	
			         2.41000	-7.00000e+00	
			         2.41167	-6.00000e+00	
			         2.41333	-5.00000e+00	
			         2.41500	-4.00000e+00	
			         2.41667	-4.00000e+00	
			         2.41833	-3.00000e+00	
			         2.42000	-3.00000e+00	
			         2.42167	-3.00000e+00	
			         2.42333	-3.00000e+00	
			         2.42500	-4.00000e+00	
			         2.42667	-5.00000e+00	
			         2.42833	-5.00000e+00	
			         2.43000	-6.00000e+00	
			         2.43167	-7.00000e+00	
			         2.43333	-8.00000e+00	
			         2.43500	-9.00000e+00	
			         2.43667	-1.00000e+01	
			         2.43833	-1.10000e+01	
			         2.44000	-1.20000e+01	
			         2.44167	-1.30000e+01	
			         2.44333	-1.30000e+01	
			         2.44500	-1.40000e+01	
			         2.44667	-1.40000e+01	
			         2.44833	-1.40000e+01	
			         2.45000	-1.40000e+01	
			         2.45167	-1.40000e+01	
			         2.45333	-1.40000e+01	
			         2.45500	-1.30000e+01	
			         2.45667	-1.30000e+01	
			         2.45833	-1.20000e+01	
			         2.46000	-1.20000e+01	
			         2.46167	-1.10000e+01	
			         2.46333	-1.10000e+01	
			         2.46500	-1.00000e+01	
			         2.46667	-1.00000e+01	
			         2.46833	-9.00000e+00	
			         2.47000	-9.00000e+00	
			         2.47167	-8.00000e+00	
			         2.47333	-8.00000e+00	
			         2.47500	-8.00000e+00	
			         2.47667	-7.00000e+00	
			         2.47833	-7.00000e+00	
			         2.48000	-7.00000e+00	
			         2.48167	-7.00000e+00	
			         2.48333	-7.00000e+00	
			         2.48500	-7.00000e+00	
			         2.48667	-8.00000e+00	
			         2.48833	-8.00000e+00	
			         2.49000	-8.00000e+00	
			         2.49167	-9.00000e+00	
			         2.49333	-9.00000e+00	
			         2.49500	-9.00000e+00	
			         2.49667	-9.00000e+00	
			         2.49833	-9.00000e+00	
			         2.50000	-9.00000e+00	
			         2.50167	-8.00000e+00	
			         2.50333	-8.00000e+00	
			         2.50500	-6.00000e+00	
			         2.50667	-5.00000e+00	
			         2.50833	-4.00000e+00	
			         2.51000	-2.00000e+00	
			         2.51167	-1.00000e+00	
			         2.51333	0.00000e+00	
			         2.51500	1.00000e+00	
			         2.51667	2.00000e+00	
			         2.51833	3.00000e+00	
			         2.52000	3.00000e+00	
			         2.52167	4.00000e+00	
			         2.52333	5.00000e+00	
			         2.52500	5.00000e+00	
			         2.52667	6.00000e+00	
			         2.52833	7.00000e+00	
			         2.53000	8.00000e+00	
			         2.53167	9.00000e+00	
			         2.53333	1.10000e+01	
			         2.53500	1.30000e+01	
			         2.53667	1.60000e+01	
			         2.53833	1.90000e+01	
			         2.54000	2.30000e+01	
			         2.54167	2.70000e+01	
			         2.54333	3.20000e+01	
			         2.54500	3.70000e+01	
			         2.54667	4.30000e+01	
			         2.54833	4.90000e+01	
			         2.55000	5.70000e+01	
			         2.55167	6.60000e+01	
			         2.55333	7.50000e+01	
			         2.55500	8.50000e+01	
			         2.55667	9.50000e+01	
			         2.55833	1.05000e+02	
			         2.56000	1.14000e+02	
			         2.56167	1.21000e+02	
			         2.56333	1.27000e+02	
			         2.56500	1.31000e+02	
			         2.56667	1.32000e+02	
			         2.56833	1.29000e+02	
			         2.57000	1.22000e+02	
			         2.57167	1.12000e+02	
			         2.57333	9.80000e+01	
			         2.57500	8.10000e+01	
			         2.57667	6.10000e+01	
			         2.57833	3.80000e+01	
			         2.58000	1.40000e+01	
			         2.58167	-1.00000e+01	
			         2.58333	-3.50000e+01	
			         2.58500	-6.00000e+01	
			         2.58667	-8.20000e+01	
			         2.58833	-1.03000e+02	
			         2.59000	-1.20000e+02	
			         2.59167	-1.34000e+02	
			         2.59333	-1.45000e+02	
			         2.59500	-1.53000e+02	
			         2.59667	-1.57000e+02	
			         2.59833	-1.57000e+02	
			         2.60000	-1.54000e+02	
			         2.60167	-1.48000e+02	
			         2.60333	-1.40000e+02	
			         2.60500	-1.30000e+02	
			         2.60667	-1.18000e+02	
			         2.60833	-1.05000e+02	
			         2.61000	-9.20000e+01	
			         2.61167	-7.90000e+01	
			         2.61333	-6.60000e+01	
			         2.61500	-5.40000e+01	
			         2.61667	-4.30000e+01	
			         2.61833	-3.30000e+01	
			         2.62000	-2.50000e+01	
			         2.62167	-1.70000e+01	
			         2.62333	-1.10000e+01	
			         2.62500	-6.00000e+00	
			         2.62667	-2.00000e+00	
			         2.62833	1.00000e+00	
			         2.63000	4.00000e+00	
			         2.63167	5.00000e+00	
			         2.63333	6.00000e+00	
			         2.63500	7.00000e+00	
			         2.63667	7.00000e+00	
			         2.63833	6.00000e+00	
			         2.64000	6.00000e+00	
			         2.64167	5.00000e+00	
			         2.64333	5.00000e+00	
			         2.64500	4.00000e+00	
			         2.64667	4.00000e+00	
			         2.64833	4.00000e+00	
			         2.65000	4.00000e+00	
			         2.65167	4.00000e+00	
			         2.65333	4.00000e+00	
			         2.65500	5.00000e+00	
			         2.65667	5.00000e+00	
			         2.65833	6.00000e+00	
