Velocity (TVI), in cm/s

Time (s) :	Trace 1 : 		Ecg : 		
0.00803   	3.13077e+00		         0.00000	-6.00000e+01	
0.01712   	2.18778e+00		         0.00167	-1.02000e+02	
0.02625   	1.96195e+00		         0.00333	-1.43000e+02	
0.03537   	1.83547e+00		         0.00500	-1.80000e+02	
0.04478   	3.00745e+00		         0.00667	-2.12000e+02	
0.05388   	3.81783e+00		         0.00833	-2.38000e+02	
0.06300   	4.43768e+00		         0.01000	-2.58000e+02	
0.07213   	4.84401e+00		         0.01167	-2.70000e+02	
0.08153   	4.99840e+00		         0.01333	-2.75000e+02	
0.09064   	5.10129e+00		         0.01500	-2.73000e+02	
0.09976   	5.11730e+00		         0.01667	-2.65000e+02	
0.10888   	5.05437e+00		         0.01833	-2.51000e+02	
0.11830   	4.88490e+00		         0.02000	-2.32000e+02	
0.12740   	4.67303e+00		         0.02167	-2.10000e+02	
0.13652   	4.45520e+00		         0.02333	-1.86000e+02	
0.14564   	4.24047e+00		         0.02500	-1.60000e+02	
0.15505   	4.08500e+00		         0.02667	-1.35000e+02	
0.16415   	4.01693e+00		         0.02833	-1.11000e+02	
0.17328   	4.07783e+00		         0.03000	-8.80000e+01	
0.18240   	4.16128e+00		         0.03167	-6.70000e+01	
0.19181   	4.16989e+00		         0.03333	-4.80000e+01	
0.20091   	4.13996e+00		         0.03500	-3.10000e+01	
0.21003   	4.04247e+00		         0.03667	-1.70000e+01	
0.21919   	3.90893e+00		         0.03833	-5.00000e+00	
0.22856   	3.79955e+00		         0.04000	5.00000e+00	
0.23767   	3.53120e+00		         0.04167	1.20000e+01	
0.24679   	3.30327e+00		         0.04333	1.80000e+01	
0.25591   	3.00449e+00		         0.04500	2.30000e+01	
0.26533   	2.80522e+00		         0.04667	2.60000e+01	
0.27443   	2.60921e+00		         0.04833	2.80000e+01	
0.28355   	2.38595e+00		         0.05000	3.00000e+01	
0.29267   	2.25090e+00		         0.05167	3.10000e+01	
0.30220   	2.05507e+00		         0.05333	3.10000e+01	
0.31119   	1.84313e+00		         0.05500	3.10000e+01	
0.32031   	1.53500e+00		         0.05667	3.10000e+01	
0.32943   	1.15682e+00		         0.05833	3.00000e+01	
0.33883   	5.34976e-01		         0.06000	3.00000e+01	
0.34794   	-3.41356e-01		         0.06167	2.90000e+01	
0.35706   	-1.26902e+00		         0.06333	2.80000e+01	
0.36619   	-1.49316e+00		         0.06500	2.80000e+01	
0.37560   	-1.23342e+00		         0.06667	2.70000e+01	
0.38470   	-8.48611e-01		         0.06833	2.70000e+01	
0.39382   	-8.81445e-01		         0.07000	2.60000e+01	
0.40294   	-1.06957e+00		         0.07167	2.60000e+01	
0.41236   	-1.30532e+00		         0.07333	2.50000e+01	
0.42146   	-1.77386e+00		         0.07500	2.50000e+01	
0.43058   	-2.38587e+00		         0.07667	2.50000e+01	
0.43970   	-3.15180e+00		         0.07833	2.40000e+01	
0.44911   	-3.79495e+00		         0.08000	2.40000e+01	
0.45822   	-4.46075e+00		         0.08167	2.40000e+01	
0.46734   	-4.68251e+00		         0.08333	2.40000e+01	
0.47646   	-4.72687e+00		         0.08500	2.40000e+01	
0.48587   	-4.47156e+00		         0.08667	2.40000e+01	
0.49497   	-4.30131e+00		         0.08833	2.40000e+01	
0.50409   	-4.04279e+00		         0.09000	2.40000e+01	
0.51322   	-3.76354e+00		         0.09167	2.40000e+01	
0.52264   	-3.45332e+00		         0.09333	2.40000e+01	
0.53173   	-3.17959e+00		         0.09500	2.40000e+01	
0.54085   	-2.84438e+00		         0.09667	2.40000e+01	
0.54997   	-2.56188e+00		         0.09833	2.40000e+01	
0.55939   	-2.25800e+00		         0.10000	2.40000e+01	
0.56849   	-1.96593e+00		         0.10167	2.40000e+01	
0.57761   	-1.67598e+00		         0.10333	2.40000e+01	
0.58673   	-1.37135e+00		         0.10500	2.40000e+01	
0.59613   	-1.08288e+00		         0.10667	2.30000e+01	
0.60525   	-7.82598e-01		         0.10833	2.30000e+01	
0.61437   	-5.55029e-01		         0.11000	2.30000e+01	
0.62349   	-4.15803e-01		         0.11167	2.20000e+01	
0.63289   	-2.98123e-01		         0.11333	2.20000e+01	
0.64200   	-2.12364e-01		         0.11500	2.10000e+01	
0.65113   	-1.72577e-01		         0.11667	2.10000e+01	
0.66025   	-1.59133e-01		         0.11833	2.00000e+01	
0.66965   	-1.66058e-01		         0.12000	2.00000e+01	
0.67876   	-1.78608e-01		         0.12167	1.90000e+01	
0.68789   	-2.55589e-01		         0.12333	1.80000e+01	
0.69700   	-3.33612e-01		         0.12500	1.80000e+01	
0.70642   	-4.41263e-01		         0.12667	1.70000e+01	
0.71552   	-4.67020e-01		         0.12833	1.70000e+01	
0.72464   	-4.84881e-01		         0.13000	1.60000e+01	
0.73376   	-4.61962e-01		         0.13167	1.60000e+01	
0.74317   	-4.85630e-01		         0.13333	1.60000e+01	
0.75227   	-5.03025e-01		         0.13500	1.50000e+01	
0.76140   	-5.10624e-01		         0.13667	1.50000e+01	
0.77052   	-5.09624e-01		         0.13833	1.50000e+01	
0.77994   	-7.18418e-01		         0.14000	1.50000e+01	
0.78903   	-1.26024e+00		         0.14167	1.60000e+01	
0.79815   	-2.31458e+00		         0.14333	1.60000e+01	
0.80728   	-3.87639e+00		         0.14500	1.60000e+01	
0.81685   	-5.76896e+00		         0.14667	1.70000e+01	
0.82579   	-7.17011e+00		         0.14833	1.80000e+01	
0.83491   	-7.69463e+00		         0.15000	1.80000e+01	
0.84403   	-7.24594e+00		         0.15167	1.90000e+01	
0.85344   	-6.15675e+00		         0.15333	2.00000e+01	
0.86255   	-4.82798e+00		         0.15500	2.10000e+01	
0.87167   	-3.58977e+00		         0.15667	2.20000e+01	
0.88079   	-2.97781e+00		         0.15833	2.40000e+01	
0.89019   	-2.69453e+00		         0.16000	2.50000e+01	
0.89930   	-2.42334e+00		         0.16167	2.60000e+01	
0.90843   	-1.95425e+00		         0.16333	2.80000e+01	
0.91755   	-1.30573e+00		         0.16500	2.90000e+01	
0.92695   	-7.74600e-01		         0.16667	3.00000e+01	
0.93606   	-7.89317e-02		         0.16833	3.20000e+01	
0.94518   	1.12039e+00		         0.17000	3.30000e+01	
0.95431   	2.32414e+00		         0.17167	3.50000e+01	
0.96372   	3.02816e+00		         0.17333	3.70000e+01	
0.97282   	2.70945e+00		         0.17500	3.80000e+01	
0.98194   	2.60654e+00		         0.17667	4.00000e+01	
0.99106   	3.04864e+00		         0.17833	4.20000e+01	
1.00047   	4.04731e+00		         0.18000	4.40000e+01	
1.00958   	4.83596e+00		         0.18167	4.60000e+01	
1.01870   	5.14511e+00		         0.18333	4.90000e+01	
1.02782   	5.26697e+00		         0.18500	5.10000e+01	
1.03723   	5.33261e+00		         0.18667	5.40000e+01	
1.04633   	5.56853e+00		         0.18833	5.60000e+01	
1.05546   	5.63148e+00		         0.19000	5.90000e+01	
1.06458   	5.52796e+00		         0.19167	6.10000e+01	
1.07399   	5.28397e+00		         0.19333	6.40000e+01	
1.08309   	4.96588e+00		         0.19500	6.70000e+01	
1.09221   	4.64542e+00		         0.19667	6.90000e+01	
1.10134   	4.44888e+00		         0.19833	7.20000e+01	
1.11074   	4.50548e+00		         0.20000	7.50000e+01	
1.11985   	4.62190e+00		         0.20167	7.70000e+01	
1.12897   	4.71184e+00		         0.20333	8.00000e+01	
1.13809   	4.62875e+00		         0.20500	8.30000e+01	
1.14750   	4.50900e+00		         0.20667	8.50000e+01	
1.15661   	4.25634e+00		         0.20833	8.80000e+01	
1.16573   	4.13034e+00		         0.21000	9.10000e+01	
1.17485   	4.02091e+00		         0.21167	9.30000e+01	
1.18427   	3.98750e+00		         0.21333	9.60000e+01	
1.19337   	3.89154e+00		         0.21500	9.90000e+01	
1.20249   	3.63545e+00		         0.21667	1.02000e+02	
1.21161   	3.31187e+00		         0.21833	1.05000e+02	
1.22102   	3.03819e+00		         0.22000	1.07000e+02	
1.23012   	2.87608e+00		         0.22167	1.10000e+02	
1.23924   	2.65933e+00		         0.22333	1.13000e+02	
1.24856   	2.32800e+00		         0.22500	1.16000e+02	
1.25779   	2.11081e+00		         0.22667	1.19000e+02	
1.26688   	1.91248e+00		         0.22833	1.22000e+02	
1.27600   	1.73979e+00		         0.23000	1.24000e+02	
1.28513   	1.23237e+00		         0.23167	1.27000e+02	
1.29453   	4.74576e-01		         0.23333	1.29000e+02	
1.30364   	-5.93313e-01		         0.23500	1.31000e+02	
1.31276   	-1.07067e+00		         0.23667	1.33000e+02	
1.32189   	-9.63374e-01		         0.23833	1.34000e+02	
1.33129   	-7.14203e-01		         0.24000	1.35000e+02	
1.34039   	-8.54590e-01		         0.24167	1.36000e+02	
1.34952   	-1.35074e+00		         0.24333	1.36000e+02	
1.35864   	-1.67201e+00		         0.24500	1.37000e+02	
1.36805   	-2.05131e+00		         0.24667	1.36000e+02	
1.37715   	-2.40693e+00		         0.24833	1.36000e+02	
1.38628   	-3.06638e+00		         0.25000	1.35000e+02	
1.39540   	-3.77762e+00		         0.25167	1.33000e+02	
1.40481   	-4.43141e+00		         0.25333	1.32000e+02	
1.41391   	-4.90831e+00		         0.25500	1.29000e+02	
1.42303   	-5.02797e+00		         0.25667	1.27000e+02	
1.43215   	-5.00066e+00		         0.25833	1.24000e+02	
1.44157   	-4.65728e+00		         0.26000	1.20000e+02	
1.45067   	-4.43622e+00		         0.26167	1.16000e+02	
1.45979   	-4.11025e+00		         0.26333	1.12000e+02	
1.46891   	-3.88786e+00		         0.26500	1.07000e+02	
1.47831   	-3.45691e+00		         0.26667	1.02000e+02	
1.48743   	-3.17315e+00		         0.26833	9.70000e+01	
1.49655   	-2.80221e+00		         0.27000	9.10000e+01	
1.50567   	-2.58148e+00		         0.27167	8.50000e+01	
1.51507   	-2.36324e+00		         0.27333	7.90000e+01	
1.52418   	-2.10100e+00		         0.27500	7.30000e+01	
1.53330   	-1.80282e+00		         0.27667	6.60000e+01	
1.54243   	-1.49720e+00		         0.27833	6.00000e+01	
1.55183   	-1.18582e+00		         0.28000	5.40000e+01	
1.56094   	-9.49019e-01		         0.28167	4.80000e+01	
1.57006   	-7.08168e-01		         0.28333	4.20000e+01	
1.57918   	-5.16434e-01		         0.28500	3.60000e+01	
1.58859   	-3.62192e-01		         0.28667	3.00000e+01	
1.59770   	-2.72945e-01		         0.28833	2.40000e+01	
1.60682   	-3.59082e-01		         0.29000	1.80000e+01	
1.61594   	-4.12603e-01		         0.29167	1.30000e+01	
1.62536   	-4.46527e-01		         0.29333	8.00000e+00	
1.63446   	-4.72786e-01		         0.29500	2.00000e+00	
1.64358   	-4.89008e-01		         0.29667	-3.00000e+00	
1.65270   	-5.30877e-01		         0.29833	-9.00000e+00	
1.66210   	-5.58134e-01		         0.30000	-1.40000e+01	
1.67121   	-6.03449e-01		         0.30167	-1.90000e+01	
1.68039   	-6.11207e-01		         0.30333	-2.40000e+01	
1.68946   	-6.07002e-01		         0.30500	-2.90000e+01	
1.69887   	-6.12776e-01		         0.30667	-3.40000e+01	
1.70797   	-6.80260e-01		         0.30833	-3.80000e+01	
1.71709   	-9.11196e-01		         0.31000	-4.30000e+01	
1.72621   	-1.42291e+00		         0.31167	-4.70000e+01	
1.73563   	-2.31296e+00		         0.31333	-5.00000e+01	
1.74473   	-3.64475e+00		         0.31500	-5.30000e+01	
1.75385   	-5.26877e+00		         0.31667	-5.60000e+01	
1.76327   	-6.61184e+00		         0.31833	-5.90000e+01	
1.77237   	-7.31258e+00		         0.32000	-6.20000e+01	
1.78149   	-7.13188e+00		         0.32167	-6.40000e+01	
1.79061   	-6.32950e+00		         0.32333	-6.60000e+01	
1.79973   	-5.17950e+00		         0.32500	-6.70000e+01	
1.80913   	-4.05170e+00		         0.32667	-6.90000e+01	
1.81824   	-3.32460e+00		         0.32833	-7.00000e+01	
1.82736   	-2.79496e+00		         0.33000	-7.10000e+01	
1.83649   	-2.55155e+00		         0.33167	-7.30000e+01	
1.84603   	-2.19137e+00		         0.33333	-7.40000e+01	
1.85500   	-1.89301e+00		         0.33500	-7.50000e+01	
1.86412   	-1.49604e+00		         0.33667	-7.70000e+01	
1.87324   	-8.73742e-01		         0.33833	-7.80000e+01	
1.88265   	3.46366e-01		         0.34000	-7.90000e+01	
1.89176   	1.90227e+00		         0.34167	-8.00000e+01	
1.90088   	2.45308e+00		         0.34333	-8.10000e+01	
1.91000   	2.03108e+00		         0.34500	-8.20000e+01	
1.91942   	1.73963e+00		         0.34667	-8.30000e+01	
1.92851   	2.13489e+00		         0.34833	-8.30000e+01	
1.93764   	3.21622e+00		         0.35000	-8.40000e+01	
1.94676   	3.84531e+00		         0.35167	-8.40000e+01	
1.95618   	4.50167e+00		         0.35333	-8.40000e+01	
1.96527   	4.87130e+00		         0.35500	-8.40000e+01	
1.97439   	5.14778e+00		         0.35667	-8.40000e+01	
1.98352   	5.30342e+00		         0.35833	-8.30000e+01	
1.99292   	5.32562e+00		         0.36000	-8.30000e+01	
2.00203   	5.28526e+00		         0.36167	-8.20000e+01	
2.01115   	5.14654e+00		         0.36333	-8.10000e+01	
2.02027   	4.96503e+00		         0.36500	-8.00000e+01	
2.02968   	4.82185e+00		         0.36667	-7.90000e+01	
2.03879   	4.70748e+00		         0.36833	-7.90000e+01	
2.04791   	4.68882e+00		         0.37000	-7.80000e+01	
2.05703   	4.65111e+00		         0.37167	-7.70000e+01	
2.06645   	4.66796e+00		         0.37333	-7.70000e+01	
2.07554   	4.65064e+00		         0.37500	-7.60000e+01	
2.08467   	4.58952e+00		         0.37667	-7.60000e+01	
2.09379   	4.44690e+00		         0.37833	-7.50000e+01	
2.10321   	4.17504e+00		         0.38000	-7.50000e+01	
2.11230   	3.96552e+00		         0.38167	-7.40000e+01	
2.12143   	3.78843e+00		         0.38333	-7.30000e+01	
2.13055   	3.61312e+00		         0.38500	-7.30000e+01	
2.13996   	3.41684e+00		         0.38667	-7.20000e+01	
2.14906   	3.24143e+00		         0.38833	-7.00000e+01	
2.15818   	3.04815e+00		         0.39000	-6.90000e+01	
2.16730   	2.88473e+00		         0.39167	-6.80000e+01	
2.17671   	2.69745e+00		         0.39333	-6.60000e+01	
2.18582   	2.50431e+00		         0.39500	-6.40000e+01	
2.19494   	2.23716e+00		         0.39667	-6.30000e+01	
2.20406   	2.02228e+00		         0.39833	-6.10000e+01	
2.21348   	1.67665e+00		         0.40000	-5.90000e+01	
2.22257   	1.59241e+00		         0.40167	-5.70000e+01	
2.23170   	1.61404e+00		         0.40333	-5.50000e+01	
2.24082   	8.41943e-01		         0.40500	-5.40000e+01	
2.25024   	-7.23326e-03		         0.40667	-5.20000e+01	
2.25933   	-9.48162e-01		         0.40833	-5.00000e+01	
2.26846   	-8.59200e-01		         0.41000	-4.90000e+01	
2.27772   	-1.06090e+00		         0.41167	-4.70000e+01	
2.28699   	-1.14772e+00		         0.41333	-4.60000e+01	
2.29609   	-1.46802e+00		         0.41500	-4.40000e+01	
2.30521   	-1.64207e+00		         0.41667	-4.20000e+01	
2.31433   	-2.19756e+00		         0.41833	-4.10000e+01	
2.32375   	-2.70807e+00		         0.42000	-3.90000e+01	
2.33285   	-3.30490e+00		         0.42167	-3.80000e+01	
2.34197   	-4.08265e+00		         0.42333	-3.60000e+01	
2.35109   	-4.60689e+00		         0.42500	-3.50000e+01	
2.36082   	-5.00735e+00		         0.42667	-3.30000e+01	
2.36961   	-4.84662e+00		         0.42833	-3.20000e+01	
2.37873   	-4.76867e+00		         0.43000	-3.00000e+01	
2.38785   	-4.56549e+00		         0.43167	-2.90000e+01	
2.39725   	-4.34736e+00		         0.43333	-2.80000e+01	
2.40636   	-4.01713e+00		         0.43500	-2.70000e+01	
2.41549   	-3.69595e+00		         0.43667	-2.60000e+01	
2.42461   	-3.24357e+00		         0.43833	-2.60000e+01	
2.43402   	-2.75031e+00		         0.44000	-2.50000e+01	
2.44312   	-2.22898e+00		         0.44167	-2.50000e+01	
2.45224   	-1.87251e+00		         0.44333	-2.50000e+01	
2.46136   	-1.56830e+00		         0.44500	-2.40000e+01	
2.47078   	-1.27446e+00		         0.44667	-2.40000e+01	
2.47988   	-1.12869e+00		         0.44833	-2.40000e+01	
2.48900   	-9.13707e-01		         0.45000	-2.30000e+01	
2.49812   	-8.11319e-01		         0.45167	-2.30000e+01	
2.50753   	-6.96276e-01		         0.45333	-2.30000e+01	
2.51664   	-6.72663e-01		         0.45500	-2.30000e+01	
2.52576   	-7.59243e-01		         0.45667	-2.30000e+01	
2.53488   	-8.16332e-01		         0.45833	-2.20000e+01	
2.54429   	-1.00744e+00		         0.46000	-2.20000e+01	
2.55339   	-9.32541e-01		         0.46167	-2.20000e+01	
2.56251   	-8.38982e-01		         0.46333	-2.10000e+01	
2.57164   	-6.83989e-01		         0.46500	-2.10000e+01	
2.58104   	-6.34287e-01		         0.46667	-2.00000e+01	
2.59015   	-5.38549e-01		         0.46833	-1.90000e+01	
2.59927   	-4.32949e-01		         0.47000	-1.80000e+01	
2.60839   	-4.32737e-01		         0.47167	-1.70000e+01	
2.61778   	-4.73756e-01		         0.47333	-1.70000e+01	
2.62690   	-5.48867e-01		         0.47500	-1.60000e+01	
2.63603   	-6.87436e-01		         0.47667	-1.50000e+01	
2.64515   	-8.50454e-01		         0.47833	-1.40000e+01	
2.65458   	-1.16559e+00		         0.48000	-1.30000e+01	
2.66367   	-1.64351e+00		         0.48167	-1.30000e+01	
2.67279   	-2.54628e+00		         0.48333	-1.30000e+01	
2.68191   	-3.75923e+00		         0.48500	-1.30000e+01	
2.69132   	-5.14947e+00		         0.48667	-1.30000e+01	
2.70042   	-5.98155e+00		         0.48833	-1.30000e+01	
2.70963   	-6.32400e+00		         0.49000	-1.40000e+01	
2.71867   	-6.00126e+00		         0.49167	-1.40000e+01	
2.72808   	-5.43328e+00		         0.49333	-1.50000e+01	
2.73718   	-4.61776e+00		         0.49500	-1.60000e+01	
2.74630   	-3.79372e+00		         0.49667	-1.70000e+01	
2.75542   	-3.03357e+00		         0.49833	-1.80000e+01	
2.76484   	-2.36654e+00		         0.50000	-1.90000e+01	
2.77394   	-2.17998e+00		         0.50167	-2.00000e+01	
2.78306   	-2.39127e+00		         0.50333	-2.00000e+01	
2.79241   	-2.57998e+00		         0.50500	-2.10000e+01	
2.80160   	-1.90634e+00		         0.50667	-2.10000e+01	
2.81069   	-1.49129e-01		         0.50833	-2.20000e+01	
2.81982   	8.63406e-01		         0.51000	-2.20000e+01	
2.82894   	1.40607e+00		         0.51167	-2.30000e+01	
2.83835   	8.95391e-01		         0.51333	-2.30000e+01	
2.84745   	1.00718e+00		         0.51500	-2.30000e+01	
			         0.51667	-2.30000e+01	
			         0.51833	-2.30000e+01	
			         0.52000	-2.30000e+01	
			         0.52167	-2.30000e+01	
			         0.52333	-2.30000e+01	
			         0.52500	-2.30000e+01	
			         0.52667	-2.30000e+01	
			         0.52833	-2.20000e+01	
			         0.53000	-2.20000e+01	
			         0.53167	-2.10000e+01	
			         0.53333	-2.10000e+01	
			         0.53500	-2.00000e+01	
			         0.53667	-1.90000e+01	
			         0.53833	-1.80000e+01	
			         0.54000	-1.70000e+01	
			         0.54167	-1.60000e+01	
			         0.54333	-1.50000e+01	
			         0.54500	-1.40000e+01	
			         0.54667	-1.40000e+01	
			         0.54833	-1.30000e+01	
			         0.55000	-1.20000e+01	
			         0.55167	-1.20000e+01	
			         0.55333	-1.20000e+01	
			         0.55500	-1.20000e+01	
			         0.55667	-1.20000e+01	
			         0.55833	-1.20000e+01	
			         0.56000	-1.20000e+01	
			         0.56167	-1.30000e+01	
			         0.56333	-1.40000e+01	
			         0.56500	-1.40000e+01	
			         0.56667	-1.50000e+01	
			         0.56833	-1.50000e+01	
			         0.57000	-1.60000e+01	
			         0.57167	-1.60000e+01	
			         0.57333	-1.60000e+01	
			         0.57500	-1.60000e+01	
			         0.57667	-1.70000e+01	
			         0.57833	-1.70000e+01	
			         0.58000	-1.70000e+01	
			         0.58167	-1.70000e+01	
			         0.58333	-1.70000e+01	
			         0.58500	-1.70000e+01	
			         0.58667	-1.70000e+01	
			         0.58833	-1.70000e+01	
			         0.59000	-1.80000e+01	
			         0.59167	-1.80000e+01	
			         0.59333	-1.90000e+01	
			         0.59500	-1.90000e+01	
			         0.59667	-1.90000e+01	
			         0.59833	-1.90000e+01	
			         0.60000	-1.90000e+01	
			         0.60167	-1.90000e+01	
			         0.60333	-1.90000e+01	
			         0.60500	-1.80000e+01	
			         0.60667	-1.80000e+01	
			         0.60833	-1.70000e+01	
			         0.61000	-1.60000e+01	
			         0.61167	-1.40000e+01	
			         0.61333	-1.30000e+01	
			         0.61500	-1.20000e+01	
			         0.61667	-1.10000e+01	
			         0.61833	-9.00000e+00	
			         0.62000	-8.00000e+00	
			         0.62167	-7.00000e+00	
			         0.62333	-7.00000e+00	
			         0.62500	-6.00000e+00	
			         0.62667	-6.00000e+00	
			         0.62833	-6.00000e+00	
			         0.63000	-6.00000e+00	
			         0.63167	-6.00000e+00	
			         0.63333	-6.00000e+00	
			         0.63500	-7.00000e+00	
			         0.63667	-7.00000e+00	
			         0.63833	-7.00000e+00	
			         0.64000	-8.00000e+00	
			         0.64167	-8.00000e+00	
			         0.64333	-8.00000e+00	
			         0.64500	-8.00000e+00	
			         0.64667	-8.00000e+00	
			         0.64833	-8.00000e+00	
			         0.65000	-9.00000e+00	
			         0.65167	-9.00000e+00	
			         0.65333	-9.00000e+00	
			         0.65500	-1.00000e+01	
			         0.65667	-1.00000e+01	
			         0.65833	-1.10000e+01	
			         0.66000	-1.10000e+01	
			         0.66167	-1.20000e+01	
			         0.66333	-1.20000e+01	
			         0.66500	-1.30000e+01	
			         0.66667	-1.30000e+01	
			         0.66833	-1.30000e+01	
			         0.67000	-1.30000e+01	
			         0.67167	-1.30000e+01	
			         0.67333	-1.30000e+01	
			         0.67500	-1.30000e+01	
			         0.67667	-1.30000e+01	
			         0.67833	-1.20000e+01	
			         0.68000	-1.20000e+01	
			         0.68167	-1.20000e+01	
			         0.68333	-1.20000e+01	
			         0.68500	-1.10000e+01	
			         0.68667	-1.10000e+01	
			         0.68833	-1.10000e+01	
			         0.69000	-1.10000e+01	
			         0.69167	-1.10000e+01	
			         0.69333	-1.10000e+01	
			         0.69500	-1.10000e+01	
			         0.69667	-1.10000e+01	
			         0.69833	-1.10000e+01	
			         0.70000	-1.00000e+01	
			         0.70167	-1.00000e+01	
			         0.70333	-9.00000e+00	
			         0.70500	-8.00000e+00	
			         0.70667	-7.00000e+00	
			         0.70833	-6.00000e+00	
			         0.71000	-4.00000e+00	
			         0.71167	-3.00000e+00	
			         0.71333	-2.00000e+00	
			         0.71500	0.00000e+00	
			         0.71667	1.00000e+00	
			         0.71833	3.00000e+00	
			         0.72000	4.00000e+00	
			         0.72167	6.00000e+00	
			         0.72333	8.00000e+00	
			         0.72500	1.00000e+01	
			         0.72667	1.30000e+01	
			         0.72833	1.50000e+01	
			         0.73000	1.80000e+01	
			         0.73167	2.00000e+01	
			         0.73333	2.20000e+01	
			         0.73500	2.40000e+01	
			         0.73667	2.70000e+01	
			         0.73833	2.80000e+01	
			         0.74000	3.00000e+01	
			         0.74167	3.20000e+01	
			         0.74333	3.30000e+01	
			         0.74500	3.40000e+01	
			         0.74667	3.50000e+01	
			         0.74833	3.50000e+01	
			         0.75000	3.50000e+01	
			         0.75167	3.50000e+01	
			         0.75333	3.50000e+01	
			         0.75500	3.50000e+01	
			         0.75667	3.40000e+01	
			         0.75833	3.40000e+01	
			         0.76000	3.30000e+01	
			         0.76167	3.20000e+01	
			         0.76333	3.10000e+01	
			         0.76500	2.90000e+01	
			         0.76667	2.80000e+01	
			         0.76833	2.60000e+01	
			         0.77000	2.40000e+01	
			         0.77167	2.20000e+01	
			         0.77333	2.00000e+01	
			         0.77500	1.80000e+01	
			         0.77667	1.70000e+01	
			         0.77833	1.50000e+01	
			         0.78000	1.40000e+01	
			         0.78167	1.20000e+01	
			         0.78333	1.10000e+01	
			         0.78500	1.00000e+01	
			         0.78667	9.00000e+00	
			         0.78833	8.00000e+00	
			         0.79000	7.00000e+00	
			         0.79167	6.00000e+00	
			         0.79333	5.00000e+00	
			         0.79500	4.00000e+00	
			         0.79667	2.00000e+00	
			         0.79833	1.00000e+00	
			         0.80000	-1.00000e+00	
			         0.80167	-2.00000e+00	
			         0.80333	-4.00000e+00	
			         0.80500	-6.00000e+00	
			         0.80667	-7.00000e+00	
			         0.80833	-8.00000e+00	
			         0.81000	-1.00000e+01	
			         0.81167	-1.10000e+01	
			         0.81333	-1.30000e+01	
			         0.81500	-1.40000e+01	
			         0.81667	-1.60000e+01	
			         0.81833	-1.70000e+01	
			         0.82000	-1.90000e+01	
			         0.82167	-2.10000e+01	
			         0.82333	-2.30000e+01	
			         0.82500	-2.40000e+01	
			         0.82667	-2.60000e+01	
			         0.82833	-2.80000e+01	
			         0.83000	-3.00000e+01	
			         0.83167	-3.10000e+01	
			         0.83333	-3.20000e+01	
			         0.83500	-3.30000e+01	
			         0.83667	-3.40000e+01	
			         0.83833	-3.40000e+01	
			         0.84000	-3.40000e+01	
			         0.84167	-3.40000e+01	
			         0.84333	-3.40000e+01	
			         0.84500	-3.30000e+01	
			         0.84667	-3.30000e+01	
			         0.84833	-3.30000e+01	
			         0.85000	-3.30000e+01	
			         0.85167	-3.30000e+01	
			         0.85333	-3.30000e+01	
			         0.85500	-3.30000e+01	
			         0.85667	-3.30000e+01	
			         0.85833	-3.30000e+01	
			         0.86000	-3.20000e+01	
			         0.86167	-3.20000e+01	
			         0.86333	-3.20000e+01	
			         0.86500	-3.10000e+01	
			         0.86667	-3.10000e+01	
			         0.86833	-3.00000e+01	
			         0.87000	-2.90000e+01	
			         0.87167	-2.80000e+01	
			         0.87333	-2.70000e+01	
			         0.87500	-2.60000e+01	
			         0.87667	-2.50000e+01	
			         0.87833	-2.40000e+01	
			         0.88000	-2.30000e+01	
			         0.88167	-2.20000e+01	
			         0.88333	-2.10000e+01	
			         0.88500	-2.00000e+01	
			         0.88667	-1.90000e+01	
			         0.88833	-1.80000e+01	
			         0.89000	-1.70000e+01	
			         0.89167	-1.70000e+01	
			         0.89333	-1.60000e+01	
			         0.89500	-1.60000e+01	
			         0.89667	-1.50000e+01	
			         0.89833	-1.40000e+01	
			         0.90000	-1.30000e+01	
			         0.90167	-1.10000e+01	
			         0.90333	-9.00000e+00	
			         0.90500	-5.00000e+00	
			         0.90667	-1.00000e+00	
			         0.90833	5.00000e+00	
			         0.91000	1.10000e+01	
			         0.91167	1.80000e+01	
			         0.91333	2.60000e+01	
			         0.91500	3.50000e+01	
			         0.91667	4.40000e+01	
			         0.91833	5.40000e+01	
			         0.92000	6.50000e+01	
			         0.92167	7.70000e+01	
			         0.92333	9.00000e+01	
			         0.92500	1.03000e+02	
			         0.92667	1.15000e+02	
			         0.92833	1.26000e+02	
			         0.93000	1.35000e+02	
			         0.93167	1.41000e+02	
			         0.93333	1.44000e+02	
			         0.93500	1.43000e+02	
			         0.93667	1.37000e+02	
			         0.93833	1.27000e+02	
			         0.94000	1.11000e+02	
			         0.94167	9.00000e+01	
			         0.94333	6.40000e+01	
			         0.94500	3.20000e+01	
			         0.94667	-3.00000e+00	
			         0.94833	-4.10000e+01	
			         0.95000	-8.00000e+01	
			         0.95167	-1.17000e+02	
			         0.95333	-1.52000e+02	
			         0.95500	-1.83000e+02	
			         0.95667	-2.10000e+02	
			         0.95833	-2.31000e+02	
			         0.96000	-2.46000e+02	
			         0.96167	-2.54000e+02	
			         0.96333	-2.56000e+02	
			         0.96500	-2.52000e+02	
			         0.96667	-2.42000e+02	
			         0.96833	-2.26000e+02	
			         0.97000	-2.07000e+02	
			         0.97167	-1.85000e+02	
			         0.97333	-1.62000e+02	
			         0.97500	-1.38000e+02	
			         0.97667	-1.14000e+02	
			         0.97833	-9.20000e+01	
			         0.98000	-7.10000e+01	
			         0.98167	-5.20000e+01	
			         0.98333	-3.50000e+01	
			         0.98500	-2.00000e+01	
			         0.98667	-8.00000e+00	
			         0.98833	2.00000e+00	
			         0.99000	1.00000e+01	
			         0.99167	1.60000e+01	
			         0.99333	2.10000e+01	
			         0.99500	2.50000e+01	
			         0.99667	2.80000e+01	
			         0.99833	2.90000e+01	
			         1.00000	3.10000e+01	
			         1.00167	3.10000e+01	
			         1.00333	3.20000e+01	
			         1.00500	3.10000e+01	
			         1.00667	3.10000e+01	
			         1.00833	3.10000e+01	
			         1.01000	3.00000e+01	
			         1.01167	3.00000e+01	
			         1.01333	2.90000e+01	
			         1.01500	2.80000e+01	
			         1.01667	2.80000e+01	
			         1.01833	2.70000e+01	
			         1.02000	2.70000e+01	
			         1.02167	2.60000e+01	
			         1.02333	2.60000e+01	
			         1.02500	2.50000e+01	
			         1.02667	2.50000e+01	
			         1.02833	2.50000e+01	
			         1.03000	2.50000e+01	
			         1.03167	2.40000e+01	
			         1.03333	2.40000e+01	
			         1.03500	2.40000e+01	
			         1.03667	2.40000e+01	
			         1.03833	2.40000e+01	
			         1.04000	2.40000e+01	
			         1.04167	2.40000e+01	
			         1.04333	2.40000e+01	
			         1.04500	2.40000e+01	
			         1.04667	2.30000e+01	
			         1.04833	2.30000e+01	
			         1.05000	2.20000e+01	
			         1.05167	2.10000e+01	
			         1.05333	2.10000e+01	
			         1.05500	2.00000e+01	
			         1.05667	1.90000e+01	
			         1.05833	1.90000e+01	
			         1.06000	1.90000e+01	
			         1.06167	1.80000e+01	
			         1.06333	1.80000e+01	
			         1.06500	1.80000e+01	
			         1.06667	1.80000e+01	
			         1.06833	1.80000e+01	
			         1.07000	1.80000e+01	
			         1.07167	1.80000e+01	
			         1.07333	1.80000e+01	
			         1.07500	1.80000e+01	
			         1.07667	1.80000e+01	
			         1.07833	1.80000e+01	
			         1.08000	1.80000e+01	
			         1.08167	1.80000e+01	
			         1.08333	1.70000e+01	
			         1.08500	1.70000e+01	
			         1.08667	1.70000e+01	
			         1.08833	1.70000e+01	
			         1.09000	1.70000e+01	
			         1.09167	1.70000e+01	
			         1.09333	1.80000e+01	
			         1.09500	1.80000e+01	
			         1.09667	1.90000e+01	
			         1.09833	2.00000e+01	
			         1.10000	2.10000e+01	
			         1.10167	2.20000e+01	
			         1.10333	2.40000e+01	
			         1.10500	2.50000e+01	
			         1.10667	2.60000e+01	
			         1.10833	2.80000e+01	
			         1.11000	2.90000e+01	
			         1.11167	3.10000e+01	
			         1.11333	3.20000e+01	
			         1.11500	3.40000e+01	
			         1.11667	3.50000e+01	
			         1.11833	3.60000e+01	
			         1.12000	3.70000e+01	
			         1.12167	3.80000e+01	
			         1.12333	3.90000e+01	
			         1.12500	4.00000e+01	
			         1.12667	4.10000e+01	
			         1.12833	4.10000e+01	
			         1.13000	4.20000e+01	
			         1.13167	4.40000e+01	
			         1.13333	4.50000e+01	
			         1.13500	4.60000e+01	
			         1.13667	4.80000e+01	
			         1.13833	5.00000e+01	
			         1.14000	5.20000e+01	
			         1.14167	5.40000e+01	
			         1.14333	5.70000e+01	
			         1.14500	5.90000e+01	
			         1.14667	6.20000e+01	
			         1.14833	6.50000e+01	
			         1.15000	6.80000e+01	
			         1.15167	7.10000e+01	
			         1.15333	7.40000e+01	
			         1.15500	7.70000e+01	
			         1.15667	8.00000e+01	
			         1.15833	8.20000e+01	
			         1.16000	8.50000e+01	
			         1.16167	8.80000e+01	
			         1.16333	9.10000e+01	
			         1.16500	9.40000e+01	
			         1.16667	9.70000e+01	
			         1.16833	1.00000e+02	
			         1.17000	1.03000e+02	
			         1.17167	1.06000e+02	
			         1.17333	1.08000e+02	
			         1.17500	1.10000e+02	
			         1.17667	1.12000e+02	
			         1.17833	1.14000e+02	
			         1.18000	1.16000e+02	
			         1.18167	1.17000e+02	
			         1.18333	1.18000e+02	
			         1.18500	1.19000e+02	
			         1.18667	1.19000e+02	
			         1.18833	1.20000e+02	
			         1.19000	1.20000e+02	
			         1.19167	1.20000e+02	
			         1.19333	1.20000e+02	
			         1.19500	1.19000e+02	
			         1.19667	1.19000e+02	
			         1.19833	1.18000e+02	
			         1.20000	1.17000e+02	
			         1.20167	1.16000e+02	
			         1.20333	1.14000e+02	
			         1.20500	1.13000e+02	
			         1.20667	1.11000e+02	
			         1.20833	1.09000e+02	
			         1.21000	1.06000e+02	
			         1.21167	1.03000e+02	
			         1.21333	1.00000e+02	
			         1.21500	9.70000e+01	
			         1.21667	9.30000e+01	
			         1.21833	8.90000e+01	
			         1.22000	8.50000e+01	
			         1.22167	8.00000e+01	
			         1.22333	7.50000e+01	
			         1.22500	6.90000e+01	
			         1.22667	6.40000e+01	
			         1.22833	5.80000e+01	
			         1.23000	5.20000e+01	
			         1.23167	4.60000e+01	
			         1.23333	4.00000e+01	
			         1.23500	3.40000e+01	
			         1.23667	2.80000e+01	
			         1.23833	2.20000e+01	
			         1.24000	1.60000e+01	
			         1.24167	1.00000e+01	
			         1.24333	5.00000e+00	
			         1.24500	0.00000e+00	
			         1.24667	-6.00000e+00	
			         1.24833	-1.00000e+01	
			         1.25000	-1.50000e+01	
			         1.25167	-2.00000e+01	
			         1.25333	-2.40000e+01	
			         1.25500	-2.80000e+01	
			         1.25667	-3.10000e+01	
			         1.25833	-3.50000e+01	
			         1.26000	-3.80000e+01	
			         1.26167	-4.10000e+01	
			         1.26333	-4.40000e+01	
			         1.26500	-4.70000e+01	
			         1.26667	-5.00000e+01	
			         1.26833	-5.30000e+01	
			         1.27000	-5.50000e+01	
			         1.27167	-5.80000e+01	
			         1.27333	-6.00000e+01	
			         1.27500	-6.20000e+01	
			         1.27667	-6.40000e+01	
			         1.27833	-6.60000e+01	
			         1.28000	-6.70000e+01	
			         1.28167	-6.90000e+01	
			         1.28333	-6.90000e+01	
			         1.28500	-7.00000e+01	
			         1.28667	-7.10000e+01	
			         1.28833	-7.10000e+01	
			         1.29000	-7.20000e+01	
			         1.29167	-7.20000e+01	
			         1.29333	-7.20000e+01	
			         1.29500	-7.20000e+01	
			         1.29667	-7.30000e+01	
			         1.29833	-7.30000e+01	
			         1.30000	-7.40000e+01	
			         1.30167	-7.40000e+01	
			         1.30333	-7.40000e+01	
			         1.30500	-7.50000e+01	
			         1.30667	-7.50000e+01	
			         1.30833	-7.60000e+01	
			         1.31000	-7.60000e+01	
			         1.31167	-7.70000e+01	
			         1.31333	-7.70000e+01	
			         1.31500	-7.70000e+01	
			         1.31667	-7.70000e+01	
			         1.31833	-7.70000e+01	
			         1.32000	-7.70000e+01	
			         1.32167	-7.70000e+01	
			         1.32333	-7.70000e+01	
			         1.32500	-7.60000e+01	
			         1.32667	-7.60000e+01	
			         1.32833	-7.50000e+01	
			         1.33000	-7.50000e+01	
			         1.33167	-7.40000e+01	
			         1.33333	-7.40000e+01	
			         1.33500	-7.30000e+01	
			         1.33667	-7.20000e+01	
			         1.33833	-7.10000e+01	
			         1.34000	-7.00000e+01	
			         1.34167	-6.90000e+01	
			         1.34333	-6.80000e+01	
			         1.34500	-6.80000e+01	
			         1.34667	-6.70000e+01	
			         1.34833	-6.60000e+01	
			         1.35000	-6.50000e+01	
			         1.35167	-6.40000e+01	
			         1.35333	-6.30000e+01	
			         1.35500	-6.20000e+01	
			         1.35667	-6.20000e+01	
			         1.35833	-6.10000e+01	
			         1.36000	-6.00000e+01	
			         1.36167	-5.90000e+01	
			         1.36333	-5.90000e+01	
			         1.36500	-5.80000e+01	
			         1.36667	-5.70000e+01	
			         1.36833	-5.50000e+01	
			         1.37000	-5.40000e+01	
			         1.37167	-5.30000e+01	
			         1.37333	-5.10000e+01	
			         1.37500	-4.90000e+01	
			         1.37667	-4.70000e+01	
			         1.37833	-4.60000e+01	
			         1.38000	-4.40000e+01	
			         1.38167	-4.30000e+01	
			         1.38333	-4.10000e+01	
			         1.38500	-4.00000e+01	
			         1.38667	-3.80000e+01	
			         1.38833	-3.70000e+01	
			         1.39000	-3.60000e+01	
			         1.39167	-3.50000e+01	
			         1.39333	-3.30000e+01	
			         1.39500	-3.20000e+01	
			         1.39667	-3.10000e+01	
			         1.39833	-2.90000e+01	
			         1.40000	-2.80000e+01	
			         1.40167	-2.60000e+01	
			         1.40333	-2.50000e+01	
			         1.40500	-2.30000e+01	
			         1.40667	-2.20000e+01	
			         1.40833	-2.00000e+01	
			         1.41000	-1.90000e+01	
			         1.41167	-1.70000e+01	
			         1.41333	-1.60000e+01	
			         1.41500	-1.50000e+01	
			         1.41667	-1.40000e+01	
			         1.41833	-1.30000e+01	
			         1.42000	-1.20000e+01	
			         1.42167	-1.10000e+01	
			         1.42333	-1.00000e+01	
			         1.42500	-9.00000e+00	
			         1.42667	-9.00000e+00	
			         1.42833	-8.00000e+00	
			         1.43000	-7.00000e+00	
			         1.43167	-7.00000e+00	
			         1.43333	-6.00000e+00	
			         1.43500	-6.00000e+00	
			         1.43667	-6.00000e+00	
			         1.43833	-6.00000e+00	
			         1.44000	-6.00000e+00	
			         1.44167	-6.00000e+00	
			         1.44333	-6.00000e+00	
			         1.44500	-6.00000e+00	
			         1.44667	-6.00000e+00	
			         1.44833	-6.00000e+00	
			         1.45000	-6.00000e+00	
			         1.45167	-7.00000e+00	
			         1.45333	-7.00000e+00	
			         1.45500	-7.00000e+00	
			         1.45667	-7.00000e+00	
			         1.45833	-7.00000e+00	
			         1.46000	-8.00000e+00	
			         1.46167	-8.00000e+00	
			         1.46333	-8.00000e+00	
			         1.46500	-8.00000e+00	
			         1.46667	-8.00000e+00	
			         1.46833	-8.00000e+00	
			         1.47000	-8.00000e+00	
			         1.47167	-8.00000e+00	
			         1.47333	-7.00000e+00	
			         1.47500	-7.00000e+00	
			         1.47667	-7.00000e+00	
			         1.47833	-6.00000e+00	
			         1.48000	-6.00000e+00	
			         1.48167	-5.00000e+00	
			         1.48333	-5.00000e+00	
			         1.48500	-5.00000e+00	
			         1.48667	-4.00000e+00	
			         1.48833	-4.00000e+00	
			         1.49000	-4.00000e+00	
			         1.49167	-4.00000e+00	
			         1.49333	-4.00000e+00	
			         1.49500	-4.00000e+00	
			         1.49667	-4.00000e+00	
			         1.49833	-3.00000e+00	
			         1.50000	-3.00000e+00	
			         1.50167	-3.00000e+00	
			         1.50333	-3.00000e+00	
			         1.50500	-3.00000e+00	
			         1.50667	-3.00000e+00	
			         1.50833	-3.00000e+00	
			         1.51000	-3.00000e+00	
			         1.51167	-4.00000e+00	
			         1.51333	-4.00000e+00	
			         1.51500	-4.00000e+00	
			         1.51667	-4.00000e+00	
			         1.51833	-4.00000e+00	
			         1.52000	-4.00000e+00	
			         1.52167	-4.00000e+00	
			         1.52333	-3.00000e+00	
			         1.52500	-2.00000e+00	
			         1.52667	-1.00000e+00	
			         1.52833	0.00000e+00	
			         1.53000	1.00000e+00	
			         1.53167	2.00000e+00	
			         1.53333	4.00000e+00	
			         1.53500	6.00000e+00	
			         1.53667	7.00000e+00	
			         1.53833	9.00000e+00	
			         1.54000	1.00000e+01	
			         1.54167	1.10000e+01	
			         1.54333	1.10000e+01	
			         1.54500	1.20000e+01	
			         1.54667	1.20000e+01	
			         1.54833	1.20000e+01	
			         1.55000	1.10000e+01	
			         1.55167	1.10000e+01	
			         1.55333	1.00000e+01	
			         1.55500	9.00000e+00	
			         1.55667	9.00000e+00	
			         1.55833	8.00000e+00	
			         1.56000	8.00000e+00	
			         1.56167	7.00000e+00	
			         1.56333	7.00000e+00	
			         1.56500	7.00000e+00	
			         1.56667	6.00000e+00	
			         1.56833	6.00000e+00	
			         1.57000	6.00000e+00	
			         1.57167	6.00000e+00	
			         1.57333	6.00000e+00	
			         1.57500	6.00000e+00	
			         1.57667	5.00000e+00	
			         1.57833	5.00000e+00	
			         1.58000	4.00000e+00	
			         1.58167	4.00000e+00	
			         1.58333	4.00000e+00	
			         1.58500	3.00000e+00	
			         1.58667	3.00000e+00	
			         1.58833	3.00000e+00	
			         1.59000	3.00000e+00	
			         1.59167	3.00000e+00	
			         1.59333	4.00000e+00	
			         1.59500	4.00000e+00	
			         1.59667	4.00000e+00	
			         1.59833	4.00000e+00	
			         1.60000	5.00000e+00	
			         1.60167	5.00000e+00	
			         1.60333	5.00000e+00	
			         1.60500	5.00000e+00	
			         1.60667	6.00000e+00	
			         1.60833	6.00000e+00	
			         1.61000	6.00000e+00	
			         1.61167	6.00000e+00	
			         1.61333	6.00000e+00	
			         1.61500	6.00000e+00	
			         1.61667	6.00000e+00	
			         1.61833	6.00000e+00	
			         1.62000	6.00000e+00	
			         1.62167	6.00000e+00	
			         1.62333	6.00000e+00	
			         1.62500	6.00000e+00	
			         1.62667	6.00000e+00	
			         1.62833	6.00000e+00	
			         1.63000	5.00000e+00	
			         1.63167	5.00000e+00	
			         1.63333	5.00000e+00	
			         1.63500	5.00000e+00	
			         1.63667	5.00000e+00	
			         1.63833	5.00000e+00	
			         1.64000	4.00000e+00	
			         1.64167	4.00000e+00	
			         1.64333	4.00000e+00	
			         1.64500	5.00000e+00	
			         1.64667	5.00000e+00	
			         1.64833	5.00000e+00	
			         1.65000	6.00000e+00	
			         1.65167	7.00000e+00	
			         1.65333	8.00000e+00	
			         1.65500	9.00000e+00	
			         1.65667	1.00000e+01	
			         1.65833	1.20000e+01	
			         1.66000	1.30000e+01	
			         1.66167	1.50000e+01	
			         1.66333	1.60000e+01	
			         1.66500	1.80000e+01	
			         1.66667	2.00000e+01	
			         1.66833	2.20000e+01	
			         1.67000	2.40000e+01	
			         1.67167	2.60000e+01	
			         1.67333	2.80000e+01	
			         1.67500	3.00000e+01	
			         1.67667	3.10000e+01	
			         1.67833	3.30000e+01	
			         1.68000	3.40000e+01	
			         1.68167	3.50000e+01	
			         1.68333	3.60000e+01	
			         1.68500	3.60000e+01	
			         1.68667	3.70000e+01	
			         1.68833	3.60000e+01	
			         1.69000	3.50000e+01	
			         1.69167	3.40000e+01	
			         1.69333	3.30000e+01	
			         1.69500	3.20000e+01	
			         1.69667	3.00000e+01	
			         1.69833	2.80000e+01	
			         1.70000	2.70000e+01	
			         1.70167	2.50000e+01	
			         1.70333	2.30000e+01	
			         1.70500	2.20000e+01	
			         1.70667	2.00000e+01	
			         1.70833	1.80000e+01	
			         1.71000	1.70000e+01	
			         1.71167	1.60000e+01	
			         1.71333	1.40000e+01	
			         1.71500	1.40000e+01	
			         1.71667	1.30000e+01	
			         1.71833	1.20000e+01	
			         1.72000	1.20000e+01	
			         1.72167	1.20000e+01	
			         1.72333	1.10000e+01	
			         1.72500	1.10000e+01	
			         1.72667	1.10000e+01	
			         1.72833	1.10000e+01	
			         1.73000	1.10000e+01	
			         1.73167	1.00000e+01	
			         1.73333	1.00000e+01	
			         1.73500	9.00000e+00	
			         1.73667	8.00000e+00	
			         1.73833	6.00000e+00	
			         1.74000	5.00000e+00	
			         1.74167	3.00000e+00	
			         1.74333	2.00000e+00	
			         1.74500	1.00000e+00	
			         1.74667	-1.00000e+00	
			         1.74833	-2.00000e+00	
			         1.75000	-3.00000e+00	
			         1.75167	-5.00000e+00	
			         1.75333	-6.00000e+00	
			         1.75500	-8.00000e+00	
			         1.75667	-9.00000e+00	
			         1.75833	-1.10000e+01	
			         1.76000	-1.20000e+01	
			         1.76167	-1.40000e+01	
			         1.76333	-1.60000e+01	
			         1.76500	-1.80000e+01	
			         1.76667	-2.00000e+01	
			         1.76833	-2.20000e+01	
			         1.77000	-2.30000e+01	
			         1.77167	-2.50000e+01	
			         1.77333	-2.60000e+01	
			         1.77500	-2.70000e+01	
			         1.77667	-2.80000e+01	
			         1.77833	-2.80000e+01	
			         1.78000	-2.90000e+01	
			         1.78167	-2.90000e+01	
			         1.78333	-2.90000e+01	
			         1.78500	-2.90000e+01	
			         1.78667	-3.00000e+01	
			         1.78833	-3.00000e+01	
			         1.79000	-3.00000e+01	
			         1.79167	-3.00000e+01	
			         1.79333	-3.00000e+01	
			         1.79500	-3.00000e+01	
			         1.79667	-3.00000e+01	
			         1.79833	-3.00000e+01	
			         1.80000	-3.10000e+01	
			         1.80167	-3.10000e+01	
			         1.80333	-3.10000e+01	
			         1.80500	-3.10000e+01	
			         1.80667	-3.20000e+01	
			         1.80833	-3.20000e+01	
			         1.81000	-3.20000e+01	
			         1.81167	-3.20000e+01	
			         1.81333	-3.20000e+01	
			         1.81500	-3.30000e+01	
			         1.81667	-3.30000e+01	
			         1.81833	-3.30000e+01	
			         1.82000	-3.20000e+01	
			         1.82167	-3.20000e+01	
			         1.82333	-3.20000e+01	
			         1.82500	-3.10000e+01	
			         1.82667	-3.10000e+01	
			         1.82833	-3.00000e+01	
			         1.83000	-2.90000e+01	
			         1.83167	-2.80000e+01	
			         1.83333	-2.60000e+01	
			         1.83500	-2.50000e+01	
			         1.83667	-2.20000e+01	
			         1.83833	-1.90000e+01	
			         1.84000	-1.60000e+01	
			         1.84167	-1.10000e+01	
			         1.84333	-6.00000e+00	
			         1.84500	0.00000e+00	
			         1.84667	7.00000e+00	
			         1.84833	1.50000e+01	
			         1.85000	2.30000e+01	
			         1.85167	3.10000e+01	
			         1.85333	4.00000e+01	
			         1.85500	4.90000e+01	
			         1.85667	5.90000e+01	
			         1.85833	7.00000e+01	
			         1.86000	8.20000e+01	
			         1.86167	9.40000e+01	
			         1.86333	1.07000e+02	
			         1.86500	1.19000e+02	
			         1.86667	1.30000e+02	
			         1.86833	1.38000e+02	
			         1.87000	1.43000e+02	
			         1.87167	1.45000e+02	
			         1.87333	1.43000e+02	
			         1.87500	1.37000e+02	
			         1.87667	1.25000e+02	
			         1.87833	1.09000e+02	
			         1.88000	8.60000e+01	
			         1.88167	5.80000e+01	
			         1.88333	2.50000e+01	
			         1.88500	-1.20000e+01	
			         1.88667	-5.10000e+01	
			         1.88833	-9.00000e+01	
			         1.89000	-1.27000e+02	
			         1.89167	-1.62000e+02	
			         1.89333	-1.93000e+02	
			         1.89500	-2.19000e+02	
			         1.89667	-2.39000e+02	
			         1.89833	-2.53000e+02	
			         1.90000	-2.61000e+02	
			         1.90167	-2.62000e+02	
			         1.90333	-2.57000e+02	
			         1.90500	-2.46000e+02	
			         1.90667	-2.31000e+02	
			         1.90833	-2.11000e+02	
			         1.91000	-1.89000e+02	
			         1.91167	-1.66000e+02	
			         1.91333	-1.42000e+02	
			         1.91500	-1.18000e+02	
			         1.91667	-9.50000e+01	
			         1.91833	-7.40000e+01	
			         1.92000	-5.50000e+01	
			         1.92167	-3.80000e+01	
			         1.92333	-2.30000e+01	
			         1.92500	-1.10000e+01	
			         1.92667	-1.00000e+00	
			         1.92833	7.00000e+00	
			         1.93000	1.40000e+01	
			         1.93167	1.90000e+01	
			         1.93333	2.20000e+01	
			         1.93500	2.50000e+01	
			         1.93667	2.70000e+01	
			         1.93833	2.80000e+01	
			         1.94000	2.90000e+01	
			         1.94167	2.90000e+01	
			         1.94333	3.00000e+01	
			         1.94500	3.00000e+01	
			         1.94667	3.00000e+01	
			         1.94833	3.00000e+01	
			         1.95000	3.00000e+01	
			         1.95167	2.90000e+01	
			         1.95333	2.90000e+01	
			         1.95500	2.80000e+01	
			         1.95667	2.80000e+01	
			         1.95833	2.70000e+01	
			         1.96000	2.60000e+01	
			         1.96167	2.60000e+01	
			         1.96333	2.50000e+01	
			         1.96500	2.50000e+01	
			         1.96667	2.40000e+01	
			         1.96833	2.40000e+01	
			         1.97000	2.40000e+01	
			         1.97167	2.40000e+01	
			         1.97333	2.40000e+01	
			         1.97500	2.40000e+01	
			         1.97667	2.40000e+01	
			         1.97833	2.40000e+01	
			         1.98000	2.40000e+01	
			         1.98167	2.50000e+01	
			         1.98333	2.50000e+01	
			         1.98500	2.60000e+01	
			         1.98667	2.70000e+01	
			         1.98833	2.70000e+01	
			         1.99000	2.70000e+01	
			         1.99167	2.80000e+01	
			         1.99333	2.80000e+01	
			         1.99500	2.80000e+01	
			         1.99667	2.70000e+01	
			         1.99833	2.70000e+01	
			         2.00000	2.60000e+01	
			         2.00167	2.50000e+01	
			         2.00333	2.40000e+01	
			         2.00500	2.30000e+01	
			         2.00667	2.20000e+01	
			         2.00833	2.20000e+01	
			         2.01000	2.10000e+01	
			         2.01167	2.10000e+01	
			         2.01333	2.20000e+01	
			         2.01500	2.20000e+01	
			         2.01667	2.30000e+01	
			         2.01833	2.40000e+01	
			         2.02000	2.50000e+01	
			         2.02167	2.70000e+01	
			         2.02333	2.80000e+01	
			         2.02500	3.00000e+01	
			         2.02667	3.20000e+01	
			         2.02833	3.40000e+01	
			         2.03000	3.50000e+01	
			         2.03167	3.70000e+01	
			         2.03333	3.90000e+01	
			         2.03500	4.10000e+01	
			         2.03667	4.20000e+01	
			         2.03833	4.40000e+01	
			         2.04000	4.50000e+01	
			         2.04167	4.70000e+01	
			         2.04333	4.80000e+01	
			         2.04500	5.00000e+01	
			         2.04667	5.10000e+01	
			         2.04833	5.20000e+01	
			         2.05000	5.30000e+01	
			         2.05167	5.40000e+01	
			         2.05333	5.50000e+01	
			         2.05500	5.60000e+01	
			         2.05667	5.70000e+01	
			         2.05833	5.80000e+01	
			         2.06000	5.90000e+01	
			         2.06167	5.90000e+01	
			         2.06333	6.00000e+01	
			         2.06500	6.00000e+01	
			         2.06667	6.10000e+01	
			         2.06833	6.20000e+01	
			         2.07000	6.20000e+01	
			         2.07167	6.30000e+01	
			         2.07333	6.40000e+01	
			         2.07500	6.60000e+01	
			         2.07667	6.70000e+01	
			         2.07833	6.90000e+01	
			         2.08000	7.10000e+01	
			         2.08167	7.30000e+01	
			         2.08333	7.60000e+01	
			         2.08500	7.80000e+01	
			         2.08667	8.10000e+01	
			         2.08833	8.40000e+01	
			         2.09000	8.60000e+01	
			         2.09167	8.90000e+01	
			         2.09333	9.10000e+01	
			         2.09500	9.40000e+01	
			         2.09667	9.60000e+01	
			         2.09833	9.80000e+01	
			         2.10000	1.01000e+02	
			         2.10167	1.03000e+02	
			         2.10333	1.05000e+02	
			         2.10500	1.08000e+02	
			         2.10667	1.10000e+02	
			         2.10833	1.12000e+02	
			         2.11000	1.15000e+02	
			         2.11167	1.17000e+02	
			         2.11333	1.19000e+02	
			         2.11500	1.21000e+02	
			         2.11667	1.23000e+02	
			         2.11833	1.25000e+02	
			         2.12000	1.27000e+02	
			         2.12167	1.28000e+02	
			         2.12333	1.29000e+02	
			         2.12500	1.30000e+02	
			         2.12667	1.31000e+02	
			         2.12833	1.31000e+02	
			         2.13000	1.31000e+02	
			         2.13167	1.30000e+02	
			         2.13333	1.29000e+02	
			         2.13500	1.28000e+02	
			         2.13667	1.26000e+02	
			         2.13833	1.23000e+02	
			         2.14000	1.21000e+02	
			         2.14167	1.17000e+02	
			         2.14333	1.14000e+02	
			         2.14500	1.10000e+02	
			         2.14667	1.06000e+02	
			         2.14833	1.02000e+02	
			         2.15000	9.70000e+01	
			         2.15167	9.30000e+01	
			         2.15333	8.80000e+01	
			         2.15500	8.30000e+01	
			         2.15667	7.80000e+01	
			         2.15833	7.40000e+01	
			         2.16000	6.90000e+01	
			         2.16167	6.40000e+01	
			         2.16333	5.90000e+01	
			         2.16500	5.40000e+01	
			         2.16667	4.90000e+01	
			         2.16833	4.30000e+01	
			         2.17000	3.80000e+01	
			         2.17167	3.30000e+01	
			         2.17333	2.70000e+01	
			         2.17500	2.10000e+01	
			         2.17667	1.60000e+01	
			         2.17833	1.00000e+01	
			         2.18000	4.00000e+00	
			         2.18167	-1.00000e+00	
			         2.18333	-7.00000e+00	
			         2.18500	-1.30000e+01	
			         2.18667	-1.80000e+01	
			         2.18833	-2.40000e+01	
			         2.19000	-2.90000e+01	
			         2.19167	-3.30000e+01	
			         2.19333	-3.80000e+01	
			         2.19500	-4.20000e+01	
			         2.19667	-4.60000e+01	
			         2.19833	-4.90000e+01	
			         2.20000	-5.30000e+01	
			         2.20167	-5.60000e+01	
			         2.20333	-5.90000e+01	
			         2.20500	-6.10000e+01	
			         2.20667	-6.30000e+01	
			         2.20833	-6.50000e+01	
			         2.21000	-6.60000e+01	
			         2.21167	-6.70000e+01	
			         2.21333	-6.90000e+01	
			         2.21500	-7.00000e+01	
			         2.21667	-7.00000e+01	
			         2.21833	-7.10000e+01	
			         2.22000	-7.20000e+01	
			         2.22167	-7.20000e+01	
			         2.22333	-7.30000e+01	
			         2.22500	-7.30000e+01	
			         2.22667	-7.40000e+01	
			         2.22833	-7.50000e+01	
			         2.23000	-7.60000e+01	
			         2.23167	-7.70000e+01	
			         2.23333	-7.80000e+01	
			         2.23500	-7.90000e+01	
			         2.23667	-7.90000e+01	
			         2.23833	-7.90000e+01	
			         2.24000	-7.90000e+01	
			         2.24167	-7.90000e+01	
			         2.24333	-7.90000e+01	
			         2.24500	-7.80000e+01	
			         2.24667	-7.70000e+01	
			         2.24833	-7.60000e+01	
			         2.25000	-7.50000e+01	
			         2.25167	-7.40000e+01	
			         2.25333	-7.20000e+01	
			         2.25500	-7.10000e+01	
			         2.25667	-6.90000e+01	
			         2.25833	-6.70000e+01	
			         2.26000	-6.60000e+01	
			         2.26167	-6.40000e+01	
			         2.26333	-6.20000e+01	
			         2.26500	-6.00000e+01	
			         2.26667	-5.80000e+01	
			         2.26833	-5.60000e+01	
			         2.27000	-5.40000e+01	
			         2.27167	-5.20000e+01	
			         2.27333	-5.00000e+01	
			         2.27500	-4.90000e+01	
			         2.27667	-4.70000e+01	
			         2.27833	-4.50000e+01	
			         2.28000	-4.40000e+01	
			         2.28167	-4.20000e+01	
			         2.28333	-4.10000e+01	
			         2.28500	-3.90000e+01	
			         2.28667	-3.70000e+01	
			         2.28833	-3.60000e+01	
			         2.29000	-3.40000e+01	
			         2.29167	-3.20000e+01	
			         2.29333	-3.10000e+01	
			         2.29500	-2.90000e+01	
			         2.29667	-2.80000e+01	
			         2.29833	-2.70000e+01	
			         2.30000	-2.50000e+01	
			         2.30167	-2.40000e+01	
			         2.30333	-2.20000e+01	
			         2.30500	-2.10000e+01	
			         2.30667	-2.00000e+01	
			         2.30833	-1.90000e+01	
			         2.31000	-1.80000e+01	
			         2.31167	-1.70000e+01	
			         2.31333	-1.60000e+01	
			         2.31500	-1.60000e+01	
			         2.31667	-1.50000e+01	
			         2.31833	-1.50000e+01	
			         2.32000	-1.50000e+01	
			         2.32167	-1.40000e+01	
			         2.32333	-1.40000e+01	
			         2.32500	-1.40000e+01	
			         2.32667	-1.50000e+01	
			         2.32833	-1.50000e+01	
			         2.33000	-1.50000e+01	
			         2.33167	-1.50000e+01	
			         2.33333	-1.50000e+01	
			         2.33500	-1.50000e+01	
			         2.33667	-1.50000e+01	
			         2.33833	-1.40000e+01	
			         2.34000	-1.40000e+01	
			         2.34167	-1.40000e+01	
			         2.34333	-1.30000e+01	
			         2.34500	-1.30000e+01	
			         2.34667	-1.20000e+01	
			         2.34833	-1.20000e+01	
			         2.35000	-1.10000e+01	
			         2.35167	-1.00000e+01	
			         2.35333	-9.00000e+00	
			         2.35500	-8.00000e+00	
			         2.35667	-8.00000e+00	
			         2.35833	-7.00000e+00	
			         2.36000	-7.00000e+00	
			         2.36167	-6.00000e+00	
			         2.36333	-5.00000e+00	
			         2.36500	-5.00000e+00	
			         2.36667	-4.00000e+00	
			         2.36833	-4.00000e+00	
			         2.37000	-3.00000e+00	
			         2.37167	-3.00000e+00	
			         2.37333	-2.00000e+00	
			         2.37500	-1.00000e+00	
			         2.37667	-1.00000e+00	
			         2.37833	0.00000e+00	
			         2.38000	0.00000e+00	
			         2.38167	0.00000e+00	
			         2.38333	1.00000e+00	
			         2.38500	1.00000e+00	
			         2.38667	0.00000e+00	
			         2.38833	0.00000e+00	
			         2.39000	-1.00000e+00	
			         2.39167	-2.00000e+00	
			         2.39333	-3.00000e+00	
			         2.39500	-3.00000e+00	
			         2.39667	-4.00000e+00	
			         2.39833	-5.00000e+00	
			         2.40000	-6.00000e+00	
			         2.40167	-6.00000e+00	
			         2.40333	-7.00000e+00	
			         2.40500	-7.00000e+00	
			         2.40667	-7.00000e+00	
			         2.40833	-7.00000e+00	
			         2.41000	-8.00000e+00	
			         2.41167	-8.00000e+00	
			         2.41333	-8.00000e+00	
			         2.41500	-8.00000e+00	
			         2.41667	-9.00000e+00	
			         2.41833	-9.00000e+00	
			         2.42000	-9.00000e+00	
			         2.42167	-9.00000e+00	
			         2.42333	-9.00000e+00	
			         2.42500	-9.00000e+00	
			         2.42667	-9.00000e+00	
			         2.42833	-8.00000e+00	
			         2.43000	-8.00000e+00	
			         2.43167	-7.00000e+00	
			         2.43333	-6.00000e+00	
			         2.43500	-5.00000e+00	
			         2.43667	-5.00000e+00	
			         2.43833	-4.00000e+00	
			         2.44000	-3.00000e+00	
			         2.44167	-2.00000e+00	
			         2.44333	-2.00000e+00	
			         2.44500	-2.00000e+00	
			         2.44667	-2.00000e+00	
			         2.44833	-2.00000e+00	
			         2.45000	-3.00000e+00	
			         2.45167	-3.00000e+00	
			         2.45333	-4.00000e+00	
			         2.45500	-4.00000e+00	
			         2.45667	-5.00000e+00	
			         2.45833	-6.00000e+00	
			         2.46000	-6.00000e+00	
			         2.46167	-7.00000e+00	
			         2.46333	-7.00000e+00	
			         2.46500	-7.00000e+00	
			         2.46667	-8.00000e+00	
			         2.46833	-8.00000e+00	
			         2.47000	-8.00000e+00	
			         2.47167	-9.00000e+00	
			         2.47333	-9.00000e+00	
			         2.47500	-9.00000e+00	
			         2.47667	-9.00000e+00	
			         2.47833	-1.00000e+01	
			         2.48000	-1.00000e+01	
			         2.48167	-1.00000e+01	
			         2.48333	-1.00000e+01	
			         2.48500	-1.10000e+01	
			         2.48667	-1.10000e+01	
			         2.48833	-1.00000e+01	
			         2.49000	-1.00000e+01	
			         2.49167	-1.00000e+01	
			         2.49333	-9.00000e+00	
			         2.49500	-8.00000e+00	
			         2.49667	-8.00000e+00	
			         2.49833	-7.00000e+00	
			         2.50000	-6.00000e+00	
			         2.50167	-6.00000e+00	
			         2.50333	-5.00000e+00	
			         2.50500	-5.00000e+00	
			         2.50667	-4.00000e+00	
			         2.50833	-4.00000e+00	
			         2.51000	-4.00000e+00	
			         2.51167	-4.00000e+00	
			         2.51333	-5.00000e+00	
			         2.51500	-5.00000e+00	
			         2.51667	-5.00000e+00	
			         2.51833	-5.00000e+00	
			         2.52000	-5.00000e+00	
			         2.52167	-5.00000e+00	
			         2.52333	-5.00000e+00	
			         2.52500	-5.00000e+00	
			         2.52667	-4.00000e+00	
			         2.52833	-4.00000e+00	
			         2.53000	-3.00000e+00	
			         2.53167	-2.00000e+00	
			         2.53333	-2.00000e+00	
			         2.53500	-1.00000e+00	
			         2.53667	0.00000e+00	
			         2.53833	0.00000e+00	
			         2.54000	1.00000e+00	
			         2.54167	1.00000e+00	
			         2.54333	1.00000e+00	
			         2.54500	1.00000e+00	
			         2.54667	1.00000e+00	
			         2.54833	1.00000e+00	
			         2.55000	1.00000e+00	
			         2.55167	1.00000e+00	
			         2.55333	0.00000e+00	
			         2.55500	0.00000e+00	
			         2.55667	0.00000e+00	
			         2.55833	0.00000e+00	
			         2.56000	0.00000e+00	
			         2.56167	0.00000e+00	
			         2.56333	0.00000e+00	
			         2.56500	0.00000e+00	
			         2.56667	1.00000e+00	
			         2.56833	1.00000e+00	
			         2.57000	1.00000e+00	
			         2.57167	2.00000e+00	
			         2.57333	3.00000e+00	
			         2.57500	3.00000e+00	
			         2.57667	4.00000e+00	
			         2.57833	5.00000e+00	
			         2.58000	6.00000e+00	
			         2.58167	7.00000e+00	
			         2.58333	8.00000e+00	
			         2.58500	9.00000e+00	
			         2.58667	1.10000e+01	
			         2.58833	1.20000e+01	
			         2.59000	1.40000e+01	
			         2.59167	1.60000e+01	
			         2.59333	1.80000e+01	
			         2.59500	1.90000e+01	
			         2.59667	2.10000e+01	
			         2.59833	2.30000e+01	
			         2.60000	2.40000e+01	
			         2.60167	2.60000e+01	
			         2.60333	2.70000e+01	
			         2.60500	2.90000e+01	
			         2.60667	3.00000e+01	
			         2.60833	3.10000e+01	
			         2.61000	3.20000e+01	
			         2.61167	3.30000e+01	
			         2.61333	3.40000e+01	
			         2.61500	3.50000e+01	
			         2.61667	3.60000e+01	
			         2.61833	3.70000e+01	
			         2.62000	3.80000e+01	
			         2.62167	3.80000e+01	
			         2.62333	3.90000e+01	
			         2.62500	3.90000e+01	
			         2.62667	3.90000e+01	
			         2.62833	3.90000e+01	
			         2.63000	3.80000e+01	
			         2.63167	3.70000e+01	
			         2.63333	3.50000e+01	
			         2.63500	3.30000e+01	
			         2.63667	3.00000e+01	
			         2.63833	2.80000e+01	
			         2.64000	2.50000e+01	
			         2.64167	2.20000e+01	
			         2.64333	1.90000e+01	
			         2.64500	1.60000e+01	
			         2.64667	1.40000e+01	
			         2.64833	1.20000e+01	
			         2.65000	1.00000e+01	
			         2.65167	9.00000e+00	
			         2.65333	9.00000e+00	
			         2.65500	9.00000e+00	
			         2.65667	9.00000e+00	
			         2.65833	9.00000e+00	
			         2.66000	9.00000e+00	
			         2.66167	1.00000e+01	
			         2.66333	1.00000e+01	
			         2.66500	1.00000e+01	
			         2.66667	9.00000e+00	
			         2.66833	8.00000e+00	
			         2.67000	7.00000e+00	
			         2.67167	7.00000e+00	
			         2.67333	5.00000e+00	
			         2.67500	4.00000e+00	
			         2.67667	3.00000e+00	
			         2.67833	1.00000e+00	
			         2.68000	0.00000e+00	
			         2.68167	-2.00000e+00	
			         2.68333	-4.00000e+00	
			         2.68500	-6.00000e+00	
			         2.68667	-8.00000e+00	
			         2.68833	-1.00000e+01	
			         2.69000	-1.20000e+01	
			         2.69167	-1.40000e+01	
			         2.69333	-1.70000e+01	
			         2.69500	-1.90000e+01	
			         2.69667	-2.10000e+01	
			         2.69833	-2.30000e+01	
			         2.70000	-2.50000e+01	
			         2.70167	-2.70000e+01	
			         2.70333	-2.80000e+01	
			         2.70500	-2.90000e+01	
			         2.70667	-3.00000e+01	
			         2.70833	-3.10000e+01	
			         2.71000	-3.10000e+01	
			         2.71167	-3.10000e+01	
			         2.71333	-3.00000e+01	
			         2.71500	-3.00000e+01	
			         2.71667	-2.80000e+01	
			         2.71833	-2.70000e+01	
			         2.72000	-2.60000e+01	
			         2.72167	-2.40000e+01	
			         2.72333	-2.20000e+01	
			         2.72500	-2.10000e+01	
			         2.72667	-1.90000e+01	
			         2.72833	-1.80000e+01	
			         2.73000	-1.70000e+01	
			         2.73167	-1.60000e+01	
			         2.73333	-1.50000e+01	
			         2.73500	-1.40000e+01	
			         2.73667	-1.40000e+01	
			         2.73833	-1.30000e+01	
			         2.74000	-1.30000e+01	
			         2.74167	-1.30000e+01	
			         2.74333	-1.30000e+01	
			         2.74500	-1.20000e+01	
			         2.74667	-1.20000e+01	
			         2.74833	-1.20000e+01	
			         2.75000	-1.20000e+01	
			         2.75167	-1.10000e+01	
			         2.75333	-1.10000e+01	
			         2.75500	-1.10000e+01	
			         2.75667	-1.10000e+01	
			         2.75833	-1.10000e+01	
			         2.76000	-1.00000e+01	
			         2.76167	-1.00000e+01	
			         2.76333	-1.00000e+01	
			         2.76500	-9.00000e+00	
			         2.76667	-8.00000e+00	
			         2.76833	-6.00000e+00	
			         2.77000	-3.00000e+00	
			         2.77167	1.00000e+00	
			         2.77333	5.00000e+00	
			         2.77500	1.10000e+01	
			         2.77667	1.80000e+01	
			         2.77833	2.60000e+01	
			         2.78000	3.40000e+01	
			         2.78167	4.40000e+01	
			         2.78333	5.40000e+01	
			         2.78500	6.50000e+01	
			         2.78667	7.70000e+01	
			         2.78833	9.00000e+01	
			         2.79000	1.04000e+02	
			         2.79167	1.19000e+02	
			         2.79333	1.33000e+02	
			         2.79500	1.46000e+02	
			         2.79667	1.58000e+02	
			         2.79833	1.66000e+02	
			         2.80000	1.71000e+02	
			         2.80167	1.72000e+02	
			         2.80333	1.68000e+02	
			         2.80500	1.58000e+02	
			         2.80667	1.42000e+02	
			         2.80833	1.20000e+02	
			         2.81000	9.10000e+01	
			         2.81167	5.60000e+01	
			         2.81333	1.70000e+01	
			         2.81500	-2.60000e+01	
			         2.81667	-7.00000e+01	
			         2.81833	-1.13000e+02	
			         2.82000	-1.54000e+02	
			         2.82167	-1.92000e+02	
			         2.82333	-2.23000e+02	
			         2.82500	-2.49000e+02	
			         2.82667	-2.68000e+02	
			         2.82833	-2.80000e+02	
			         2.83000	-2.84000e+02	
			         2.83167	-2.81000e+02	
			         2.83333	-2.72000e+02	
			         2.83500	-2.57000e+02	
			         2.83667	-2.37000e+02	
			         2.83833	-2.14000e+02	
			         2.84000	-1.89000e+02	
			         2.84167	-1.63000e+02	
			         2.84333	-1.37000e+02	
			         2.84500	-1.12000e+02	
			         2.84667	-8.80000e+01	
			         2.84833	-6.70000e+01	
			         2.85000	-4.70000e+01	
			         2.85167	-3.10000e+01	
			         2.85333	-1.60000e+01	
			         2.85500	-4.00000e+00	
			         2.85667	6.00000e+00	
			         2.85833	1.40000e+01	
			         2.86000	2.00000e+01	
			         2.86167	2.50000e+01	
			         2.86333	2.90000e+01	
			         2.86500	3.10000e+01	
			         2.86667	3.30000e+01	
			         2.86833	3.50000e+01	
			         2.87000	3.60000e+01	
			         2.87167	3.70000e+01	
			         2.87333	3.70000e+01	
			         2.87500	3.70000e+01	
			         2.87667	3.80000e+01	
			         2.87833	3.70000e+01	
			         2.88000	3.70000e+01	
			         2.88167	3.70000e+01	
			         2.88333	3.60000e+01	
			         2.88500	3.60000e+01	
			         2.88667	3.50000e+01	
			         2.88833	3.40000e+01	
			         2.89000	3.30000e+01	
			         2.89167	3.20000e+01	
			         2.89333	3.10000e+01	
			         2.89500	3.00000e+01	
			         2.89667	2.90000e+01	
			         2.89833	2.80000e+01	
			         2.90000	2.70000e+01	
			         2.90167	2.70000e+01	
			         2.90333	2.70000e+01	
			         2.90500	2.70000e+01	
