Grayscale intensity, in dB

Time (s) :	Trace 1 : 	Trace 2 : 	Trace 3 : 		Ecg : 		
0.00105   	-3.59082e+01	-4.00210e+01	-3.93774e+01		         0.00000	1.75000e+02	
0.01803   	-3.56023e+01	-3.96128e+01	-4.13079e+01		         0.00167	1.79000e+02	
0.03501   	-3.74354e+01	-4.04739e+01	-4.25050e+01		         0.00333	1.80000e+02	
0.05199   	-3.82904e+01	-4.01900e+01	-4.28703e+01		         0.00500	1.78000e+02	
0.06897   	-3.71739e+01	-4.03091e+01	-4.30376e+01		         0.00667	1.72000e+02	
0.08595   	-3.76393e+01	-4.12440e+01	-3.93342e+01		         0.00833	1.62000e+02	
0.10293   	-3.72390e+01	-4.41356e+01	-3.81535e+01		         0.01000	1.48000e+02	
0.11991   	-3.38250e+01	-4.58424e+01	-3.60637e+01		         0.01167	1.30000e+02	
0.13689   	-3.13690e+01	-4.68490e+01	-3.49226e+01		         0.01333	1.10000e+02	
0.15387   	-3.01750e+01	-4.58557e+01	-3.32962e+01		         0.01500	8.80000e+01	
0.17085   	-3.07293e+01	-4.42582e+01	-3.40786e+01		         0.01667	6.50000e+01	
0.18783   	-3.05027e+01	-4.29069e+01	-3.22430e+01		         0.01833	4.10000e+01	
0.20481   	-3.01869e+01	-4.24773e+01	-3.23197e+01		         0.02000	1.70000e+01	
0.22179   	-3.08508e+01	-4.27132e+01	-3.13811e+01		         0.02167	-6.00000e+00	
0.23877   	-3.19983e+01	-4.12616e+01	-3.17543e+01		         0.02333	-2.80000e+01	
0.25575   	-3.28983e+01	-4.28522e+01	-3.36382e+01		         0.02500	-4.90000e+01	
0.27273   	-3.30957e+01	-4.36837e+01	-3.38780e+01		         0.02667	-6.80000e+01	
0.28971   	-3.37569e+01	-4.78604e+01	-3.50481e+01		         0.02833	-8.40000e+01	
0.30669   	-3.50333e+01	-4.79250e+01	-3.73292e+01		         0.03000	-9.80000e+01	
0.32367   	-3.57938e+01	-4.91646e+01	-3.86110e+01		         0.03167	-1.10000e+02	
0.34065   	-3.64021e+01	-4.97517e+01	-3.91165e+01		         0.03333	-1.19000e+02	
0.35763   	-3.68635e+01	-4.80356e+01	-3.97431e+01		         0.03500	-1.26000e+02	
0.37461   	-3.72669e+01	-4.75900e+01	-3.96269e+01		         0.03667	-1.31000e+02	
0.39159   	-3.72864e+01	-4.80171e+01	-4.08721e+01		         0.03833	-1.34000e+02	
0.40857   	-3.76045e+01	-4.98466e+01	-3.95632e+01		         0.04000	-1.34000e+02	
0.42556   	-3.84819e+01	-4.75126e+01	-3.99529e+01		         0.04167	-1.33000e+02	
0.44254   	-3.90463e+01	-4.74166e+01	-3.87284e+01		         0.04333	-1.30000e+02	
0.45951   	-3.64488e+01	-4.93281e+01	-4.03641e+01		         0.04500	-1.25000e+02	
0.47649   	-3.52898e+01	-4.94919e+01	-3.93714e+01		         0.04667	-1.19000e+02	
0.49347   	-3.48267e+01	-5.18594e+01	-3.84934e+01		         0.04833	-1.12000e+02	
0.51045   	-3.56080e+01	-5.34413e+01	-3.94650e+01		         0.05000	-1.04000e+02	
0.52743   	-3.61440e+01	-5.37038e+01	-3.85421e+01		         0.05167	-9.60000e+01	
0.54441   	-3.68342e+01	-5.23452e+01	-4.04250e+01		         0.05333	-8.70000e+01	
0.56139   	-3.77068e+01	-5.24155e+01	-3.96520e+01		         0.05500	-7.90000e+01	
0.57837   	-3.79763e+01	-5.17230e+01	-3.97547e+01		         0.05667	-7.10000e+01	
0.59535   	-3.94953e+01	-5.10383e+01	-4.07043e+01		         0.05833	-6.30000e+01	
0.61233   	-3.86565e+01	-5.07319e+01	-3.94286e+01		         0.06000	-5.60000e+01	
0.62931   	-3.78405e+01	-4.97708e+01	-3.91812e+01		         0.06167	-4.90000e+01	
0.64629   	-3.64866e+01	-4.90426e+01	-3.85876e+01		         0.06333	-4.40000e+01	
0.66327   	-3.40631e+01	-4.70979e+01	-3.83769e+01		         0.06500	-3.90000e+01	
0.68064   	-3.38328e+01	-4.73177e+01	-3.79183e+01		         0.06667	-3.50000e+01	
0.69740   	-3.49762e+01	-4.38991e+01	-3.79231e+01		         0.06833	-3.20000e+01	
0.71421   	-3.54827e+01	-4.34497e+01	-3.75102e+01		         0.07000	-2.90000e+01	
0.73119   	-3.51455e+01	-4.29065e+01	-3.76358e+01		         0.07167	-2.70000e+01	
0.74817   	-3.43291e+01	-4.32958e+01	-3.74388e+01		         0.07333	-2.60000e+01	
0.76515   	-3.37132e+01	-4.21920e+01	-3.61251e+01		         0.07500	-2.50000e+01	
0.78213   	-3.36235e+01	-4.20849e+01	-3.62204e+01		         0.07667	-2.40000e+01	
0.79911   	-3.38303e+01	-4.22449e+01	-3.67462e+01		         0.07833	-2.40000e+01	
0.81609   	-3.39920e+01	-4.19851e+01	-3.77421e+01		         0.08000	-2.40000e+01	
0.83307   	-3.39565e+01	-4.13701e+01	-3.86541e+01		         0.08167	-2.40000e+01	
0.85006   	-3.40060e+01	-4.09585e+01	-3.91445e+01		         0.08333	-2.40000e+01	
0.86703   	-3.41183e+01	-4.05747e+01	-3.91450e+01		         0.08500	-2.40000e+01	
0.88401   	-3.42218e+01	-4.09187e+01	-3.92563e+01		         0.08667	-2.40000e+01	
0.90099   	-3.42171e+01	-4.10730e+01	-3.95448e+01		         0.08833	-2.40000e+01	
0.91797   	-3.41462e+01	-4.08004e+01	-3.99028e+01		         0.09000	-2.40000e+01	
0.93495   	-3.40751e+01	-4.04452e+01	-4.01794e+01		         0.09167	-2.30000e+01	
0.95193   	-3.39326e+01	-4.00003e+01	-4.06476e+01		         0.09333	-2.30000e+01	
0.96891   	-3.36241e+01	-3.98390e+01	-4.09039e+01		         0.09500	-2.30000e+01	
0.98589   	-3.33649e+01	-3.99739e+01	-4.06811e+01		         0.09667	-2.20000e+01	
1.00287   	-3.31588e+01	-3.97024e+01	-4.00811e+01		         0.09833	-2.20000e+01	
1.01985   	-3.30154e+01	-3.95805e+01	-3.94921e+01		         0.10000	-2.10000e+01	
1.03683   	-3.30410e+01	-3.98257e+01	-3.92115e+01		         0.10167	-2.00000e+01	
1.05381   	-3.31945e+01	-4.02508e+01	-3.92931e+01		         0.10333	-2.00000e+01	
1.07079   	-3.33819e+01	-4.08945e+01	-3.92546e+01		         0.10500	-1.90000e+01	
1.08777   	-3.34352e+01	-4.03591e+01	-3.91024e+01		         0.10667	-1.90000e+01	
1.10475   	-3.34945e+01	-4.14933e+01	-3.89864e+01		         0.10833	-1.80000e+01	
1.12173   	-3.46799e+01	-4.04541e+01	-4.13414e+01		         0.11000	-1.80000e+01	
1.13871   	-3.55855e+01	-4.21702e+01	-4.17015e+01		         0.11167	-1.70000e+01	
1.15569   	-3.62849e+01	-4.28835e+01	-4.22813e+01		         0.11333	-1.70000e+01	
1.17267   	-3.79165e+01	-4.57330e+01	-4.03796e+01		         0.11500	-1.60000e+01	
1.18965   	-3.84516e+01	-4.57187e+01	-3.94610e+01		         0.11667	-1.60000e+01	
1.20663   	-3.85817e+01	-4.57989e+01	-4.01789e+01		         0.11833	-1.50000e+01	
1.22361   	-3.66224e+01	-4.74365e+01	-4.10687e+01		         0.12000	-1.50000e+01	
1.24059   	-3.56128e+01	-4.86302e+01	-3.80299e+01		         0.12167	-1.40000e+01	
1.25757   	-3.57221e+01	-4.98275e+01	-3.78361e+01		         0.12333	-1.30000e+01	
1.27455   	-3.58682e+01	-4.91128e+01	-3.69517e+01		         0.12500	-1.30000e+01	
1.29153   	-3.43041e+01	-4.75514e+01	-3.80816e+01		         0.12667	-1.20000e+01	
1.30851   	-3.33243e+01	-4.54779e+01	-3.71739e+01		         0.12833	-1.20000e+01	
1.32549   	-3.20425e+01	-4.34155e+01	-3.62708e+01		         0.13000	-1.10000e+01	
1.34247   	-3.14835e+01	-4.28636e+01	-3.51961e+01		         0.13167	-1.00000e+01	
1.35945   	-3.16093e+01	-4.06702e+01	-3.44297e+01		         0.13333	-1.00000e+01	
1.37643   	-3.15132e+01	-3.99811e+01	-3.57358e+01		         0.13500	-9.00000e+00	
1.39341   	-3.33171e+01	-3.91466e+01	-3.51624e+01		         0.13667	-9.00000e+00	
1.41039   	-3.40374e+01	-3.81568e+01	-3.71815e+01		         0.13833	-8.00000e+00	
1.42762   	-3.45725e+01	-3.73675e+01	-3.68859e+01		         0.14000	-8.00000e+00	
1.44444   	-3.42520e+01	-3.93070e+01	-3.84704e+01		         0.14167	-7.00000e+00	
1.46133   	-3.41553e+01	-3.99957e+01	-3.94937e+01		         0.14333	-6.00000e+00	
1.47831   	-3.45190e+01	-4.23734e+01	-4.03770e+01		         0.14500	-5.00000e+00	
1.49529   	-3.46490e+01	-4.49775e+01	-3.93947e+01		         0.14667	-4.00000e+00	
1.51227   	-3.50215e+01	-4.38941e+01	-4.06505e+01		         0.14833	-3.00000e+00	
1.52925   	-3.49145e+01	-4.45611e+01	-3.98126e+01		         0.15000	-2.00000e+00	
1.54623   	-3.52356e+01	-4.51354e+01	-4.02118e+01		         0.15167	-1.00000e+00	
1.56322   	-3.57480e+01	-4.66327e+01	-4.06784e+01		         0.15333	0.00000e+00	
1.58020   	-3.64316e+01	-4.79180e+01	-4.00859e+01		         0.15500	1.00000e+00	
1.59718   	-3.73863e+01	-4.61785e+01	-4.04633e+01		         0.15667	2.00000e+00	
1.61415   	-3.81635e+01	-4.93156e+01	-4.03570e+01		         0.15833	3.00000e+00	
1.63114   	-3.75902e+01	-5.05729e+01	-4.06354e+01		         0.16000	4.00000e+00	
1.64812   	-3.56619e+01	-5.24136e+01	-4.06657e+01		         0.16167	5.00000e+00	
1.66509   	-3.73758e+01	-5.36790e+01	-4.21285e+01		         0.16333	5.00000e+00	
1.68207   	-4.00422e+01	-5.06296e+01	-4.13907e+01		         0.16500	6.00000e+00	
1.69905   	-4.27371e+01	-5.03190e+01	-4.07370e+01		         0.16667	6.00000e+00	
1.71603   	-4.51775e+01	-4.79916e+01	-3.96566e+01		         0.16833	7.00000e+00	
1.73302   	-4.72358e+01	-4.64817e+01	-4.10208e+01		         0.17000	8.00000e+00	
1.74999   	-4.62916e+01	-4.28576e+01	-4.19305e+01		         0.17167	8.00000e+00	
1.76697   	-4.43308e+01	-4.04051e+01	-4.02472e+01		         0.17333	9.00000e+00	
1.78395   	-4.36435e+01	-3.93720e+01	-3.90097e+01		         0.17500	1.00000e+01	
1.80093   	-4.31599e+01	-4.01611e+01	-3.75747e+01		         0.17667	1.10000e+01	
1.81791   	-4.40696e+01	-4.15742e+01	-3.62152e+01		         0.17833	1.10000e+01	
1.83489   	-4.32795e+01	-4.16727e+01	-3.58761e+01		         0.18000	1.20000e+01	
1.85187   	-4.15251e+01	-4.35660e+01	-3.51636e+01		         0.18167	1.40000e+01	
1.86886   	-3.91222e+01	-4.61603e+01	-3.50569e+01		         0.18333	1.50000e+01	
1.88583   	-3.76436e+01	-4.50954e+01	-3.53273e+01		         0.18500	1.60000e+01	
1.90282   	-3.59928e+01	-4.74929e+01	-3.59692e+01		         0.18667	1.70000e+01	
1.91979   	-3.39777e+01	-4.93648e+01	-3.64916e+01		         0.18833	1.80000e+01	
1.93677   	-3.25121e+01	-4.94532e+01	-3.69170e+01		         0.19000	1.90000e+01	
1.95376   	-3.16197e+01	-4.85258e+01	-3.69440e+01		         0.19167	1.90000e+01	
1.97074   	-3.10981e+01	-4.69336e+01	-3.67722e+01		         0.19333	2.00000e+01	
1.98772   	-3.11453e+01	-4.55160e+01	-3.69785e+01		         0.19500	2.10000e+01	
2.00469   	-3.12119e+01	-4.54029e+01	-3.69781e+01		         0.19667	2.20000e+01	
2.02167   	-3.13517e+01	-4.52082e+01	-3.70736e+01		         0.19833	2.30000e+01	
2.03865   	-3.16785e+01	-4.58780e+01	-3.74066e+01		         0.20000	2.30000e+01	
2.05563   	-3.18300e+01	-4.56922e+01	-3.78501e+01		         0.20167	2.40000e+01	
2.07261   	-3.20816e+01	-4.57480e+01	-3.81630e+01		         0.20333	2.50000e+01	
2.08959   	-3.22671e+01	-4.63214e+01	-3.87961e+01		         0.20500	2.50000e+01	
2.10657   	-3.24145e+01	-4.67555e+01	-3.91513e+01		         0.20667	2.60000e+01	
2.12356   	-3.26151e+01	-4.72840e+01	-3.96001e+01		         0.20833	2.70000e+01	
2.14053   	-3.28180e+01	-4.80817e+01	-3.99103e+01		         0.21000	2.80000e+01	
2.15751   	-3.30374e+01	-4.78704e+01	-4.00939e+01		         0.21167	2.90000e+01	
2.17449   	-3.33186e+01	-4.72209e+01	-3.89093e+01		         0.21333	3.00000e+01	
2.19152   	-3.35985e+01	-4.68995e+01	-3.85444e+01		         0.21500	3.20000e+01	
2.20846   	-3.38518e+01	-4.62941e+01	-3.82654e+01		         0.21667	3.30000e+01	
2.22544   	-3.41887e+01	-4.62184e+01	-3.80596e+01		         0.21833	3.50000e+01	
2.24241   	-3.44292e+01	-4.51763e+01	-3.81349e+01		         0.22000	3.70000e+01	
2.25939   	-3.46460e+01	-4.62131e+01	-3.80762e+01		         0.22167	3.90000e+01	
2.27637   	-3.49707e+01	-4.60036e+01	-3.79297e+01		         0.22333	4.20000e+01	
2.29335   	-3.53924e+01	-4.28406e+01	-3.87581e+01		         0.22500	4.40000e+01	
2.31034   	-3.54466e+01	-4.14558e+01	-3.94244e+01		         0.22667	4.70000e+01	
2.32732   	-3.70557e+01	-4.18615e+01	-3.96422e+01		         0.22833	4.90000e+01	
2.34430   	-3.61137e+01	-4.35093e+01	-3.87977e+01		         0.23000	5.20000e+01	
2.36128   	-3.74531e+01	-4.19350e+01	-3.85734e+01		         0.23167	5.40000e+01	
2.37826   	-3.77699e+01	-4.02814e+01	-3.85274e+01		         0.23333	5.70000e+01	
2.39524   	-3.84292e+01	-3.95427e+01	-3.99475e+01		         0.23500	5.90000e+01	
2.41222   	-3.99317e+01	-3.96590e+01	-4.25770e+01		         0.23667	6.10000e+01	
2.42920   	-4.12251e+01	-3.91993e+01	-4.43501e+01		         0.23833	6.40000e+01	
2.44618   	-4.02167e+01	-3.75715e+01	-4.60361e+01		         0.24000	6.60000e+01	
2.46316   	-3.92672e+01	-3.90212e+01	-4.35489e+01		         0.24167	6.80000e+01	
2.48014   	-3.88212e+01	-4.01911e+01	-4.39218e+01		         0.24333	7.00000e+01	
2.49712   	-3.85026e+01	-4.12368e+01	-4.28924e+01		         0.24500	7.20000e+01	
2.51410   	-3.80294e+01	-4.24762e+01	-3.91820e+01		         0.24667	7.50000e+01	
2.53108   	-3.69641e+01	-4.21653e+01	-3.60007e+01		         0.24833	7.70000e+01	
2.54806   	-3.65174e+01	-4.22156e+01	-3.49023e+01		         0.25000	7.90000e+01	
2.56504   	-3.69434e+01	-4.08668e+01	-3.49063e+01		         0.25167	8.20000e+01	
2.58202   	-3.71589e+01	-4.16383e+01	-3.54838e+01		         0.25333	8.40000e+01	
2.59900   	-3.65730e+01	-4.06052e+01	-3.60462e+01		         0.25500	8.60000e+01	
2.61598   	-3.77199e+01	-4.32031e+01	-3.67216e+01		         0.25667	8.90000e+01	
2.63296   	-3.98590e+01	-4.62775e+01	-3.72360e+01		         0.25833	9.10000e+01	
2.64994   	-4.17249e+01	-4.61067e+01	-3.81176e+01		         0.26000	9.40000e+01	
2.66692   	-4.41602e+01	-4.89875e+01	-3.77031e+01		         0.26167	9.60000e+01	
2.68390   	-4.64351e+01	-5.06605e+01	-3.78976e+01		         0.26333	9.90000e+01	
2.70088   	-4.74482e+01	-5.08724e+01	-3.76353e+01		         0.26500	1.02000e+02	
2.71786   	-4.78842e+01	-5.22997e+01	-3.89836e+01		         0.26667	1.04000e+02	
2.73484   	-4.83804e+01	-5.29978e+01	-4.01169e+01		         0.26833	1.07000e+02	
2.75181   	-4.87500e+01	-5.17620e+01	-4.13941e+01		         0.27000	1.10000e+02	
2.76880   	-4.89854e+01	-5.53140e+01	-4.02342e+01		         0.27167	1.12000e+02	
2.78578   	-4.90919e+01	-5.26900e+01	-3.99112e+01		         0.27333	1.15000e+02	
2.80276   	-4.82171e+01	-5.01711e+01	-3.73009e+01		         0.27500	1.18000e+02	
2.81974   	-4.84506e+01	-4.73625e+01	-3.60407e+01		         0.27667	1.20000e+02	
2.83671   	-4.81024e+01	-4.65356e+01	-3.50645e+01		         0.27833	1.23000e+02	
2.85369   	-4.93820e+01	-4.77626e+01	-3.43171e+01		         0.28000	1.25000e+02	
2.87068   	-5.03673e+01	-4.82825e+01	-3.53174e+01		         0.28167	1.28000e+02	
2.88766   	-5.20222e+01	-4.49764e+01	-3.58577e+01		         0.28333	1.30000e+02	
2.90463   	-5.28259e+01	-4.32116e+01	-3.76956e+01		         0.28500	1.32000e+02	
2.92197   	-5.31901e+01	-4.18359e+01	-3.75328e+01		         0.28667	1.34000e+02	
2.93860   	-5.56994e+01	-4.03953e+01	-3.89725e+01		         0.28833	1.36000e+02	
2.95558   	-5.31104e+01	-3.96778e+01	-3.99375e+01		         0.29000	1.37000e+02	
2.97256   	-4.86906e+01	-3.68087e+01	-3.94184e+01		         0.29167	1.39000e+02	
2.98954   	-4.28571e+01	-3.47246e+01	-3.84147e+01		         0.29333	1.40000e+02	
3.00652   	-4.18725e+01	-3.60596e+01	-3.83887e+01		         0.29500	1.41000e+02	
3.02350   	-4.04453e+01	-3.46552e+01	-3.82479e+01		         0.29667	1.41000e+02	
3.04048   	-3.96777e+01	-3.56416e+01	-3.74527e+01		         0.29833	1.42000e+02	
3.05746   	-4.18137e+01	-3.56608e+01	-3.71452e+01		         0.30000	1.42000e+02	
3.07444   	-4.39548e+01	-3.58275e+01	-3.73122e+01		         0.30167	1.42000e+02	
3.09142   	-4.58564e+01	-3.64094e+01	-3.76072e+01		         0.30333	1.42000e+02	
3.10840   	-4.70183e+01	-3.79631e+01	-3.86105e+01		         0.30500	1.41000e+02	
3.12538   	-4.63996e+01	-3.89983e+01	-3.92930e+01		         0.30667	1.40000e+02	
3.14236   	-4.53901e+01	-3.97979e+01	-3.97817e+01		         0.30833	1.39000e+02	
3.15934   	-4.39432e+01	-4.06520e+01	-4.08664e+01		         0.31000	1.37000e+02	
3.17632   	-4.21970e+01	-4.18603e+01	-4.13045e+01		         0.31167	1.36000e+02	
3.19330   	-4.11573e+01	-4.25769e+01	-4.07973e+01		         0.31333	1.34000e+02	
3.21028   	-4.07458e+01	-4.29544e+01	-4.03108e+01		         0.31500	1.31000e+02	
3.22726   	-4.07290e+01	-4.32460e+01	-3.97442e+01		         0.31667	1.29000e+02	
3.24424   	-4.07881e+01	-4.36132e+01	-3.94212e+01		         0.31833	1.26000e+02	
3.26122   	-4.07662e+01	-4.33514e+01	-3.92688e+01		         0.32000	1.23000e+02	
3.27820   	-4.02206e+01	-4.39579e+01	-3.92588e+01		         0.32167	1.19000e+02	
3.29518   	-3.96716e+01	-4.43616e+01	-3.95681e+01		         0.32333	1.15000e+02	
3.31216   	-3.90536e+01	-4.41190e+01	-3.97892e+01		         0.32500	1.11000e+02	
3.32914   	-3.84109e+01	-4.36862e+01	-3.95118e+01		         0.32667	1.06000e+02	
3.34612   	-3.78969e+01	-4.34516e+01	-3.91458e+01		         0.32833	1.01000e+02	
3.36310   	-3.74242e+01	-4.32397e+01	-3.88384e+01		         0.33000	9.60000e+01	
3.38008   	-3.70989e+01	-4.30731e+01	-3.84989e+01		         0.33167	9.10000e+01	
3.39706   	-3.68880e+01	-4.29905e+01	-3.83742e+01		         0.33333	8.50000e+01	
3.41404   	-3.67556e+01	-4.28580e+01	-3.83791e+01		         0.33500	7.80000e+01	
3.43102   	-3.65554e+01	-4.24740e+01	-3.82522e+01		         0.33667	7.20000e+01	
3.44800   	-3.64086e+01	-4.19595e+01	-3.81419e+01		         0.33833	6.50000e+01	
3.46498   	-3.62236e+01	-4.24582e+01	-3.81122e+01		         0.34000	5.90000e+01	
3.48196   	-3.63524e+01	-4.36674e+01	-3.80821e+01		         0.34167	5.20000e+01	
3.49894   	-3.78685e+01	-4.23240e+01	-3.83236e+01		         0.34333	4.50000e+01	
3.51592   	-3.93271e+01	-4.17592e+01	-3.95083e+01		         0.34500	3.80000e+01	
3.53290   	-3.99812e+01	-4.16010e+01	-4.01032e+01		         0.34667	3.10000e+01	
3.54988   	-3.92416e+01	-4.17690e+01	-4.03964e+01		         0.34833	2.40000e+01	
3.56686   	-3.80561e+01	-4.06009e+01	-3.98282e+01		         0.35000	1.70000e+01	
3.58384   	-3.80498e+01	-3.89662e+01	-3.93631e+01		         0.35167	1.00000e+01	
3.60082   	-3.76650e+01	-3.88435e+01	-3.92596e+01		         0.35333	4.00000e+00	
3.61780   	-3.90964e+01	-3.90344e+01	-3.92244e+01		         0.35500	-3.00000e+00	
3.63478   	-4.00223e+01	-3.97437e+01	-4.21320e+01		         0.35667	-1.00000e+01	
					         0.35833	-1.60000e+01	
					         0.36000	-2.20000e+01	
					         0.36167	-2.80000e+01	
					         0.36333	-3.40000e+01	
					         0.36500	-3.90000e+01	
					         0.36667	-4.40000e+01	
					         0.36833	-4.90000e+01	
					         0.37000	-5.30000e+01	
					         0.37167	-5.70000e+01	
					         0.37333	-6.10000e+01	
					         0.37500	-6.50000e+01	
					         0.37667	-6.90000e+01	
					         0.37833	-7.20000e+01	
					         0.38000	-7.50000e+01	
					         0.38167	-7.80000e+01	
					         0.38333	-8.10000e+01	
					         0.38500	-8.30000e+01	
					         0.38667	-8.60000e+01	
					         0.38833	-8.80000e+01	
					         0.39000	-9.00000e+01	
					         0.39167	-9.10000e+01	
					         0.39333	-9.30000e+01	
					         0.39500	-9.40000e+01	
					         0.39667	-9.50000e+01	
					         0.39833	-9.60000e+01	
					         0.40000	-9.70000e+01	
					         0.40167	-9.70000e+01	
					         0.40333	-9.80000e+01	
					         0.40500	-9.80000e+01	
					         0.40667	-9.80000e+01	
					         0.40833	-9.70000e+01	
					         0.41000	-9.70000e+01	
					         0.41167	-9.60000e+01	
					         0.41333	-9.50000e+01	
					         0.41500	-9.40000e+01	
					         0.41667	-9.20000e+01	
					         0.41833	-9.10000e+01	
					         0.42000	-9.00000e+01	
					         0.42167	-8.80000e+01	
					         0.42333	-8.70000e+01	
					         0.42500	-8.50000e+01	
					         0.42667	-8.40000e+01	
					         0.42833	-8.30000e+01	
					         0.43000	-8.10000e+01	
					         0.43167	-8.00000e+01	
					         0.43333	-7.90000e+01	
					         0.43500	-7.70000e+01	
					         0.43667	-7.60000e+01	
					         0.43833	-7.40000e+01	
					         0.44000	-7.20000e+01	
					         0.44167	-7.00000e+01	
					         0.44333	-6.80000e+01	
					         0.44500	-6.60000e+01	
					         0.44667	-6.40000e+01	
					         0.44833	-6.20000e+01	
					         0.45000	-6.00000e+01	
					         0.45167	-5.80000e+01	
					         0.45333	-5.70000e+01	
					         0.45500	-5.60000e+01	
					         0.45667	-5.40000e+01	
					         0.45833	-5.30000e+01	
					         0.46000	-5.20000e+01	
					         0.46167	-5.10000e+01	
					         0.46333	-5.00000e+01	
					         0.46500	-4.90000e+01	
					         0.46667	-4.70000e+01	
					         0.46833	-4.60000e+01	
					         0.47000	-4.50000e+01	
					         0.47167	-4.30000e+01	
					         0.47333	-4.20000e+01	
					         0.47500	-4.00000e+01	
					         0.47667	-3.90000e+01	
					         0.47833	-3.70000e+01	
					         0.48000	-3.60000e+01	
					         0.48167	-3.50000e+01	
					         0.48333	-3.40000e+01	
					         0.48500	-3.30000e+01	
					         0.48667	-3.20000e+01	
					         0.48833	-3.10000e+01	
					         0.49000	-3.10000e+01	
					         0.49167	-3.00000e+01	
					         0.49333	-3.00000e+01	
					         0.49500	-2.90000e+01	
					         0.49667	-2.90000e+01	
					         0.49833	-2.80000e+01	
					         0.50000	-2.80000e+01	
					         0.50167	-2.70000e+01	
					         0.50333	-2.60000e+01	
					         0.50500	-2.50000e+01	
					         0.50667	-2.50000e+01	
					         0.50833	-2.40000e+01	
					         0.51000	-2.30000e+01	
					         0.51167	-2.20000e+01	
					         0.51333	-2.20000e+01	
					         0.51500	-2.10000e+01	
					         0.51667	-2.00000e+01	
					         0.51833	-1.90000e+01	
					         0.52000	-1.90000e+01	
					         0.52167	-1.80000e+01	
					         0.52333	-1.80000e+01	
					         0.52500	-1.70000e+01	
					         0.52667	-1.70000e+01	
					         0.52833	-1.60000e+01	
					         0.53000	-1.60000e+01	
					         0.53167	-1.50000e+01	
					         0.53333	-1.50000e+01	
					         0.53500	-1.50000e+01	
					         0.53667	-1.40000e+01	
					         0.53833	-1.40000e+01	
					         0.54000	-1.40000e+01	
					         0.54167	-1.30000e+01	
					         0.54333	-1.30000e+01	
					         0.54500	-1.30000e+01	
					         0.54667	-1.30000e+01	
					         0.54833	-1.30000e+01	
					         0.55000	-1.30000e+01	
					         0.55167	-1.30000e+01	
					         0.55333	-1.30000e+01	
					         0.55500	-1.30000e+01	
					         0.55667	-1.30000e+01	
					         0.55833	-1.40000e+01	
					         0.56000	-1.40000e+01	
					         0.56167	-1.50000e+01	
					         0.56333	-1.50000e+01	
					         0.56500	-1.50000e+01	
					         0.56667	-1.60000e+01	
					         0.56833	-1.60000e+01	
					         0.57000	-1.60000e+01	
					         0.57167	-1.60000e+01	
					         0.57333	-1.60000e+01	
					         0.57500	-1.50000e+01	
					         0.57667	-1.50000e+01	
					         0.57833	-1.40000e+01	
					         0.58000	-1.40000e+01	
					         0.58167	-1.40000e+01	
					         0.58333	-1.30000e+01	
					         0.58500	-1.30000e+01	
					         0.58667	-1.30000e+01	
					         0.58833	-1.30000e+01	
					         0.59000	-1.30000e+01	
					         0.59167	-1.30000e+01	
					         0.59333	-1.30000e+01	
					         0.59500	-1.30000e+01	
					         0.59667	-1.40000e+01	
					         0.59833	-1.40000e+01	
					         0.60000	-1.40000e+01	
					         0.60167	-1.40000e+01	
					         0.60333	-1.40000e+01	
					         0.60500	-1.50000e+01	
					         0.60667	-1.50000e+01	
					         0.60833	-1.50000e+01	
					         0.61000	-1.50000e+01	
					         0.61167	-1.50000e+01	
					         0.61333	-1.50000e+01	
					         0.61500	-1.50000e+01	
					         0.61667	-1.60000e+01	
					         0.61833	-1.60000e+01	
					         0.62000	-1.60000e+01	
					         0.62167	-1.60000e+01	
					         0.62333	-1.60000e+01	
					         0.62500	-1.60000e+01	
					         0.62667	-1.50000e+01	
					         0.62833	-1.50000e+01	
					         0.63000	-1.40000e+01	
					         0.63167	-1.40000e+01	
					         0.63333	-1.30000e+01	
					         0.63500	-1.20000e+01	
					         0.63667	-1.10000e+01	
					         0.63833	-1.00000e+01	
					         0.64000	-1.00000e+01	
					         0.64167	-9.00000e+00	
					         0.64333	-9.00000e+00	
					         0.64500	-9.00000e+00	
					         0.64667	-8.00000e+00	
					         0.64833	-8.00000e+00	
					         0.65000	-8.00000e+00	
					         0.65167	-8.00000e+00	
					         0.65333	-8.00000e+00	
					         0.65500	-8.00000e+00	
					         0.65667	-8.00000e+00	
					         0.65833	-8.00000e+00	
					         0.66000	-8.00000e+00	
					         0.66167	-7.00000e+00	
					         0.66333	-7.00000e+00	
					         0.66500	-7.00000e+00	
					         0.66667	-7.00000e+00	
					         0.66833	-7.00000e+00	
					         0.67000	-7.00000e+00	
					         0.67167	-7.00000e+00	
					         0.67333	-7.00000e+00	
					         0.67500	-8.00000e+00	
					         0.67667	-8.00000e+00	
					         0.67833	-9.00000e+00	
					         0.68000	-9.00000e+00	
					         0.68167	-1.00000e+01	
					         0.68333	-1.00000e+01	
					         0.68500	-1.10000e+01	
					         0.68667	-1.10000e+01	
					         0.68833	-1.10000e+01	
					         0.69000	-1.20000e+01	
					         0.69167	-1.20000e+01	
					         0.69333	-1.20000e+01	
					         0.69500	-1.20000e+01	
					         0.69667	-1.20000e+01	
					         0.69833	-1.20000e+01	
					         0.70000	-1.20000e+01	
					         0.70167	-1.20000e+01	
					         0.70333	-1.20000e+01	
					         0.70500	-1.20000e+01	
					         0.70667	-1.20000e+01	
					         0.70833	-1.20000e+01	
					         0.71000	-1.20000e+01	
					         0.71167	-1.20000e+01	
					         0.71333	-1.20000e+01	
					         0.71500	-1.20000e+01	
					         0.71667	-1.10000e+01	
					         0.71833	-1.00000e+01	
					         0.72000	-1.00000e+01	
					         0.72167	-9.00000e+00	
					         0.72333	-8.00000e+00	
					         0.72500	-7.00000e+00	
					         0.72667	-6.00000e+00	
					         0.72833	-5.00000e+00	
					         0.73000	-5.00000e+00	
					         0.73167	-4.00000e+00	
					         0.73333	-4.00000e+00	
					         0.73500	-4.00000e+00	
					         0.73667	-4.00000e+00	
					         0.73833	-4.00000e+00	
					         0.74000	-5.00000e+00	
					         0.74167	-6.00000e+00	
					         0.74333	-6.00000e+00	
					         0.74500	-7.00000e+00	
					         0.74667	-8.00000e+00	
					         0.74833	-8.00000e+00	
					         0.75000	-9.00000e+00	
					         0.75167	-9.00000e+00	
					         0.75333	-9.00000e+00	
					         0.75500	-1.00000e+01	
					         0.75667	-1.00000e+01	
					         0.75833	-1.00000e+01	
					         0.76000	-9.00000e+00	
					         0.76167	-9.00000e+00	
					         0.76333	-9.00000e+00	
					         0.76500	-9.00000e+00	
					         0.76667	-9.00000e+00	
					         0.76833	-9.00000e+00	
					         0.77000	-9.00000e+00	
					         0.77167	-9.00000e+00	
					         0.77333	-9.00000e+00	
					         0.77500	-8.00000e+00	
					         0.77667	-8.00000e+00	
					         0.77833	-8.00000e+00	
					         0.78000	-7.00000e+00	
					         0.78167	-7.00000e+00	
					         0.78333	-6.00000e+00	
					         0.78500	-5.00000e+00	
					         0.78667	-5.00000e+00	
					         0.78833	-4.00000e+00	
					         0.79000	-3.00000e+00	
					         0.79167	-3.00000e+00	
					         0.79333	-2.00000e+00	
					         0.79500	-2.00000e+00	
					         0.79667	-1.00000e+00	
					         0.79833	-1.00000e+00	
					         0.80000	-1.00000e+00	
					         0.80167	0.00000e+00	
					         0.80333	0.00000e+00	
					         0.80500	0.00000e+00	
					         0.80667	1.00000e+00	
					         0.80833	1.00000e+00	
					         0.81000	2.00000e+00	
					         0.81167	2.00000e+00	
					         0.81333	2.00000e+00	
					         0.81500	2.00000e+00	
					         0.81667	3.00000e+00	
					         0.81833	3.00000e+00	
					         0.82000	3.00000e+00	
					         0.82167	2.00000e+00	
					         0.82333	2.00000e+00	
					         0.82500	1.00000e+00	
					         0.82667	0.00000e+00	
					         0.82833	0.00000e+00	
					         0.83000	-1.00000e+00	
					         0.83167	-2.00000e+00	
					         0.83333	-3.00000e+00	
					         0.83500	-3.00000e+00	
					         0.83667	-4.00000e+00	
					         0.83833	-4.00000e+00	
					         0.84000	-4.00000e+00	
					         0.84167	-4.00000e+00	
					         0.84333	-4.00000e+00	
					         0.84500	-5.00000e+00	
					         0.84667	-5.00000e+00	
					         0.84833	-5.00000e+00	
					         0.85000	-5.00000e+00	
					         0.85167	-5.00000e+00	
					         0.85333	-5.00000e+00	
					         0.85500	-5.00000e+00	
					         0.85667	-5.00000e+00	
					         0.85833	-5.00000e+00	
					         0.86000	-5.00000e+00	
					         0.86167	-5.00000e+00	
					         0.86333	-5.00000e+00	
					         0.86500	-5.00000e+00	
					         0.86667	-4.00000e+00	
					         0.86833	-4.00000e+00	
					         0.87000	-3.00000e+00	
					         0.87167	-3.00000e+00	
					         0.87333	-3.00000e+00	
					         0.87500	-2.00000e+00	
					         0.87667	-2.00000e+00	
					         0.87833	-2.00000e+00	
					         0.88000	-2.00000e+00	
					         0.88167	-2.00000e+00	
					         0.88333	-3.00000e+00	
					         0.88500	-3.00000e+00	
					         0.88667	-3.00000e+00	
					         0.88833	-3.00000e+00	
					         0.89000	-3.00000e+00	
					         0.89167	-4.00000e+00	
					         0.89333	-4.00000e+00	
					         0.89500	-4.00000e+00	
					         0.89667	-4.00000e+00	
					         0.89833	-4.00000e+00	
					         0.90000	-4.00000e+00	
					         0.90167	-4.00000e+00	
					         0.90333	-4.00000e+00	
					         0.90500	-4.00000e+00	
					         0.90667	-4.00000e+00	
					         0.90833	-4.00000e+00	
					         0.91000	-4.00000e+00	
					         0.91167	-5.00000e+00	
					         0.91333	-5.00000e+00	
					         0.91500	-5.00000e+00	
					         0.91667	-6.00000e+00	
					         0.91833	-6.00000e+00	
					         0.92000	-6.00000e+00	
					         0.92167	-7.00000e+00	
					         0.92333	-7.00000e+00	
					         0.92500	-8.00000e+00	
					         0.92667	-8.00000e+00	
					         0.92833	-9.00000e+00	
					         0.93000	-9.00000e+00	
					         0.93167	-9.00000e+00	
					         0.93333	-9.00000e+00	
					         0.93500	-9.00000e+00	
					         0.93667	-9.00000e+00	
					         0.93833	-9.00000e+00	
					         0.94000	-9.00000e+00	
					         0.94167	-9.00000e+00	
					         0.94333	-9.00000e+00	
					         0.94500	-8.00000e+00	
					         0.94667	-8.00000e+00	
					         0.94833	-8.00000e+00	
					         0.95000	-7.00000e+00	
					         0.95167	-7.00000e+00	
					         0.95333	-7.00000e+00	
					         0.95500	-7.00000e+00	
					         0.95667	-8.00000e+00	
					         0.95833	-8.00000e+00	
					         0.96000	-8.00000e+00	
					         0.96167	-9.00000e+00	
					         0.96333	-1.00000e+01	
					         0.96500	-1.00000e+01	
					         0.96667	-1.10000e+01	
					         0.96833	-1.20000e+01	
					         0.97000	-1.20000e+01	
					         0.97167	-1.30000e+01	
					         0.97333	-1.30000e+01	
					         0.97500	-1.40000e+01	
					         0.97667	-1.40000e+01	
					         0.97833	-1.40000e+01	
					         0.98000	-1.40000e+01	
					         0.98167	-1.30000e+01	
					         0.98333	-1.30000e+01	
					         0.98500	-1.20000e+01	
					         0.98667	-1.10000e+01	
					         0.98833	-1.00000e+01	
					         0.99000	-9.00000e+00	
					         0.99167	-7.00000e+00	
					         0.99333	-6.00000e+00	
					         0.99500	-4.00000e+00	
					         0.99667	-1.00000e+00	
					         0.99833	1.00000e+00	
					         1.00000	3.00000e+00	
					         1.00167	6.00000e+00	
					         1.00333	9.00000e+00	
					         1.00500	1.10000e+01	
					         1.00667	1.40000e+01	
					         1.00833	1.60000e+01	
					         1.01000	1.80000e+01	
					         1.01167	2.00000e+01	
					         1.01333	2.20000e+01	
					         1.01500	2.40000e+01	
					         1.01667	2.60000e+01	
					         1.01833	2.80000e+01	
					         1.02000	2.90000e+01	
					         1.02167	3.10000e+01	
					         1.02333	3.30000e+01	
					         1.02500	3.40000e+01	
					         1.02667	3.60000e+01	
					         1.02833	3.70000e+01	
					         1.03000	3.80000e+01	
					         1.03167	3.90000e+01	
					         1.03333	3.90000e+01	
					         1.03500	3.90000e+01	
					         1.03667	3.80000e+01	
					         1.03833	3.60000e+01	
					         1.04000	3.40000e+01	
					         1.04167	3.10000e+01	
					         1.04333	2.80000e+01	
					         1.04500	2.40000e+01	
					         1.04667	2.10000e+01	
					         1.04833	1.70000e+01	
					         1.05000	1.30000e+01	
					         1.05167	9.00000e+00	
					         1.05333	6.00000e+00	
					         1.05500	3.00000e+00	
					         1.05667	1.00000e+00	
					         1.05833	0.00000e+00	
					         1.06000	-1.00000e+00	
					         1.06167	-2.00000e+00	
					         1.06333	-2.00000e+00	
					         1.06500	-2.00000e+00	
					         1.06667	-2.00000e+00	
					         1.06833	-1.00000e+00	
					         1.07000	0.00000e+00	
					         1.07167	0.00000e+00	
					         1.07333	1.00000e+00	
					         1.07500	2.00000e+00	
					         1.07667	3.00000e+00	
					         1.07833	3.00000e+00	
					         1.08000	3.00000e+00	
					         1.08167	3.00000e+00	
					         1.08333	2.00000e+00	
					         1.08500	1.00000e+00	
					         1.08667	0.00000e+00	
					         1.08833	-2.00000e+00	
					         1.09000	-5.00000e+00	
					         1.09167	-7.00000e+00	
					         1.09333	-1.00000e+01	
					         1.09500	-1.40000e+01	
					         1.09667	-1.70000e+01	
					         1.09833	-2.00000e+01	
					         1.10000	-2.40000e+01	
					         1.10167	-2.70000e+01	
					         1.10333	-2.90000e+01	
					         1.10500	-3.20000e+01	
					         1.10667	-3.40000e+01	
					         1.10833	-3.50000e+01	
					         1.11000	-3.60000e+01	
					         1.11167	-3.70000e+01	
					         1.11333	-3.80000e+01	
					         1.11500	-3.90000e+01	
					         1.11667	-3.90000e+01	
					         1.11833	-3.90000e+01	
					         1.12000	-4.00000e+01	
					         1.12167	-4.00000e+01	
					         1.12333	-4.00000e+01	
					         1.12500	-4.00000e+01	
					         1.12667	-3.90000e+01	
					         1.12833	-3.90000e+01	
					         1.13000	-3.90000e+01	
					         1.13167	-3.80000e+01	
					         1.13333	-3.80000e+01	
					         1.13500	-3.70000e+01	
					         1.13667	-3.70000e+01	
					         1.13833	-3.60000e+01	
					         1.14000	-3.50000e+01	
					         1.14167	-3.50000e+01	
					         1.14333	-3.40000e+01	
					         1.14500	-3.40000e+01	
					         1.14667	-3.30000e+01	
					         1.14833	-3.20000e+01	
					         1.15000	-3.10000e+01	
					         1.15167	-3.00000e+01	
					         1.15333	-2.80000e+01	
					         1.15500	-2.50000e+01	
					         1.15667	-2.20000e+01	
					         1.15833	-1.70000e+01	
					         1.16000	-1.20000e+01	
					         1.16167	-5.00000e+00	
					         1.16333	3.00000e+00	
					         1.16500	1.20000e+01	
					         1.16667	2.10000e+01	
					         1.16833	3.20000e+01	
					         1.17000	4.30000e+01	
					         1.17167	5.50000e+01	
					         1.17333	6.80000e+01	
					         1.17500	8.10000e+01	
					         1.17667	9.60000e+01	
					         1.17833	1.11000e+02	
					         1.18000	1.27000e+02	
					         1.18167	1.42000e+02	
					         1.18333	1.56000e+02	
					         1.18500	1.68000e+02	
					         1.18667	1.79000e+02	
					         1.18833	1.88000e+02	
					         1.19000	1.93000e+02	
					         1.19167	1.95000e+02	
					         1.19333	1.93000e+02	
					         1.19500	1.87000e+02	
					         1.19667	1.77000e+02	
					         1.19833	1.62000e+02	
					         1.20000	1.43000e+02	
					         1.20167	1.21000e+02	
					         1.20333	9.70000e+01	
					         1.20500	7.10000e+01	
					         1.20667	4.40000e+01	
					         1.20833	1.60000e+01	
					         1.21000	-1.10000e+01	
					         1.21167	-3.70000e+01	
					         1.21333	-6.20000e+01	
					         1.21500	-8.50000e+01	
					         1.21667	-1.05000e+02	
					         1.21833	-1.22000e+02	
					         1.22000	-1.37000e+02	
					         1.22167	-1.49000e+02	
					         1.22333	-1.58000e+02	
					         1.22500	-1.64000e+02	
					         1.22667	-1.67000e+02	
					         1.22833	-1.67000e+02	
					         1.23000	-1.65000e+02	
					         1.23167	-1.60000e+02	
					         1.23333	-1.53000e+02	
					         1.23500	-1.45000e+02	
					         1.23667	-1.35000e+02	
					         1.23833	-1.25000e+02	
					         1.24000	-1.15000e+02	
					         1.24167	-1.05000e+02	
					         1.24333	-9.50000e+01	
					         1.24500	-8.60000e+01	
					         1.24667	-7.70000e+01	
					         1.24833	-7.00000e+01	
					         1.25000	-6.30000e+01	
					         1.25167	-5.80000e+01	
					         1.25333	-5.30000e+01	
					         1.25500	-5.00000e+01	
					         1.25667	-4.70000e+01	
					         1.25833	-4.50000e+01	
					         1.26000	-4.30000e+01	
					         1.26167	-4.20000e+01	
					         1.26333	-4.10000e+01	
					         1.26500	-4.00000e+01	
					         1.26667	-3.90000e+01	
					         1.26833	-3.90000e+01	
					         1.27000	-3.80000e+01	
					         1.27167	-3.80000e+01	
					         1.27333	-3.70000e+01	
					         1.27500	-3.70000e+01	
					         1.27667	-3.60000e+01	
					         1.27833	-3.50000e+01	
					         1.28000	-3.40000e+01	
					         1.28167	-3.40000e+01	
					         1.28333	-3.20000e+01	
					         1.28500	-3.10000e+01	
					         1.28667	-3.00000e+01	
					         1.28833	-2.90000e+01	
					         1.29000	-2.70000e+01	
					         1.29167	-2.60000e+01	
					         1.29333	-2.40000e+01	
					         1.29500	-2.20000e+01	
					         1.29667	-2.10000e+01	
					         1.29833	-1.90000e+01	
					         1.30000	-1.80000e+01	
					         1.30167	-1.70000e+01	
					         1.30333	-1.60000e+01	
					         1.30500	-1.50000e+01	
					         1.30667	-1.40000e+01	
					         1.30833	-1.30000e+01	
					         1.31000	-1.20000e+01	
					         1.31167	-1.20000e+01	
					         1.31333	-1.10000e+01	
					         1.31500	-1.10000e+01	
					         1.31667	-1.10000e+01	
					         1.31833	-1.00000e+01	
					         1.32000	-1.00000e+01	
					         1.32167	-9.00000e+00	
					         1.32333	-9.00000e+00	
					         1.32500	-8.00000e+00	
					         1.32667	-8.00000e+00	
					         1.32833	-7.00000e+00	
					         1.33000	-6.00000e+00	
					         1.33167	-5.00000e+00	
					         1.33333	-4.00000e+00	
					         1.33500	-3.00000e+00	
					         1.33667	-2.00000e+00	
					         1.33833	0.00000e+00	
					         1.34000	1.00000e+00	
					         1.34167	2.00000e+00	
					         1.34333	4.00000e+00	
					         1.34500	5.00000e+00	
					         1.34667	6.00000e+00	
					         1.34833	7.00000e+00	
					         1.35000	9.00000e+00	
					         1.35167	1.00000e+01	
					         1.35333	1.10000e+01	
					         1.35500	1.20000e+01	
					         1.35667	1.20000e+01	
					         1.35833	1.30000e+01	
					         1.36000	1.40000e+01	
					         1.36167	1.50000e+01	
					         1.36333	1.60000e+01	
					         1.36500	1.70000e+01	
					         1.36667	1.80000e+01	
					         1.36833	1.80000e+01	
					         1.37000	1.90000e+01	
					         1.37167	2.00000e+01	
					         1.37333	2.20000e+01	
					         1.37500	2.30000e+01	
					         1.37667	2.40000e+01	
					         1.37833	2.50000e+01	
					         1.38000	2.60000e+01	
					         1.38167	2.80000e+01	
					         1.38333	2.90000e+01	
					         1.38500	3.00000e+01	
					         1.38667	3.20000e+01	
					         1.38833	3.30000e+01	
					         1.39000	3.50000e+01	
					         1.39167	3.60000e+01	
					         1.39333	3.70000e+01	
					         1.39500	3.90000e+01	
					         1.39667	4.00000e+01	
					         1.39833	4.10000e+01	
					         1.40000	4.20000e+01	
					         1.40167	4.30000e+01	
					         1.40333	4.40000e+01	
					         1.40500	4.50000e+01	
					         1.40667	4.60000e+01	
					         1.40833	4.70000e+01	
					         1.41000	4.90000e+01	
					         1.41167	5.00000e+01	
					         1.41333	5.10000e+01	
					         1.41500	5.30000e+01	
					         1.41667	5.50000e+01	
					         1.41833	5.70000e+01	
					         1.42000	5.90000e+01	
					         1.42167	6.20000e+01	
					         1.42333	6.40000e+01	
					         1.42500	6.70000e+01	
					         1.42667	7.00000e+01	
					         1.42833	7.20000e+01	
					         1.43000	7.50000e+01	
					         1.43167	7.70000e+01	
					         1.43333	8.00000e+01	
					         1.43500	8.30000e+01	
					         1.43667	8.50000e+01	
					         1.43833	8.80000e+01	
					         1.44000	9.10000e+01	
					         1.44167	9.40000e+01	
					         1.44333	9.60000e+01	
					         1.44500	9.90000e+01	
					         1.44667	1.02000e+02	
					         1.44833	1.05000e+02	
					         1.45000	1.08000e+02	
					         1.45167	1.11000e+02	
					         1.45333	1.14000e+02	
					         1.45500	1.17000e+02	
					         1.45667	1.20000e+02	
					         1.45833	1.22000e+02	
					         1.46000	1.25000e+02	
					         1.46167	1.27000e+02	
					         1.46333	1.30000e+02	
					         1.46500	1.32000e+02	
					         1.46667	1.34000e+02	
					         1.46833	1.35000e+02	
					         1.47000	1.37000e+02	
					         1.47167	1.38000e+02	
					         1.47333	1.39000e+02	
					         1.47500	1.40000e+02	
					         1.47667	1.41000e+02	
					         1.47833	1.42000e+02	
					         1.48000	1.42000e+02	
					         1.48167	1.42000e+02	
					         1.48333	1.42000e+02	
					         1.48500	1.42000e+02	
					         1.48667	1.42000e+02	
					         1.48833	1.42000e+02	
					         1.49000	1.41000e+02	
					         1.49167	1.40000e+02	
					         1.49333	1.40000e+02	
					         1.49500	1.38000e+02	
					         1.49667	1.37000e+02	
					         1.49833	1.36000e+02	
					         1.50000	1.34000e+02	
					         1.50167	1.31000e+02	
					         1.50333	1.29000e+02	
					         1.50500	1.26000e+02	
					         1.50667	1.23000e+02	
					         1.50833	1.20000e+02	
					         1.51000	1.16000e+02	
					         1.51167	1.12000e+02	
					         1.51333	1.07000e+02	
					         1.51500	1.02000e+02	
					         1.51667	9.70000e+01	
					         1.51833	9.10000e+01	
					         1.52000	8.50000e+01	
					         1.52167	7.90000e+01	
					         1.52333	7.30000e+01	
					         1.52500	6.60000e+01	
					         1.52667	5.90000e+01	
					         1.52833	5.20000e+01	
					         1.53000	4.50000e+01	
					         1.53167	3.80000e+01	
					         1.53333	3.10000e+01	
					         1.53500	2.40000e+01	
					         1.53667	1.60000e+01	
					         1.53833	9.00000e+00	
					         1.54000	2.00000e+00	
					         1.54167	-4.00000e+00	
					         1.54333	-1.10000e+01	
					         1.54500	-1.70000e+01	
					         1.54667	-2.40000e+01	
					         1.54833	-3.00000e+01	
					         1.55000	-3.60000e+01	
					         1.55167	-4.20000e+01	
					         1.55333	-4.70000e+01	
					         1.55500	-5.20000e+01	
					         1.55667	-5.70000e+01	
					         1.55833	-6.10000e+01	
					         1.56000	-6.60000e+01	
					         1.56167	-6.90000e+01	
					         1.56333	-7.30000e+01	
					         1.56500	-7.60000e+01	
					         1.56667	-7.80000e+01	
					         1.56833	-8.10000e+01	
					         1.57000	-8.30000e+01	
					         1.57167	-8.40000e+01	
					         1.57333	-8.60000e+01	
					         1.57500	-8.70000e+01	
					         1.57667	-8.80000e+01	
					         1.57833	-8.80000e+01	
					         1.58000	-8.90000e+01	
					         1.58167	-8.90000e+01	
					         1.58333	-9.00000e+01	
					         1.58500	-9.00000e+01	
					         1.58667	-9.10000e+01	
					         1.58833	-9.20000e+01	
					         1.59000	-9.20000e+01	
					         1.59167	-9.30000e+01	
					         1.59333	-9.30000e+01	
					         1.59500	-9.40000e+01	
					         1.59667	-9.40000e+01	
					         1.59833	-9.40000e+01	
					         1.60000	-9.40000e+01	
					         1.60167	-9.40000e+01	
					         1.60333	-9.30000e+01	
					         1.60500	-9.30000e+01	
					         1.60667	-9.20000e+01	
					         1.60833	-9.10000e+01	
					         1.61000	-8.90000e+01	
					         1.61167	-8.80000e+01	
					         1.61333	-8.60000e+01	
					         1.61500	-8.40000e+01	
					         1.61667	-8.20000e+01	
					         1.61833	-8.10000e+01	
					         1.62000	-7.90000e+01	
					         1.62167	-7.70000e+01	
					         1.62333	-7.50000e+01	
					         1.62500	-7.30000e+01	
					         1.62667	-7.20000e+01	
					         1.62833	-7.00000e+01	
					         1.63000	-6.80000e+01	
					         1.63167	-6.70000e+01	
					         1.63333	-6.50000e+01	
					         1.63500	-6.40000e+01	
					         1.63667	-6.30000e+01	
					         1.63833	-6.10000e+01	
					         1.64000	-5.90000e+01	
					         1.64167	-5.80000e+01	
					         1.64333	-5.60000e+01	
					         1.64500	-5.40000e+01	
					         1.64667	-5.30000e+01	
					         1.64833	-5.10000e+01	
					         1.65000	-5.00000e+01	
					         1.65167	-4.80000e+01	
					         1.65333	-4.60000e+01	
					         1.65500	-4.50000e+01	
					         1.65667	-4.30000e+01	
					         1.65833	-4.20000e+01	
					         1.66000	-4.00000e+01	
					         1.66167	-3.90000e+01	
					         1.66333	-3.70000e+01	
					         1.66500	-3.50000e+01	
					         1.66667	-3.40000e+01	
					         1.66833	-3.20000e+01	
					         1.67000	-3.10000e+01	
					         1.67167	-3.00000e+01	
					         1.67333	-2.80000e+01	
					         1.67500	-2.70000e+01	
					         1.67667	-2.60000e+01	
					         1.67833	-2.50000e+01	
					         1.68000	-2.40000e+01	
					         1.68167	-2.30000e+01	
					         1.68333	-2.20000e+01	
					         1.68500	-2.10000e+01	
					         1.68667	-2.00000e+01	
					         1.68833	-2.00000e+01	
					         1.69000	-1.90000e+01	
					         1.69167	-1.80000e+01	
					         1.69333	-1.70000e+01	
					         1.69500	-1.70000e+01	
					         1.69667	-1.60000e+01	
					         1.69833	-1.50000e+01	
					         1.70000	-1.50000e+01	
					         1.70167	-1.40000e+01	
					         1.70333	-1.30000e+01	
					         1.70500	-1.20000e+01	
					         1.70667	-1.20000e+01	
					         1.70833	-1.10000e+01	
					         1.71000	-1.00000e+01	
					         1.71167	-9.00000e+00	
					         1.71333	-8.00000e+00	
					         1.71500	-8.00000e+00	
					         1.71667	-7.00000e+00	
					         1.71833	-6.00000e+00	
					         1.72000	-6.00000e+00	
					         1.72167	-5.00000e+00	
					         1.72333	-5.00000e+00	
					         1.72500	-5.00000e+00	
					         1.72667	-5.00000e+00	
					         1.72833	-5.00000e+00	
					         1.73000	-5.00000e+00	
					         1.73167	-5.00000e+00	
					         1.73333	-5.00000e+00	
					         1.73500	-6.00000e+00	
					         1.73667	-6.00000e+00	
					         1.73833	-6.00000e+00	
					         1.74000	-7.00000e+00	
					         1.74167	-7.00000e+00	
					         1.74333	-7.00000e+00	
					         1.74500	-7.00000e+00	
					         1.74667	-7.00000e+00	
					         1.74833	-7.00000e+00	
					         1.75000	-7.00000e+00	
					         1.75167	-7.00000e+00	
					         1.75333	-7.00000e+00	
					         1.75500	-7.00000e+00	
					         1.75667	-7.00000e+00	
					         1.75833	-6.00000e+00	
					         1.76000	-6.00000e+00	
					         1.76167	-6.00000e+00	
					         1.76333	-5.00000e+00	
					         1.76500	-5.00000e+00	
					         1.76667	-5.00000e+00	
					         1.76833	-4.00000e+00	
					         1.77000	-4.00000e+00	
					         1.77167	-4.00000e+00	
					         1.77333	-4.00000e+00	
					         1.77500	-4.00000e+00	
					         1.77667	-4.00000e+00	
					         1.77833	-4.00000e+00	
					         1.78000	-4.00000e+00	
					         1.78167	-5.00000e+00	
					         1.78333	-5.00000e+00	
					         1.78500	-6.00000e+00	
					         1.78667	-6.00000e+00	
					         1.78833	-7.00000e+00	
					         1.79000	-7.00000e+00	
					         1.79167	-8.00000e+00	
					         1.79333	-8.00000e+00	
					         1.79500	-9.00000e+00	
					         1.79667	-9.00000e+00	
					         1.79833	-1.00000e+01	
					         1.80000	-1.00000e+01	
					         1.80167	-1.10000e+01	
					         1.80333	-1.10000e+01	
					         1.80500	-1.10000e+01	
					         1.80667	-1.10000e+01	
					         1.80833	-1.10000e+01	
					         1.81000	-1.10000e+01	
					         1.81167	-1.10000e+01	
					         1.81333	-1.00000e+01	
					         1.81500	-1.00000e+01	
					         1.81667	-9.00000e+00	
					         1.81833	-9.00000e+00	
					         1.82000	-9.00000e+00	
					         1.82167	-8.00000e+00	
					         1.82333	-8.00000e+00	
					         1.82500	-8.00000e+00	
					         1.82667	-8.00000e+00	
					         1.82833	-8.00000e+00	
					         1.83000	-8.00000e+00	
					         1.83167	-8.00000e+00	
					         1.83333	-8.00000e+00	
					         1.83500	-9.00000e+00	
					         1.83667	-9.00000e+00	
					         1.83833	-9.00000e+00	
					         1.84000	-9.00000e+00	
					         1.84167	-9.00000e+00	
					         1.84333	-9.00000e+00	
					         1.84500	-9.00000e+00	
					         1.84667	-9.00000e+00	
					         1.84833	-8.00000e+00	
					         1.85000	-8.00000e+00	
					         1.85167	-7.00000e+00	
					         1.85333	-7.00000e+00	
					         1.85500	-6.00000e+00	
					         1.85667	-6.00000e+00	
					         1.85833	-5.00000e+00	
					         1.86000	-5.00000e+00	
					         1.86167	-5.00000e+00	
					         1.86333	-4.00000e+00	
					         1.86500	-4.00000e+00	
					         1.86667	-4.00000e+00	
					         1.86833	-4.00000e+00	
					         1.87000	-4.00000e+00	
					         1.87167	-4.00000e+00	
					         1.87333	-4.00000e+00	
					         1.87500	-5.00000e+00	
					         1.87667	-5.00000e+00	
					         1.87833	-5.00000e+00	
					         1.88000	-5.00000e+00	
					         1.88167	-6.00000e+00	
					         1.88333	-6.00000e+00	
					         1.88500	-6.00000e+00	
					         1.88667	-5.00000e+00	
					         1.88833	-5.00000e+00	
					         1.89000	-5.00000e+00	
					         1.89167	-4.00000e+00	
					         1.89333	-4.00000e+00	
					         1.89500	-3.00000e+00	
					         1.89667	-3.00000e+00	
					         1.89833	-2.00000e+00	
					         1.90000	-1.00000e+00	
					         1.90167	-1.00000e+00	
					         1.90333	-1.00000e+00	
					         1.90500	0.00000e+00	
					         1.90667	0.00000e+00	
					         1.90833	0.00000e+00	
					         1.91000	1.00000e+00	
					         1.91167	1.00000e+00	
					         1.91333	1.00000e+00	
					         1.91500	1.00000e+00	
					         1.91667	1.00000e+00	
					         1.91833	1.00000e+00	
					         1.92000	2.00000e+00	
					         1.92167	2.00000e+00	
					         1.92333	2.00000e+00	
					         1.92500	2.00000e+00	
					         1.92667	2.00000e+00	
					         1.92833	2.00000e+00	
					         1.93000	2.00000e+00	
					         1.93167	2.00000e+00	
					         1.93333	2.00000e+00	
					         1.93500	2.00000e+00	
					         1.93667	2.00000e+00	
					         1.93833	3.00000e+00	
					         1.94000	3.00000e+00	
					         1.94167	3.00000e+00	
					         1.94333	3.00000e+00	
					         1.94500	3.00000e+00	
					         1.94667	3.00000e+00	
					         1.94833	3.00000e+00	
					         1.95000	2.00000e+00	
					         1.95167	2.00000e+00	
					         1.95333	2.00000e+00	
					         1.95500	2.00000e+00	
					         1.95667	1.00000e+00	
					         1.95833	1.00000e+00	
					         1.96000	1.00000e+00	
					         1.96167	1.00000e+00	
					         1.96333	1.00000e+00	
					         1.96500	1.00000e+00	
					         1.96667	0.00000e+00	
					         1.96833	0.00000e+00	
					         1.97000	0.00000e+00	
					         1.97167	0.00000e+00	
					         1.97333	0.00000e+00	
					         1.97500	0.00000e+00	
					         1.97667	0.00000e+00	
					         1.97833	0.00000e+00	
					         1.98000	0.00000e+00	
					         1.98167	0.00000e+00	
					         1.98333	0.00000e+00	
					         1.98500	0.00000e+00	
					         1.98667	0.00000e+00	
					         1.98833	0.00000e+00	
					         1.99000	0.00000e+00	
					         1.99167	0.00000e+00	
					         1.99333	0.00000e+00	
					         1.99500	0.00000e+00	
					         1.99667	0.00000e+00	
					         1.99833	0.00000e+00	
					         2.00000	0.00000e+00	
					         2.00167	0.00000e+00	
					         2.00333	-1.00000e+00	
					         2.00500	-1.00000e+00	
					         2.00667	-1.00000e+00	
					         2.00833	-1.00000e+00	
					         2.01000	-2.00000e+00	
					         2.01167	-2.00000e+00	
					         2.01333	-2.00000e+00	
					         2.01500	-3.00000e+00	
					         2.01667	-3.00000e+00	
					         2.01833	-4.00000e+00	
					         2.02000	-4.00000e+00	
					         2.02167	-5.00000e+00	
					         2.02333	-5.00000e+00	
					         2.02500	-5.00000e+00	
					         2.02667	-6.00000e+00	
					         2.02833	-6.00000e+00	
					         2.03000	-7.00000e+00	
					         2.03167	-7.00000e+00	
					         2.03333	-7.00000e+00	
					         2.03500	-7.00000e+00	
					         2.03667	-7.00000e+00	
					         2.03833	-8.00000e+00	
					         2.04000	-8.00000e+00	
					         2.04167	-8.00000e+00	
					         2.04333	-7.00000e+00	
					         2.04500	-7.00000e+00	
					         2.04667	-7.00000e+00	
					         2.04833	-6.00000e+00	
					         2.05000	-6.00000e+00	
					         2.05167	-6.00000e+00	
					         2.05333	-6.00000e+00	
					         2.05500	-5.00000e+00	
					         2.05667	-5.00000e+00	
					         2.05833	-5.00000e+00	
					         2.06000	-5.00000e+00	
					         2.06167	-5.00000e+00	
					         2.06333	-5.00000e+00	
					         2.06500	-5.00000e+00	
					         2.06667	-5.00000e+00	
					         2.06833	-5.00000e+00	
					         2.07000	-5.00000e+00	
					         2.07167	-4.00000e+00	
					         2.07333	-4.00000e+00	
					         2.07500	-4.00000e+00	
					         2.07667	-4.00000e+00	
					         2.07833	-3.00000e+00	
					         2.08000	-3.00000e+00	
					         2.08167	-3.00000e+00	
					         2.08333	-2.00000e+00	
					         2.08500	-2.00000e+00	
					         2.08667	-2.00000e+00	
					         2.08833	-1.00000e+00	
					         2.09000	-1.00000e+00	
					         2.09167	-1.00000e+00	
					         2.09333	-1.00000e+00	
					         2.09500	-1.00000e+00	
					         2.09667	-1.00000e+00	
					         2.09833	-2.00000e+00	
					         2.10000	-2.00000e+00	
					         2.10167	-2.00000e+00	
					         2.10333	-2.00000e+00	
					         2.10500	-2.00000e+00	
					         2.10667	-2.00000e+00	
					         2.10833	-2.00000e+00	
					         2.11000	-2.00000e+00	
					         2.11167	-2.00000e+00	
					         2.11333	-2.00000e+00	
					         2.11500	-2.00000e+00	
					         2.11667	-2.00000e+00	
					         2.11833	-1.00000e+00	
					         2.12000	-1.00000e+00	
					         2.12167	0.00000e+00	
					         2.12333	0.00000e+00	
					         2.12500	0.00000e+00	
					         2.12667	1.00000e+00	
					         2.12833	1.00000e+00	
					         2.13000	1.00000e+00	
					         2.13167	2.00000e+00	
					         2.13333	2.00000e+00	
					         2.13500	2.00000e+00	
					         2.13667	2.00000e+00	
					         2.13833	2.00000e+00	
					         2.14000	3.00000e+00	
					         2.14167	3.00000e+00	
					         2.14333	3.00000e+00	
					         2.14500	3.00000e+00	
					         2.14667	3.00000e+00	
					         2.14833	3.00000e+00	
					         2.15000	4.00000e+00	
					         2.15167	4.00000e+00	
					         2.15333	4.00000e+00	
					         2.15500	4.00000e+00	
					         2.15667	4.00000e+00	
					         2.15833	4.00000e+00	
					         2.16000	4.00000e+00	
					         2.16167	5.00000e+00	
					         2.16333	5.00000e+00	
					         2.16500	5.00000e+00	
					         2.16667	5.00000e+00	
					         2.16833	5.00000e+00	
					         2.17000	5.00000e+00	
					         2.17167	6.00000e+00	
					         2.17333	6.00000e+00	
					         2.17500	6.00000e+00	
					         2.17667	6.00000e+00	
					         2.17833	7.00000e+00	
					         2.18000	8.00000e+00	
					         2.18167	8.00000e+00	
					         2.18333	9.00000e+00	
					         2.18500	1.00000e+01	
					         2.18667	1.20000e+01	
					         2.18833	1.40000e+01	
					         2.19000	1.60000e+01	
					         2.19167	1.80000e+01	
					         2.19333	2.00000e+01	
					         2.19500	2.20000e+01	
					         2.19667	2.50000e+01	
					         2.19833	2.70000e+01	
					         2.20000	2.90000e+01	
					         2.20167	3.20000e+01	
					         2.20333	3.30000e+01	
					         2.20500	3.50000e+01	
					         2.20667	3.60000e+01	
					         2.20833	3.70000e+01	
					         2.21000	3.80000e+01	
					         2.21167	3.90000e+01	
					         2.21333	3.90000e+01	
					         2.21500	4.00000e+01	
					         2.21667	4.00000e+01	
					         2.21833	4.10000e+01	
					         2.22000	4.10000e+01	
					         2.22167	4.10000e+01	
					         2.22333	4.10000e+01	
					         2.22500	4.00000e+01	
					         2.22667	3.90000e+01	
					         2.22833	3.80000e+01	
					         2.23000	3.70000e+01	
					         2.23167	3.50000e+01	
					         2.23333	3.20000e+01	
					         2.23500	3.00000e+01	
					         2.23667	2.70000e+01	
					         2.23833	2.30000e+01	
					         2.24000	2.00000e+01	
					         2.24167	1.70000e+01	
					         2.24333	1.40000e+01	
					         2.24500	1.10000e+01	
					         2.24667	8.00000e+00	
					         2.24833	6.00000e+00	
					         2.25000	3.00000e+00	
					         2.25167	2.00000e+00	
					         2.25333	0.00000e+00	
					         2.25500	-1.00000e+00	
					         2.25667	-1.00000e+00	
					         2.25833	-2.00000e+00	
					         2.26000	-2.00000e+00	
					         2.26167	-2.00000e+00	
					         2.26333	-1.00000e+00	
					         2.26500	-1.00000e+00	
					         2.26667	0.00000e+00	
					         2.26833	1.00000e+00	
					         2.27000	2.00000e+00	
					         2.27167	3.00000e+00	
					         2.27333	3.00000e+00	
					         2.27500	3.00000e+00	
					         2.27667	3.00000e+00	
					         2.27833	3.00000e+00	
					         2.28000	2.00000e+00	
					         2.28167	1.00000e+00	
					         2.28333	-1.00000e+00	
					         2.28500	-3.00000e+00	
					         2.28667	-5.00000e+00	
					         2.28833	-8.00000e+00	
					         2.29000	-1.10000e+01	
					         2.29167	-1.40000e+01	
					         2.29333	-1.70000e+01	
					         2.29500	-2.00000e+01	
					         2.29667	-2.30000e+01	
					         2.29833	-2.50000e+01	
					         2.30000	-2.80000e+01	
					         2.30167	-3.00000e+01	
					         2.30333	-3.20000e+01	
					         2.30500	-3.30000e+01	
					         2.30667	-3.40000e+01	
					         2.30833	-3.50000e+01	
					         2.31000	-3.60000e+01	
					         2.31167	-3.60000e+01	
					         2.31333	-3.60000e+01	
					         2.31500	-3.60000e+01	
					         2.31667	-3.60000e+01	
					         2.31833	-3.60000e+01	
					         2.32000	-3.60000e+01	
					         2.32167	-3.50000e+01	
					         2.32333	-3.50000e+01	
					         2.32500	-3.50000e+01	
					         2.32667	-3.40000e+01	
					         2.32833	-3.40000e+01	
					         2.33000	-3.40000e+01	
					         2.33167	-3.30000e+01	
					         2.33333	-3.30000e+01	
					         2.33500	-3.30000e+01	
					         2.33667	-3.20000e+01	
					         2.33833	-3.20000e+01	
					         2.34000	-3.10000e+01	
					         2.34167	-3.10000e+01	
					         2.34333	-3.00000e+01	
					         2.34500	-2.80000e+01	
					         2.34667	-2.60000e+01	
					         2.34833	-2.30000e+01	
					         2.35000	-1.80000e+01	
					         2.35167	-1.30000e+01	
					         2.35333	-7.00000e+00	
					         2.35500	0.00000e+00	
					         2.35667	9.00000e+00	
					         2.35833	1.80000e+01	
					         2.36000	2.70000e+01	
					         2.36167	3.80000e+01	
					         2.36333	5.00000e+01	
					         2.36500	6.20000e+01	
					         2.36667	7.50000e+01	
					         2.36833	8.90000e+01	
					         2.37000	1.03000e+02	
					         2.37167	1.17000e+02	
					         2.37333	1.31000e+02	
					         2.37500	1.43000e+02	
					         2.37667	1.54000e+02	
					         2.37833	1.62000e+02	
					         2.38000	1.67000e+02	
					         2.38167	1.70000e+02	
					         2.38333	1.68000e+02	
					         2.38500	1.63000e+02	
					         2.38667	1.54000e+02	
					         2.38833	1.40000e+02	
					         2.39000	1.23000e+02	
					         2.39167	1.02000e+02	
					         2.39333	7.90000e+01	
					         2.39500	5.50000e+01	
					         2.39667	3.00000e+01	
					         2.39833	5.00000e+00	
					         2.40000	-2.00000e+01	
					         2.40167	-4.40000e+01	
					         2.40333	-6.60000e+01	
					         2.40500	-8.60000e+01	
					         2.40667	-1.04000e+02	
					         2.40833	-1.19000e+02	
					         2.41000	-1.31000e+02	
					         2.41167	-1.41000e+02	
					         2.41333	-1.48000e+02	
					         2.41500	-1.53000e+02	
					         2.41667	-1.56000e+02	
					         2.41833	-1.56000e+02	
					         2.42000	-1.54000e+02	
					         2.42167	-1.50000e+02	
					         2.42333	-1.45000e+02	
					         2.42500	-1.38000e+02	
					         2.42667	-1.29000e+02	
					         2.42833	-1.21000e+02	
					         2.43000	-1.11000e+02	
					         2.43167	-1.02000e+02	
					         2.43333	-9.30000e+01	
					         2.43500	-8.40000e+01	
					         2.43667	-7.50000e+01	
					         2.43833	-6.80000e+01	
					         2.44000	-6.10000e+01	
					         2.44167	-5.50000e+01	
					         2.44333	-5.00000e+01	
					         2.44500	-4.60000e+01	
					         2.44667	-4.20000e+01	
					         2.44833	-3.90000e+01	
					         2.45000	-3.70000e+01	
					         2.45167	-3.50000e+01	
					         2.45333	-3.30000e+01	
					         2.45500	-3.20000e+01	
					         2.45667	-3.10000e+01	
					         2.45833	-3.00000e+01	
					         2.46000	-2.90000e+01	
					         2.46167	-2.80000e+01	
					         2.46333	-2.70000e+01	
					         2.46500	-2.60000e+01	
					         2.46667	-2.50000e+01	
					         2.46833	-2.40000e+01	
					         2.47000	-2.30000e+01	
					         2.47167	-2.20000e+01	
					         2.47333	-2.10000e+01	
					         2.47500	-2.00000e+01	
					         2.47667	-1.90000e+01	
					         2.47833	-1.90000e+01	
					         2.48000	-1.80000e+01	
					         2.48167	-1.70000e+01	
					         2.48333	-1.60000e+01	
					         2.48500	-1.60000e+01	
					         2.48667	-1.50000e+01	
					         2.48833	-1.50000e+01	
					         2.49000	-1.50000e+01	
					         2.49167	-1.40000e+01	
					         2.49333	-1.40000e+01	
					         2.49500	-1.40000e+01	
					         2.49667	-1.30000e+01	
					         2.49833	-1.30000e+01	
					         2.50000	-1.30000e+01	
					         2.50167	-1.20000e+01	
					         2.50333	-1.10000e+01	
					         2.50500	-1.10000e+01	
					         2.50667	-1.00000e+01	
					         2.50833	-9.00000e+00	
					         2.51000	-8.00000e+00	
					         2.51167	-7.00000e+00	
					         2.51333	-6.00000e+00	
					         2.51500	-5.00000e+00	
					         2.51667	-4.00000e+00	
					         2.51833	-4.00000e+00	
					         2.52000	-3.00000e+00	
					         2.52167	-3.00000e+00	
					         2.52333	-2.00000e+00	
					         2.52500	-2.00000e+00	
					         2.52667	-1.00000e+00	
					         2.52833	-1.00000e+00	
					         2.53000	-1.00000e+00	
					         2.53167	0.00000e+00	
					         2.53333	0.00000e+00	
					         2.53500	1.00000e+00	
					         2.53667	2.00000e+00	
					         2.53833	2.00000e+00	
					         2.54000	3.00000e+00	
					         2.54167	4.00000e+00	
					         2.54333	5.00000e+00	
					         2.54500	6.00000e+00	
					         2.54667	7.00000e+00	
					         2.54833	8.00000e+00	
					         2.55000	9.00000e+00	
					         2.55167	1.00000e+01	
					         2.55333	1.10000e+01	
					         2.55500	1.10000e+01	
					         2.55667	1.20000e+01	
					         2.55833	1.20000e+01	
					         2.56000	1.30000e+01	
					         2.56167	1.40000e+01	
					         2.56333	1.40000e+01	
					         2.56500	1.50000e+01	
					         2.56667	1.50000e+01	
					         2.56833	1.60000e+01	
					         2.57000	1.70000e+01	
					         2.57167	1.80000e+01	
					         2.57333	1.90000e+01	
					         2.57500	2.00000e+01	
					         2.57667	2.20000e+01	
					         2.57833	2.30000e+01	
					         2.58000	2.40000e+01	
					         2.58167	2.60000e+01	
					         2.58333	2.70000e+01	
					         2.58500	2.80000e+01	
					         2.58667	3.00000e+01	
					         2.58833	3.10000e+01	
					         2.59000	3.20000e+01	
					         2.59167	3.40000e+01	
					         2.59333	3.50000e+01	
					         2.59500	3.70000e+01	
					         2.59667	3.80000e+01	
					         2.59833	4.00000e+01	
					         2.60000	4.10000e+01	
					         2.60167	4.30000e+01	
					         2.60333	4.50000e+01	
					         2.60500	4.70000e+01	
					         2.60667	5.00000e+01	
					         2.60833	5.20000e+01	
					         2.61000	5.40000e+01	
					         2.61167	5.60000e+01	
					         2.61333	5.90000e+01	
					         2.61500	6.10000e+01	
					         2.61667	6.30000e+01	
					         2.61833	6.50000e+01	
					         2.62000	6.70000e+01	
					         2.62167	7.00000e+01	
					         2.62333	7.20000e+01	
					         2.62500	7.40000e+01	
					         2.62667	7.60000e+01	
					         2.62833	7.80000e+01	
					         2.63000	8.00000e+01	
					         2.63167	8.30000e+01	
					         2.63333	8.50000e+01	
					         2.63500	8.70000e+01	
					         2.63667	8.90000e+01	
					         2.63833	9.20000e+01	
					         2.64000	9.50000e+01	
					         2.64167	9.70000e+01	
					         2.64333	1.00000e+02	
					         2.64500	1.03000e+02	
					         2.64667	1.05000e+02	
					         2.64833	1.08000e+02	
					         2.65000	1.11000e+02	
					         2.65167	1.13000e+02	
					         2.65333	1.16000e+02	
					         2.65500	1.18000e+02	
					         2.65667	1.20000e+02	
					         2.65833	1.22000e+02	
					         2.66000	1.24000e+02	
					         2.66167	1.26000e+02	
					         2.66333	1.27000e+02	
					         2.66500	1.28000e+02	
					         2.66667	1.29000e+02	
					         2.66833	1.30000e+02	
					         2.67000	1.31000e+02	
					         2.67167	1.32000e+02	
					         2.67333	1.32000e+02	
					         2.67500	1.32000e+02	
					         2.67667	1.33000e+02	
					         2.67833	1.33000e+02	
					         2.68000	1.32000e+02	
					         2.68167	1.32000e+02	
					         2.68333	1.31000e+02	
					         2.68500	1.30000e+02	
					         2.68667	1.29000e+02	
					         2.68833	1.28000e+02	
					         2.69000	1.26000e+02	
					         2.69167	1.25000e+02	
					         2.69333	1.22000e+02	
					         2.69500	1.20000e+02	
					         2.69667	1.17000e+02	
					         2.69833	1.13000e+02	
					         2.70000	1.10000e+02	
					         2.70167	1.06000e+02	
					         2.70333	1.02000e+02	
					         2.70500	9.70000e+01	
					         2.70667	9.20000e+01	
					         2.70833	8.70000e+01	
					         2.71000	8.20000e+01	
					         2.71167	7.70000e+01	
					         2.71333	7.10000e+01	
					         2.71500	6.50000e+01	
					         2.71667	5.90000e+01	
					         2.71833	5.30000e+01	
					         2.72000	4.60000e+01	
					         2.72167	4.00000e+01	
					         2.72333	3.30000e+01	
					         2.72500	2.70000e+01	
					         2.72667	2.00000e+01	
					         2.72833	1.30000e+01	
					         2.73000	6.00000e+00	
					         2.73167	-1.00000e+00	
					         2.73333	-8.00000e+00	
					         2.73500	-1.40000e+01	
					         2.73667	-2.10000e+01	
					         2.73833	-2.70000e+01	
					         2.74000	-3.30000e+01	
					         2.74167	-3.90000e+01	
					         2.74333	-4.40000e+01	
					         2.74500	-4.90000e+01	
					         2.74667	-5.40000e+01	
					         2.74833	-5.90000e+01	
					         2.75000	-6.30000e+01	
					         2.75167	-6.70000e+01	
					         2.75333	-7.10000e+01	
					         2.75500	-7.40000e+01	
					         2.75667	-7.70000e+01	
					         2.75833	-8.00000e+01	
					         2.76000	-8.30000e+01	
					         2.76167	-8.50000e+01	
					         2.76333	-8.70000e+01	
					         2.76500	-8.90000e+01	
					         2.76667	-9.10000e+01	
					         2.76833	-9.20000e+01	
					         2.77000	-9.30000e+01	
					         2.77167	-9.30000e+01	
					         2.77333	-9.40000e+01	
					         2.77500	-9.40000e+01	
					         2.77667	-9.40000e+01	
					         2.77833	-9.40000e+01	
					         2.78000	-9.30000e+01	
					         2.78167	-9.30000e+01	
					         2.78333	-9.30000e+01	
					         2.78500	-9.20000e+01	
					         2.78667	-9.20000e+01	
					         2.78833	-9.10000e+01	
					         2.79000	-9.00000e+01	
					         2.79167	-9.00000e+01	
					         2.79333	-8.90000e+01	
					         2.79500	-8.80000e+01	
					         2.79667	-8.70000e+01	
					         2.79833	-8.60000e+01	
					         2.80000	-8.50000e+01	
					         2.80167	-8.40000e+01	
					         2.80333	-8.30000e+01	
					         2.80500	-8.10000e+01	
					         2.80667	-8.00000e+01	
					         2.80833	-7.80000e+01	
					         2.81000	-7.70000e+01	
					         2.81167	-7.50000e+01	
					         2.81333	-7.40000e+01	
					         2.81500	-7.20000e+01	
					         2.81667	-7.10000e+01	
					         2.81833	-6.90000e+01	
					         2.82000	-6.80000e+01	
					         2.82167	-6.60000e+01	
					         2.82333	-6.50000e+01	
					         2.82500	-6.30000e+01	
					         2.82667	-6.10000e+01	
					         2.82833	-6.00000e+01	
					         2.83000	-5.80000e+01	
					         2.83167	-5.60000e+01	
					         2.83333	-5.40000e+01	
					         2.83500	-5.30000e+01	
					         2.83667	-5.10000e+01	
					         2.83833	-4.90000e+01	
					         2.84000	-4.70000e+01	
					         2.84167	-4.50000e+01	
					         2.84333	-4.30000e+01	
					         2.84500	-4.10000e+01	
					         2.84667	-3.90000e+01	
					         2.84833	-3.70000e+01	
					         2.85000	-3.60000e+01	
					         2.85167	-3.40000e+01	
					         2.85333	-3.20000e+01	
					         2.85500	-3.10000e+01	
					         2.85667	-2.90000e+01	
					         2.85833	-2.80000e+01	
					         2.86000	-2.70000e+01	
					         2.86167	-2.60000e+01	
					         2.86333	-2.50000e+01	
					         2.86500	-2.40000e+01	
					         2.86667	-2.30000e+01	
					         2.86833	-2.30000e+01	
					         2.87000	-2.20000e+01	
					         2.87167	-2.10000e+01	
					         2.87333	-2.10000e+01	
					         2.87500	-2.00000e+01	
					         2.87667	-1.90000e+01	
					         2.87833	-1.90000e+01	
					         2.88000	-1.80000e+01	
					         2.88167	-1.70000e+01	
					         2.88333	-1.70000e+01	
					         2.88500	-1.60000e+01	
					         2.88667	-1.60000e+01	
					         2.88833	-1.50000e+01	
					         2.89000	-1.50000e+01	
					         2.89167	-1.40000e+01	
					         2.89333	-1.40000e+01	
					         2.89500	-1.30000e+01	
					         2.89667	-1.30000e+01	
					         2.89833	-1.20000e+01	
					         2.90000	-1.20000e+01	
					         2.90167	-1.20000e+01	
					         2.90333	-1.10000e+01	
					         2.90500	-1.10000e+01	
					         2.90667	-1.10000e+01	
					         2.90833	-1.00000e+01	
					         2.91000	-1.00000e+01	
					         2.91167	-1.10000e+01	
					         2.91333	-1.10000e+01	
					         2.91500	-1.10000e+01	
					         2.91667	-1.10000e+01	
					         2.91833	-1.10000e+01	
					         2.92000	-1.10000e+01	
					         2.92167	-1.10000e+01	
					         2.92333	-1.10000e+01	
					         2.92500	-1.10000e+01	
					         2.92667	-1.10000e+01	
					         2.92833	-1.00000e+01	
					         2.93000	-1.00000e+01	
					         2.93167	-1.00000e+01	
					         2.93333	-9.00000e+00	
					         2.93500	-9.00000e+00	
					         2.93667	-8.00000e+00	
					         2.93833	-8.00000e+00	
					         2.94000	-8.00000e+00	
					         2.94167	-8.00000e+00	
					         2.94333	-8.00000e+00	
					         2.94500	-8.00000e+00	
					         2.94667	-7.00000e+00	
					         2.94833	-7.00000e+00	
					         2.95000	-7.00000e+00	
					         2.95167	-7.00000e+00	
					         2.95333	-7.00000e+00	
					         2.95500	-7.00000e+00	
					         2.95667	-7.00000e+00	
					         2.95833	-6.00000e+00	
					         2.96000	-6.00000e+00	
					         2.96167	-7.00000e+00	
					         2.96333	-7.00000e+00	
					         2.96500	-7.00000e+00	
					         2.96667	-8.00000e+00	
					         2.96833	-8.00000e+00	
					         2.97000	-9.00000e+00	
					         2.97167	-1.00000e+01	
					         2.97333	-1.10000e+01	
					         2.97500	-1.10000e+01	
					         2.97667	-1.20000e+01	
					         2.97833	-1.30000e+01	
					         2.98000	-1.40000e+01	
					         2.98167	-1.50000e+01	
					         2.98333	-1.50000e+01	
					         2.98500	-1.50000e+01	
					         2.98667	-1.50000e+01	
					         2.98833	-1.50000e+01	
					         2.99000	-1.50000e+01	
					         2.99167	-1.40000e+01	
					         2.99333	-1.40000e+01	
					         2.99500	-1.30000e+01	
					         2.99667	-1.20000e+01	
					         2.99833	-1.10000e+01	
					         3.00000	-1.00000e+01	
					         3.00167	-1.00000e+01	
					         3.00333	-9.00000e+00	
					         3.00500	-8.00000e+00	
					         3.00667	-8.00000e+00	
					         3.00833	-7.00000e+00	
					         3.01000	-7.00000e+00	
					         3.01167	-7.00000e+00	
					         3.01333	-7.00000e+00	
					         3.01500	-7.00000e+00	
					         3.01667	-7.00000e+00	
					         3.01833	-8.00000e+00	
					         3.02000	-8.00000e+00	
					         3.02167	-9.00000e+00	
					         3.02333	-9.00000e+00	
					         3.02500	-1.00000e+01	
					         3.02667	-1.00000e+01	
					         3.02833	-1.00000e+01	
					         3.03000	-1.10000e+01	
					         3.03167	-1.10000e+01	
					         3.03333	-1.10000e+01	
					         3.03500	-1.10000e+01	
					         3.03667	-1.10000e+01	
					         3.03833	-1.10000e+01	
					         3.04000	-1.20000e+01	
					         3.04167	-1.20000e+01	
					         3.04333	-1.20000e+01	
					         3.04500	-1.20000e+01	
					         3.04667	-1.20000e+01	
					         3.04833	-1.20000e+01	
					         3.05000	-1.20000e+01	
					         3.05167	-1.20000e+01	
					         3.05333	-1.20000e+01	
					         3.05500	-1.20000e+01	
					         3.05667	-1.20000e+01	
					         3.05833	-1.20000e+01	
					         3.06000	-1.20000e+01	
					         3.06167	-1.20000e+01	
					         3.06333	-1.20000e+01	
					         3.06500	-1.10000e+01	
					         3.06667	-1.10000e+01	
					         3.06833	-1.10000e+01	
					         3.07000	-1.10000e+01	
					         3.07167	-1.00000e+01	
					         3.07333	-1.00000e+01	
					         3.07500	-9.00000e+00	
					         3.07667	-9.00000e+00	
					         3.07833	-8.00000e+00	
					         3.08000	-8.00000e+00	
					         3.08167	-7.00000e+00	
					         3.08333	-7.00000e+00	
					         3.08500	-6.00000e+00	
					         3.08667	-5.00000e+00	
					         3.08833	-5.00000e+00	
					         3.09000	-4.00000e+00	
					         3.09167	-3.00000e+00	
					         3.09333	-3.00000e+00	
					         3.09500	-2.00000e+00	
					         3.09667	-2.00000e+00	
					         3.09833	-1.00000e+00	
					         3.10000	-1.00000e+00	
					         3.10167	-1.00000e+00	
					         3.10333	-1.00000e+00	
					         3.10500	-1.00000e+00	
					         3.10667	-2.00000e+00	
					         3.10833	-2.00000e+00	
					         3.11000	-3.00000e+00	
					         3.11167	-3.00000e+00	
					         3.11333	-4.00000e+00	
					         3.11500	-5.00000e+00	
					         3.11667	-5.00000e+00	
					         3.11833	-6.00000e+00	
					         3.12000	-6.00000e+00	
					         3.12167	-7.00000e+00	
					         3.12333	-7.00000e+00	
					         3.12500	-7.00000e+00	
					         3.12667	-7.00000e+00	
					         3.12833	-7.00000e+00	
					         3.13000	-7.00000e+00	
					         3.13167	-6.00000e+00	
					         3.13333	-6.00000e+00	
					         3.13500	-5.00000e+00	
					         3.13667	-5.00000e+00	
					         3.13833	-4.00000e+00	
					         3.14000	-4.00000e+00	
					         3.14167	-4.00000e+00	
					         3.14333	-4.00000e+00	
					         3.14500	-3.00000e+00	
					         3.14667	-3.00000e+00	
					         3.14833	-3.00000e+00	
					         3.15000	-3.00000e+00	
					         3.15167	-3.00000e+00	
					         3.15333	-3.00000e+00	
					         3.15500	-3.00000e+00	
					         3.15667	-3.00000e+00	
					         3.15833	-2.00000e+00	
					         3.16000	-2.00000e+00	
					         3.16167	-2.00000e+00	
					         3.16333	-2.00000e+00	
					         3.16500	-2.00000e+00	
					         3.16667	-1.00000e+00	
					         3.16833	-1.00000e+00	
					         3.17000	-1.00000e+00	
					         3.17167	-1.00000e+00	
					         3.17333	-1.00000e+00	
					         3.17500	-1.00000e+00	
					         3.17667	-2.00000e+00	
					         3.17833	-2.00000e+00	
					         3.18000	-2.00000e+00	
					         3.18167	-2.00000e+00	
					         3.18333	-2.00000e+00	
					         3.18500	-1.00000e+00	
					         3.18667	-1.00000e+00	
					         3.18833	-1.00000e+00	
					         3.19000	-1.00000e+00	
					         3.19167	0.00000e+00	
					         3.19333	0.00000e+00	
					         3.19500	0.00000e+00	
					         3.19667	0.00000e+00	
					         3.19833	0.00000e+00	
					         3.20000	0.00000e+00	
					         3.20167	0.00000e+00	
					         3.20333	0.00000e+00	
					         3.20500	-1.00000e+00	
					         3.20667	-1.00000e+00	
					         3.20833	-1.00000e+00	
					         3.21000	-2.00000e+00	
					         3.21167	-2.00000e+00	
					         3.21333	-2.00000e+00	
					         3.21500	-2.00000e+00	
					         3.21667	-2.00000e+00	
					         3.21833	-3.00000e+00	
					         3.22000	-3.00000e+00	
					         3.22167	-3.00000e+00	
					         3.22333	-3.00000e+00	
					         3.22500	-3.00000e+00	
					         3.22667	-2.00000e+00	
					         3.22833	-2.00000e+00	
					         3.23000	-2.00000e+00	
					         3.23167	-2.00000e+00	
					         3.23333	-1.00000e+00	
					         3.23500	-1.00000e+00	
					         3.23667	-1.00000e+00	
					         3.23833	0.00000e+00	
					         3.24000	0.00000e+00	
					         3.24167	0.00000e+00	
					         3.24333	0.00000e+00	
					         3.24500	0.00000e+00	
					         3.24667	0.00000e+00	
					         3.24833	0.00000e+00	
					         3.25000	-1.00000e+00	
					         3.25167	-1.00000e+00	
					         3.25333	-1.00000e+00	
					         3.25500	-1.00000e+00	
					         3.25667	-1.00000e+00	
					         3.25833	-1.00000e+00	
					         3.26000	-1.00000e+00	
					         3.26167	-1.00000e+00	
					         3.26333	-1.00000e+00	
					         3.26500	-1.00000e+00	
					         3.26667	-1.00000e+00	
					         3.26833	-1.00000e+00	
					         3.27000	-1.00000e+00	
					         3.27167	-1.00000e+00	
					         3.27333	-1.00000e+00	
					         3.27500	-1.00000e+00	
					         3.27667	-1.00000e+00	
					         3.27833	0.00000e+00	
					         3.28000	0.00000e+00	
					         3.28167	0.00000e+00	
					         3.28333	0.00000e+00	
					         3.28500	1.00000e+00	
					         3.28667	1.00000e+00	
					         3.28833	1.00000e+00	
					         3.29000	1.00000e+00	
					         3.29167	1.00000e+00	
					         3.29333	1.00000e+00	
					         3.29500	1.00000e+00	
					         3.29667	0.00000e+00	
					         3.29833	0.00000e+00	
					         3.30000	-1.00000e+00	
					         3.30167	-1.00000e+00	
					         3.30333	-2.00000e+00	
					         3.30500	-3.00000e+00	
					         3.30667	-3.00000e+00	
					         3.30833	-4.00000e+00	
					         3.31000	-5.00000e+00	
					         3.31167	-6.00000e+00	
					         3.31333	-6.00000e+00	
					         3.31500	-7.00000e+00	
					         3.31667	-8.00000e+00	
					         3.31833	-8.00000e+00	
					         3.32000	-8.00000e+00	
					         3.32167	-8.00000e+00	
					         3.32333	-8.00000e+00	
					         3.32500	-8.00000e+00	
					         3.32667	-8.00000e+00	
					         3.32833	-8.00000e+00	
					         3.33000	-8.00000e+00	
					         3.33167	-8.00000e+00	
					         3.33333	-8.00000e+00	
					         3.33500	-7.00000e+00	
					         3.33667	-7.00000e+00	
					         3.33833	-7.00000e+00	
					         3.34000	-6.00000e+00	
					         3.34167	-6.00000e+00	
					         3.34333	-6.00000e+00	
					         3.34500	-5.00000e+00	
					         3.34667	-5.00000e+00	
					         3.34833	-5.00000e+00	
					         3.35000	-5.00000e+00	
					         3.35167	-4.00000e+00	
					         3.35333	-4.00000e+00	
					         3.35500	-4.00000e+00	
					         3.35667	-4.00000e+00	
					         3.35833	-4.00000e+00	
					         3.36000	-3.00000e+00	
					         3.36167	-3.00000e+00	
					         3.36333	-3.00000e+00	
					         3.36500	-3.00000e+00	
					         3.36667	-3.00000e+00	
					         3.36833	-3.00000e+00	
					         3.37000	-3.00000e+00	
					         3.37167	-2.00000e+00	
					         3.37333	-2.00000e+00	
					         3.37500	-2.00000e+00	
					         3.37667	-2.00000e+00	
					         3.37833	-2.00000e+00	
					         3.38000	-2.00000e+00	
					         3.38167	-2.00000e+00	
					         3.38333	-1.00000e+00	
					         3.38500	-1.00000e+00	
					         3.38667	-1.00000e+00	
					         3.38833	0.00000e+00	
					         3.39000	1.00000e+00	
					         3.39167	3.00000e+00	
					         3.39333	5.00000e+00	
					         3.39500	7.00000e+00	
					         3.39667	9.00000e+00	
					         3.39833	1.20000e+01	
					         3.40000	1.40000e+01	
					         3.40167	1.70000e+01	
					         3.40333	1.90000e+01	
					         3.40500	2.20000e+01	
					         3.40667	2.40000e+01	
					         3.40833	2.50000e+01	
					         3.41000	2.70000e+01	
					         3.41167	2.80000e+01	
					         3.41333	2.80000e+01	
					         3.41500	2.90000e+01	
					         3.41667	2.90000e+01	
					         3.41833	2.90000e+01	
					         3.42000	3.00000e+01	
					         3.42167	3.00000e+01	
					         3.42333	3.00000e+01	
					         3.42500	3.10000e+01	
					         3.42667	3.10000e+01	
					         3.42833	3.00000e+01	
					         3.43000	3.00000e+01	
					         3.43167	3.00000e+01	
					         3.43333	2.90000e+01	
					         3.43500	2.70000e+01	
					         3.43667	2.60000e+01	
					         3.43833	2.40000e+01	
					         3.44000	2.10000e+01	
					         3.44167	1.90000e+01	
					         3.44333	1.60000e+01	
					         3.44500	1.30000e+01	
					         3.44667	9.00000e+00	
					         3.44833	6.00000e+00	
					         3.45000	4.00000e+00	
					         3.45167	1.00000e+00	
					         3.45333	-1.00000e+00	
					         3.45500	-3.00000e+00	
					         3.45667	-4.00000e+00	
					         3.45833	-5.00000e+00	
					         3.46000	-6.00000e+00	
					         3.46167	-6.00000e+00	
					         3.46333	-7.00000e+00	
					         3.46500	-6.00000e+00	
					         3.46667	-6.00000e+00	
					         3.46833	-5.00000e+00	
					         3.47000	-5.00000e+00	
					         3.47167	-4.00000e+00	
					         3.47333	-3.00000e+00	
					         3.47500	-3.00000e+00	
					         3.47667	-2.00000e+00	
					         3.47833	-2.00000e+00	
					         3.48000	-2.00000e+00	
					         3.48167	-3.00000e+00	
					         3.48333	-4.00000e+00	
					         3.48500	-5.00000e+00	
					         3.48667	-6.00000e+00	
					         3.48833	-8.00000e+00	
					         3.49000	-1.10000e+01	
					         3.49167	-1.40000e+01	
					         3.49333	-1.60000e+01	
					         3.49500	-1.90000e+01	
					         3.49667	-2.20000e+01	
					         3.49833	-2.50000e+01	
					         3.50000	-2.80000e+01	
					         3.50167	-3.00000e+01	
					         3.50333	-3.20000e+01	
					         3.50500	-3.40000e+01	
					         3.50667	-3.50000e+01	
					         3.50833	-3.60000e+01	
					         3.51000	-3.60000e+01	
					         3.51167	-3.70000e+01	
					         3.51333	-3.70000e+01	
					         3.51500	-3.70000e+01	
					         3.51667	-3.70000e+01	
					         3.51833	-3.70000e+01	
					         3.52000	-3.70000e+01	
					         3.52167	-3.70000e+01	
					         3.52333	-3.70000e+01	
					         3.52500	-3.70000e+01	
					         3.52667	-3.70000e+01	
					         3.52833	-3.70000e+01	
					         3.53000	-3.70000e+01	
					         3.53167	-3.60000e+01	
					         3.53333	-3.50000e+01	
					         3.53500	-3.50000e+01	
					         3.53667	-3.40000e+01	
					         3.53833	-3.30000e+01	
					         3.54000	-3.10000e+01	
					         3.54167	-3.00000e+01	
					         3.54333	-2.90000e+01	
					         3.54500	-2.80000e+01	
					         3.54667	-2.60000e+01	
					         3.54833	-2.40000e+01	
					         3.55000	-2.20000e+01	
					         3.55167	-2.00000e+01	
					         3.55333	-1.60000e+01	
					         3.55500	-1.20000e+01	
					         3.55667	-7.00000e+00	
					         3.55833	-1.00000e+00	
					         3.56000	6.00000e+00	
					         3.56167	1.50000e+01	
					         3.56333	2.40000e+01	
					         3.56500	3.40000e+01	
					         3.56667	4.40000e+01	
					         3.56833	5.60000e+01	
					         3.57000	6.80000e+01	
					         3.57167	8.20000e+01	
					         3.57333	9.60000e+01	
					         3.57500	1.10000e+02	
					         3.57667	1.25000e+02	
					         3.57833	1.39000e+02	
					         3.58000	1.51000e+02	
					         3.58167	1.62000e+02	
					         3.58333	1.71000e+02	
					         3.58500	1.77000e+02	
					         3.58667	1.81000e+02	
					         3.58833	1.80000e+02	
					         3.59000	1.77000e+02	
					         3.59167	1.69000e+02	
					         3.59333	1.57000e+02	
					         3.59500	1.42000e+02	
					         3.59667	1.23000e+02	
					         3.59833	1.02000e+02	
					         3.60000	8.00000e+01	
					         3.60167	5.70000e+01	
					         3.60333	3.30000e+01	
					         3.60500	1.00000e+01	
					         3.60667	-1.30000e+01	
					         3.60833	-3.40000e+01	
					         3.61000	-5.40000e+01	
					         3.61167	-7.20000e+01	
					         3.61333	-8.70000e+01	
					         3.61500	-1.01000e+02	
					         3.61667	-1.12000e+02	
					         3.61833	-1.21000e+02	
					         3.62000	-1.28000e+02	
					         3.62167	-1.32000e+02	
					         3.62333	-1.35000e+02	
					         3.62500	-1.35000e+02	
					         3.62667	-1.33000e+02	
					         3.62833	-1.29000e+02	
					         3.63000	-1.24000e+02	
					         3.63167	-1.18000e+02	
					         3.63333	-1.10000e+02	
					         3.63500	-1.02000e+02	
					         3.63667	-9.40000e+01	
					         3.63833	-8.50000e+01	
					         3.64000	-7.70000e+01	
					         3.64167	-6.90000e+01	
					         3.64333	-6.20000e+01	
					         3.64500	-5.50000e+01	
					         3.64667	-4.90000e+01	
					         3.64833	-4.40000e+01	
					         3.65000	-3.90000e+01	
					         3.65167	-3.60000e+01	
					         3.65333	-3.30000e+01	
