Grayscale intensity, in dB

Time (s) :	Trace 1 : 	Trace 2 : 	Trace 3 : 		Ecg : 		
0.00119   	-2.58663e+01	-3.68987e+01	-4.59336e+01		         0.00000	-5.10000e+01	
0.01817   	-2.58086e+01	-3.67883e+01	-4.65976e+01		         0.00167	-5.40000e+01	
0.03515   	-2.51213e+01	-3.64256e+01	-4.54614e+01		         0.00333	-5.50000e+01	
0.05213   	-2.20227e+01	-3.58024e+01	-4.58814e+01		         0.00500	-5.40000e+01	
0.06911   	-2.03185e+01	-3.29344e+01	-4.58259e+01		         0.00667	-5.10000e+01	
0.08609   	-1.94925e+01	-2.99620e+01	-4.63082e+01		         0.00833	-4.50000e+01	
0.10307   	-2.00145e+01	-2.70884e+01	-4.34106e+01		         0.01000	-3.60000e+01	
0.12005   	-2.20962e+01	-2.71098e+01	-4.10189e+01		         0.01167	-2.50000e+01	
0.13704   	-2.42816e+01	-2.93465e+01	-3.80890e+01		         0.01333	-9.00000e+00	
0.15401   	-2.45550e+01	-3.09782e+01	-3.69740e+01		         0.01500	9.00000e+00	
0.17099   	-2.39733e+01	-3.19085e+01	-3.62168e+01		         0.01667	3.00000e+01	
0.18797   	-2.35542e+01	-3.38428e+01	-3.53303e+01		         0.01833	5.40000e+01	
0.20495   	-2.27573e+01	-3.70719e+01	-3.56303e+01		         0.02000	7.90000e+01	
0.22193   	-2.18993e+01	-4.01425e+01	-3.62776e+01		         0.02167	1.05000e+02	
0.23891   	-2.14716e+01	-4.16334e+01	-3.52384e+01		         0.02333	1.30000e+02	
0.25589   	-2.10806e+01	-4.34726e+01	-3.52304e+01		         0.02500	1.52000e+02	
0.27287   	-1.93802e+01	-4.45950e+01	-3.43622e+01		         0.02667	1.71000e+02	
0.28985   	-1.88078e+01	-4.52034e+01	-3.35045e+01		         0.02833	1.85000e+02	
0.30683   	-1.97689e+01	-4.59232e+01	-3.42588e+01		         0.03000	1.95000e+02	
0.32381   	-1.96498e+01	-4.67268e+01	-3.42742e+01		         0.03167	2.01000e+02	
0.34079   	-1.98838e+01	-4.70135e+01	-3.42386e+01		         0.03333	2.01000e+02	
0.35777   	-1.98480e+01	-4.70783e+01	-3.47050e+01		         0.03500	1.97000e+02	
0.37475   	-2.05671e+01	-4.72381e+01	-3.45215e+01		         0.03667	1.88000e+02	
0.39173   	-2.12057e+01	-4.70590e+01	-3.54470e+01		         0.03833	1.76000e+02	
0.40872   	-2.09460e+01	-4.62773e+01	-3.51943e+01		         0.04000	1.61000e+02	
0.42569   	-2.08406e+01	-4.55759e+01	-3.55909e+01		         0.04167	1.44000e+02	
0.44267   	-2.29346e+01	-4.52097e+01	-3.67753e+01		         0.04333	1.26000e+02	
0.45966   	-2.48466e+01	-4.41129e+01	-3.85316e+01		         0.04500	1.07000e+02	
0.47663   	-2.72485e+01	-4.20185e+01	-3.85267e+01		         0.04667	8.90000e+01	
0.49361   	-2.93619e+01	-4.11701e+01	-3.86419e+01		         0.04833	7.10000e+01	
0.51059   	-3.07192e+01	-3.83621e+01	-3.69816e+01		         0.05000	5.40000e+01	
0.52757   	-3.08727e+01	-3.92227e+01	-3.68714e+01		         0.05167	3.90000e+01	
0.54455   	-3.13798e+01	-3.77438e+01	-3.70489e+01		         0.05333	2.50000e+01	
0.56153   	-3.09733e+01	-3.61880e+01	-3.76029e+01		         0.05500	1.30000e+01	
0.57851   	-2.99326e+01	-3.55077e+01	-3.69403e+01		         0.05667	3.00000e+00	
0.59549   	-2.97886e+01	-3.45810e+01	-3.68775e+01		         0.05833	-5.00000e+00	
0.61247   	-2.92201e+01	-3.27971e+01	-3.56507e+01		         0.06000	-1.20000e+01	
0.62945   	-2.91083e+01	-3.12257e+01	-3.40943e+01		         0.06167	-1.80000e+01	
0.64643   	-2.98254e+01	-3.26891e+01	-3.40035e+01		         0.06333	-2.30000e+01	
0.66341   	-3.01138e+01	-3.27790e+01	-3.47575e+01		         0.06500	-2.60000e+01	
0.68039   	-3.06828e+01	-3.31971e+01	-3.53644e+01		         0.06667	-2.90000e+01	
0.69737   	-3.13969e+01	-3.40378e+01	-3.59063e+01		         0.06833	-3.10000e+01	
0.71435   	-3.18246e+01	-3.52186e+01	-3.59457e+01		         0.07000	-3.20000e+01	
0.73146   	-3.19214e+01	-3.65058e+01	-3.62331e+01		         0.07167	-3.30000e+01	
0.74831   	-3.18079e+01	-3.53455e+01	-3.62558e+01		         0.07333	-3.30000e+01	
0.76529   	-3.13681e+01	-3.70819e+01	-3.65199e+01		         0.07500	-3.30000e+01	
0.78227   	-3.09581e+01	-3.71016e+01	-3.65319e+01		         0.07667	-3.30000e+01	
0.79925   	-3.04850e+01	-3.71378e+01	-3.63725e+01		         0.07833	-3.20000e+01	
0.81623   	-3.01785e+01	-3.74473e+01	-3.61587e+01		         0.08000	-3.20000e+01	
0.83321   	-2.98967e+01	-3.76738e+01	-3.60256e+01		         0.08167	-3.10000e+01	
0.85020   	-2.97127e+01	-3.79899e+01	-3.59164e+01		         0.08333	-3.00000e+01	
0.86718   	-2.95723e+01	-3.78704e+01	-3.55873e+01		         0.08500	-3.00000e+01	
0.88416   	-2.95937e+01	-3.83112e+01	-3.52719e+01		         0.08667	-2.90000e+01	
0.90114   	-2.96074e+01	-3.84236e+01	-3.49319e+01		         0.08833	-2.80000e+01	
0.91811   	-2.98999e+01	-3.86817e+01	-3.45260e+01		         0.09000	-2.80000e+01	
0.93510   	-3.00985e+01	-3.99181e+01	-3.41830e+01		         0.09167	-2.70000e+01	
0.95207   	-3.00397e+01	-4.04777e+01	-3.35704e+01		         0.09333	-2.70000e+01	
0.96905   	-2.93961e+01	-4.33059e+01	-3.27080e+01		         0.09500	-2.70000e+01	
0.98603   	-2.83740e+01	-4.49425e+01	-3.40134e+01		         0.09667	-2.60000e+01	
1.00301   	-2.90261e+01	-4.49854e+01	-3.45176e+01		         0.09833	-2.60000e+01	
1.01999   	-2.88196e+01	-4.45849e+01	-3.44159e+01		         0.10000	-2.60000e+01	
1.03697   	-2.79866e+01	-4.49536e+01	-3.40290e+01		         0.10167	-2.60000e+01	
1.05396   	-2.83360e+01	-4.53819e+01	-3.38976e+01		         0.10333	-2.60000e+01	
1.07093   	-2.82056e+01	-4.63977e+01	-3.38282e+01		         0.10500	-2.60000e+01	
1.08792   	-2.75445e+01	-4.66435e+01	-3.43048e+01		         0.10667	-2.60000e+01	
1.10489   	-2.76884e+01	-4.53549e+01	-3.32668e+01		         0.10833	-2.70000e+01	
1.12188   	-2.79937e+01	-4.23757e+01	-3.29728e+01		         0.11000	-2.70000e+01	
1.13886   	-2.82652e+01	-4.05977e+01	-3.01732e+01		         0.11167	-2.60000e+01	
1.15583   	-2.86126e+01	-3.98316e+01	-3.10674e+01		         0.11333	-2.60000e+01	
1.17281   	-2.96651e+01	-4.05364e+01	-3.42943e+01		         0.11500	-2.60000e+01	
1.18979   	-3.04869e+01	-3.93241e+01	-3.52268e+01		         0.11667	-2.60000e+01	
1.20677   	-3.07782e+01	-3.98547e+01	-3.50279e+01		         0.11833	-2.50000e+01	
1.22375   	-2.98268e+01	-3.92364e+01	-3.66900e+01		         0.12000	-2.50000e+01	
1.24073   	-2.97840e+01	-3.94359e+01	-3.71771e+01		         0.12167	-2.40000e+01	
1.25771   	-3.05621e+01	-4.07927e+01	-3.77958e+01		         0.12333	-2.40000e+01	
1.27469   	-3.09611e+01	-4.32683e+01	-3.77661e+01		         0.12500	-2.30000e+01	
1.29167   	-3.07020e+01	-4.22020e+01	-3.81508e+01		         0.12667	-2.20000e+01	
1.30865   	-3.02319e+01	-4.39966e+01	-3.78097e+01		         0.12833	-2.10000e+01	
1.32563   	-3.04963e+01	-4.49559e+01	-3.84593e+01		         0.13000	-2.10000e+01	
1.34261   	-3.06834e+01	-4.54622e+01	-3.87793e+01		         0.13167	-2.00000e+01	
1.35959   	-3.06146e+01	-4.69647e+01	-3.78449e+01		         0.13333	-1.90000e+01	
1.37657   	-3.04079e+01	-4.70112e+01	-3.74807e+01		         0.13500	-1.90000e+01	
1.39355   	-3.02248e+01	-4.77579e+01	-3.76105e+01		         0.13667	-1.90000e+01	
1.41054   	-2.98915e+01	-4.82022e+01	-3.64731e+01		         0.13833	-1.90000e+01	
1.42751   	-2.96807e+01	-4.76234e+01	-3.60453e+01		         0.14000	-1.80000e+01	
1.44449   	-2.96294e+01	-4.72377e+01	-3.62561e+01		         0.14167	-1.80000e+01	
1.46183   	-3.07662e+01	-4.77067e+01	-3.65999e+01		         0.14333	-1.80000e+01	
1.47845   	-3.19658e+01	-4.68018e+01	-3.61518e+01		         0.14500	-1.80000e+01	
1.49543   	-3.17041e+01	-4.70464e+01	-3.65967e+01		         0.14667	-1.80000e+01	
1.51241   	-3.10387e+01	-4.60031e+01	-3.65043e+01		         0.14833	-1.80000e+01	
1.52939   	-3.03134e+01	-4.32198e+01	-3.65693e+01		         0.15000	-1.80000e+01	
1.54637   	-2.96055e+01	-4.21983e+01	-3.65864e+01		         0.15167	-1.80000e+01	
1.56335   	-2.92739e+01	-3.84024e+01	-3.72700e+01		         0.15333	-1.70000e+01	
1.58033   	-2.98993e+01	-3.90566e+01	-3.76287e+01		         0.15500	-1.70000e+01	
1.59732   	-3.02354e+01	-3.68695e+01	-3.53860e+01		         0.15667	-1.70000e+01	
1.61430   	-2.97742e+01	-3.61763e+01	-3.56037e+01		         0.15833	-1.70000e+01	
1.63128   	-2.96905e+01	-3.39383e+01	-3.59205e+01		         0.16000	-1.70000e+01	
1.64826   	-2.91668e+01	-3.28801e+01	-3.57378e+01		         0.16167	-1.70000e+01	
1.66524   	-2.93971e+01	-3.21008e+01	-3.38534e+01		         0.16333	-1.70000e+01	
1.68222   	-2.95311e+01	-3.24038e+01	-3.26175e+01		         0.16500	-1.70000e+01	
1.69920   	-2.90241e+01	-3.23144e+01	-3.19681e+01		         0.16667	-1.70000e+01	
1.71618   	-2.88047e+01	-3.10105e+01	-3.18610e+01		         0.16833	-1.70000e+01	
1.73316   	-2.85894e+01	-3.05656e+01	-3.24620e+01		         0.17000	-1.70000e+01	
1.75014   	-2.83558e+01	-3.15183e+01	-3.29679e+01		         0.17167	-1.80000e+01	
1.76712   	-2.78468e+01	-3.24975e+01	-3.35539e+01		         0.17333	-1.80000e+01	
1.78410   	-2.75231e+01	-3.24749e+01	-3.43672e+01		         0.17500	-1.80000e+01	
1.80108   	-2.73609e+01	-3.26084e+01	-3.46363e+01		         0.17667	-1.80000e+01	
1.81806   	-2.70475e+01	-3.22066e+01	-3.51355e+01		         0.17833	-1.80000e+01	
1.83504   	-2.68191e+01	-3.14737e+01	-3.55691e+01		         0.18000	-1.90000e+01	
1.85202   	-2.64180e+01	-3.07677e+01	-3.54628e+01		         0.18167	-1.90000e+01	
1.86900   	-2.62873e+01	-3.07993e+01	-3.55730e+01		         0.18333	-1.90000e+01	
1.88598   	-2.61097e+01	-3.12985e+01	-3.55964e+01		         0.18500	-1.90000e+01	
1.90296   	-2.62067e+01	-3.14035e+01	-3.58921e+01		         0.18667	-1.90000e+01	
1.91994   	-2.64331e+01	-3.10886e+01	-3.60800e+01		         0.18833	-1.90000e+01	
1.93692   	-2.64822e+01	-3.08101e+01	-3.62480e+01		         0.19000	-1.90000e+01	
1.95390   	-2.66964e+01	-3.03334e+01	-3.63415e+01		         0.19167	-2.00000e+01	
1.97088   	-2.67710e+01	-2.99309e+01	-3.65017e+01		         0.19333	-2.00000e+01	
1.98786   	-2.67683e+01	-2.95543e+01	-3.65728e+01		         0.19500	-2.00000e+01	
2.00484   	-2.68481e+01	-2.89019e+01	-3.69888e+01		         0.19667	-2.00000e+01	
2.02182   	-2.67251e+01	-2.83406e+01	-3.70197e+01		         0.19833	-2.00000e+01	
2.03880   	-2.66535e+01	-2.83120e+01	-3.67414e+01		         0.20000	-2.00000e+01	
2.05578   	-2.65599e+01	-2.84020e+01	-3.71854e+01		         0.20167	-2.00000e+01	
2.07276   	-2.64628e+01	-2.85478e+01	-3.76064e+01		         0.20333	-2.10000e+01	
2.08973   	-2.61656e+01	-2.71108e+01	-3.81635e+01		         0.20500	-2.10000e+01	
2.10671   	-2.57229e+01	-2.96467e+01	-3.77367e+01		         0.20667	-2.10000e+01	
2.12369   	-2.65353e+01	-3.24937e+01	-3.53469e+01		         0.20833	-2.10000e+01	
2.14067   	-2.74366e+01	-3.72463e+01	-3.79306e+01		         0.21000	-2.10000e+01	
2.15765   	-2.74094e+01	-3.74987e+01	-4.20267e+01		         0.21167	-2.20000e+01	
2.17463   	-2.69808e+01	-3.58846e+01	-4.39969e+01		         0.21333	-2.20000e+01	
2.19161   	-2.59330e+01	-3.56772e+01	-4.42043e+01		         0.21500	-2.30000e+01	
2.20888   	-2.60969e+01	-3.46599e+01	-4.41072e+01		         0.21667	-2.30000e+01	
2.22559   	-2.34922e+01	-3.03726e+01	-4.29664e+01		         0.21833	-2.40000e+01	
2.24256   	-2.12337e+01	-2.95513e+01	-4.25374e+01		         0.22000	-2.40000e+01	
2.25954   	-2.38522e+01	-2.77571e+01	-4.19250e+01		         0.22167	-2.50000e+01	
2.27652   	-2.50748e+01	-2.92995e+01	-4.09069e+01		         0.22333	-2.60000e+01	
2.29350   	-2.70631e+01	-2.99460e+01	-3.81225e+01		         0.22500	-2.70000e+01	
2.31048   	-2.69290e+01	-3.32349e+01	-3.63739e+01		         0.22667	-2.80000e+01	
2.32746   	-2.44778e+01	-3.65020e+01	-3.63110e+01		         0.22833	-3.00000e+01	
2.34444   	-2.42708e+01	-3.94838e+01	-3.54648e+01		         0.23000	-3.10000e+01	
2.36142   	-2.45031e+01	-3.97465e+01	-3.59381e+01		         0.23167	-3.20000e+01	
2.37840   	-2.29735e+01	-4.24089e+01	-3.55678e+01		         0.23333	-3.40000e+01	
2.39538   	-2.25795e+01	-4.31950e+01	-3.53073e+01		         0.23500	-3.60000e+01	
2.41236   	-2.26360e+01	-4.50244e+01	-3.49630e+01		         0.23667	-3.70000e+01	
2.42934   	-2.31928e+01	-4.62483e+01	-3.56660e+01		         0.23833	-3.90000e+01	
2.44632   	-2.13568e+01	-4.57178e+01	-3.58932e+01		         0.24000	-4.00000e+01	
2.46330   	-2.04458e+01	-4.68857e+01	-3.41972e+01		         0.24167	-4.20000e+01	
2.48028   	-2.08641e+01	-4.78396e+01	-3.29555e+01		         0.24333	-4.30000e+01	
2.49726   	-2.08595e+01	-4.79944e+01	-3.15756e+01		         0.24500	-4.40000e+01	
2.51424   	-1.94851e+01	-4.78486e+01	-3.10883e+01		         0.24667	-4.50000e+01	
2.53122   	-1.89650e+01	-4.81790e+01	-3.02513e+01		         0.24833	-4.60000e+01	
2.54820   	-1.88830e+01	-4.68642e+01	-2.94003e+01		         0.25000	-4.70000e+01	
2.56518   	-2.01677e+01	-4.76079e+01	-2.90142e+01		         0.25167	-4.70000e+01	
2.58216   	-2.17783e+01	-4.82132e+01	-2.93388e+01		         0.25333	-4.80000e+01	
2.59914   	-2.18285e+01	-4.72604e+01	-3.09240e+01		         0.25500	-4.80000e+01	
2.61612   	-2.05872e+01	-4.51302e+01	-3.22170e+01		         0.25667	-4.80000e+01	
2.63310   	-1.86216e+01	-4.41428e+01	-3.35789e+01		         0.25833	-4.80000e+01	
2.65008   	-1.92466e+01	-4.34211e+01	-3.58050e+01		         0.26000	-4.80000e+01	
2.66706   	-1.95266e+01	-4.31396e+01	-3.80819e+01		         0.26167	-4.80000e+01	
2.68404   	-2.07194e+01	-4.32365e+01	-3.87847e+01		         0.26333	-4.80000e+01	
2.70102   	-2.14557e+01	-4.19904e+01	-3.80893e+01		         0.26500	-4.80000e+01	
2.71800   	-2.30899e+01	-4.02857e+01	-3.50031e+01		         0.26667	-4.80000e+01	
2.73498   	-2.44096e+01	-3.81336e+01	-3.60917e+01		         0.26833	-4.80000e+01	
2.75196   	-2.40415e+01	-3.54909e+01	-3.52484e+01		         0.27000	-4.90000e+01	
2.76894   	-2.49156e+01	-3.10316e+01	-3.53999e+01		         0.27167	-4.90000e+01	
2.78592   	-2.53951e+01	-3.09756e+01	-3.51048e+01		         0.27333	-5.00000e+01	
2.80290   	-2.58804e+01	-3.13136e+01	-3.39232e+01		         0.27500	-5.00000e+01	
2.81988   	-2.59248e+01	-3.17084e+01	-3.54348e+01		         0.27667	-5.10000e+01	
2.83686   	-2.54358e+01	-3.02570e+01	-3.57298e+01		         0.27833	-5.20000e+01	
2.85384   	-2.50415e+01	-3.06002e+01	-3.62208e+01		         0.28000	-5.20000e+01	
2.87082   	-2.48669e+01	-3.15645e+01	-3.69266e+01		         0.28167	-5.20000e+01	
2.88780   	-2.47879e+01	-3.07147e+01	-3.75409e+01		         0.28333	-5.20000e+01	
2.90478   	-2.48835e+01	-3.07954e+01	-3.74557e+01		         0.28500	-5.20000e+01	
2.92176   	-2.50807e+01	-3.18152e+01	-3.74304e+01		         0.28667	-5.10000e+01	
2.93874   	-2.53374e+01	-3.13362e+01	-3.72712e+01		         0.28833	-5.00000e+01	
2.95572   	-2.54142e+01	-3.13029e+01	-3.65425e+01		         0.29000	-4.90000e+01	
2.97288   	-2.53113e+01	-3.12644e+01	-3.62483e+01		         0.29167	-4.80000e+01	
2.98968   	-2.52115e+01	-3.14140e+01	-3.62364e+01		         0.29333	-4.60000e+01	
3.00666   	-2.49919e+01	-3.15289e+01	-3.62029e+01		         0.29500	-4.50000e+01	
3.02364   	-2.48776e+01	-3.16613e+01	-3.59054e+01		         0.29667	-4.30000e+01	
3.04062   	-2.47422e+01	-3.19528e+01	-3.60656e+01		         0.29833	-4.20000e+01	
3.05760   	-2.46940e+01	-3.21145e+01	-3.58518e+01		         0.30000	-4.10000e+01	
3.07458   	-2.45806e+01	-3.21510e+01	-3.54578e+01		         0.30167	-4.00000e+01	
3.09156   	-2.44833e+01	-3.19740e+01	-3.52218e+01		         0.30333	-3.90000e+01	
3.10853   	-2.44095e+01	-3.17341e+01	-3.51574e+01		         0.30500	-3.80000e+01	
3.12552   	-2.42578e+01	-3.17302e+01	-3.51689e+01		         0.30667	-3.60000e+01	
3.14250   	-2.42053e+01	-3.18569e+01	-3.52077e+01		         0.30833	-3.50000e+01	
3.15948   	-2.41576e+01	-3.20311e+01	-3.52405e+01		         0.31000	-3.40000e+01	
3.17646   	-2.41822e+01	-3.23062e+01	-3.52979e+01		         0.31167	-3.20000e+01	
3.19344   	-2.45642e+01	-3.31754e+01	-3.53251e+01		         0.31333	-3.10000e+01	
3.21042   	-2.43343e+01	-3.33097e+01	-3.54006e+01		         0.31500	-2.90000e+01	
3.22740   	-2.45503e+01	-3.30758e+01	-3.84177e+01		         0.31667	-2.70000e+01	
3.24438   	-2.47352e+01	-3.56020e+01	-4.12528e+01		         0.31833	-2.40000e+01	
3.26136   	-2.39398e+01	-3.70667e+01	-4.57223e+01		         0.32000	-2.20000e+01	
3.27834   	-2.36900e+01	-3.76155e+01	-4.86423e+01		         0.32167	-1.90000e+01	
3.29532   	-2.30480e+01	-3.67347e+01	-4.81271e+01		         0.32333	-1.60000e+01	
3.31230   	-2.07482e+01	-3.54461e+01	-4.69929e+01		         0.32500	-1.30000e+01	
3.32928   	-1.75868e+01	-3.53606e+01	-4.52120e+01		         0.32667	-1.10000e+01	
					         0.32833	-8.00000e+00	
					         0.33000	-5.00000e+00	
					         0.33167	-2.00000e+00	
					         0.33333	1.00000e+00	
					         0.33500	3.00000e+00	
					         0.33667	6.00000e+00	
					         0.33833	9.00000e+00	
					         0.34000	1.10000e+01	
					         0.34167	1.40000e+01	
					         0.34333	1.60000e+01	
					         0.34500	1.80000e+01	
					         0.34667	2.00000e+01	
					         0.34833	2.20000e+01	
					         0.35000	2.40000e+01	
					         0.35167	2.50000e+01	
					         0.35333	2.70000e+01	
					         0.35500	2.80000e+01	
					         0.35667	3.00000e+01	
					         0.35833	3.10000e+01	
					         0.36000	3.20000e+01	
					         0.36167	3.40000e+01	
					         0.36333	3.50000e+01	
					         0.36500	3.60000e+01	
					         0.36667	3.70000e+01	
					         0.36833	3.80000e+01	
					         0.37000	3.90000e+01	
					         0.37167	3.90000e+01	
					         0.37333	4.00000e+01	
					         0.37500	4.10000e+01	
					         0.37667	4.10000e+01	
					         0.37833	4.10000e+01	
					         0.38000	4.10000e+01	
					         0.38167	4.10000e+01	
					         0.38333	4.10000e+01	
					         0.38500	4.00000e+01	
					         0.38667	4.00000e+01	
					         0.38833	4.00000e+01	
					         0.39000	3.90000e+01	
					         0.39167	3.90000e+01	
					         0.39333	3.80000e+01	
					         0.39500	3.80000e+01	
					         0.39667	3.70000e+01	
					         0.39833	3.70000e+01	
					         0.40000	3.70000e+01	
					         0.40167	3.60000e+01	
					         0.40333	3.60000e+01	
					         0.40500	3.60000e+01	
					         0.40667	3.50000e+01	
					         0.40833	3.50000e+01	
					         0.41000	3.50000e+01	
					         0.41167	3.40000e+01	
					         0.41333	3.40000e+01	
					         0.41500	3.30000e+01	
					         0.41667	3.30000e+01	
					         0.41833	3.30000e+01	
					         0.42000	3.20000e+01	
					         0.42167	3.10000e+01	
					         0.42333	3.10000e+01	
					         0.42500	3.00000e+01	
					         0.42667	3.00000e+01	
					         0.42833	2.90000e+01	
					         0.43000	2.90000e+01	
					         0.43167	2.80000e+01	
					         0.43333	2.70000e+01	
					         0.43500	2.70000e+01	
					         0.43667	2.70000e+01	
					         0.43833	2.60000e+01	
					         0.44000	2.60000e+01	
					         0.44167	2.50000e+01	
					         0.44333	2.50000e+01	
					         0.44500	2.40000e+01	
					         0.44667	2.30000e+01	
					         0.44833	2.20000e+01	
					         0.45000	2.10000e+01	
					         0.45167	2.00000e+01	
					         0.45333	1.90000e+01	
					         0.45500	1.80000e+01	
					         0.45667	1.60000e+01	
					         0.45833	1.50000e+01	
					         0.46000	1.40000e+01	
					         0.46167	1.30000e+01	
					         0.46333	1.20000e+01	
					         0.46500	1.10000e+01	
					         0.46667	1.10000e+01	
					         0.46833	1.00000e+01	
					         0.47000	1.00000e+01	
					         0.47167	9.00000e+00	
					         0.47333	9.00000e+00	
					         0.47500	9.00000e+00	
					         0.47667	8.00000e+00	
					         0.47833	7.00000e+00	
					         0.48000	7.00000e+00	
					         0.48167	6.00000e+00	
					         0.48333	5.00000e+00	
					         0.48500	4.00000e+00	
					         0.48667	3.00000e+00	
					         0.48833	2.00000e+00	
					         0.49000	1.00000e+00	
					         0.49167	1.00000e+00	
					         0.49333	0.00000e+00	
					         0.49500	0.00000e+00	
					         0.49667	0.00000e+00	
					         0.49833	0.00000e+00	
					         0.50000	0.00000e+00	
					         0.50167	1.00000e+00	
					         0.50333	2.00000e+00	
					         0.50500	3.00000e+00	
					         0.50667	3.00000e+00	
					         0.50833	4.00000e+00	
					         0.51000	5.00000e+00	
					         0.51167	5.00000e+00	
					         0.51333	6.00000e+00	
					         0.51500	6.00000e+00	
					         0.51667	6.00000e+00	
					         0.51833	5.00000e+00	
					         0.52000	5.00000e+00	
					         0.52167	4.00000e+00	
					         0.52333	3.00000e+00	
					         0.52500	2.00000e+00	
					         0.52667	1.00000e+00	
					         0.52833	0.00000e+00	
					         0.53000	-1.00000e+00	
					         0.53167	-2.00000e+00	
					         0.53333	-2.00000e+00	
					         0.53500	-3.00000e+00	
					         0.53667	-3.00000e+00	
					         0.53833	-3.00000e+00	
					         0.54000	-3.00000e+00	
					         0.54167	-3.00000e+00	
					         0.54333	-3.00000e+00	
					         0.54500	-2.00000e+00	
					         0.54667	-2.00000e+00	
					         0.54833	-2.00000e+00	
					         0.55000	-1.00000e+00	
					         0.55167	-1.00000e+00	
					         0.55333	0.00000e+00	
					         0.55500	0.00000e+00	
					         0.55667	0.00000e+00	
					         0.55833	0.00000e+00	
					         0.56000	0.00000e+00	
					         0.56167	0.00000e+00	
					         0.56333	1.00000e+00	
					         0.56500	1.00000e+00	
					         0.56667	1.00000e+00	
					         0.56833	1.00000e+00	
					         0.57000	1.00000e+00	
					         0.57167	0.00000e+00	
					         0.57333	0.00000e+00	
					         0.57500	0.00000e+00	
					         0.57667	-1.00000e+00	
					         0.57833	-1.00000e+00	
					         0.58000	-1.00000e+00	
					         0.58167	-2.00000e+00	
					         0.58333	-2.00000e+00	
					         0.58500	-2.00000e+00	
					         0.58667	-2.00000e+00	
					         0.58833	-2.00000e+00	
					         0.59000	-2.00000e+00	
					         0.59167	-2.00000e+00	
					         0.59333	-1.00000e+00	
					         0.59500	-1.00000e+00	
					         0.59667	0.00000e+00	
					         0.59833	1.00000e+00	
					         0.60000	2.00000e+00	
					         0.60167	3.00000e+00	
					         0.60333	3.00000e+00	
					         0.60500	4.00000e+00	
					         0.60667	5.00000e+00	
					         0.60833	5.00000e+00	
					         0.61000	5.00000e+00	
					         0.61167	5.00000e+00	
					         0.61333	5.00000e+00	
					         0.61500	5.00000e+00	
					         0.61667	4.00000e+00	
					         0.61833	4.00000e+00	
					         0.62000	4.00000e+00	
					         0.62167	4.00000e+00	
					         0.62333	4.00000e+00	
					         0.62500	4.00000e+00	
					         0.62667	4.00000e+00	
					         0.62833	4.00000e+00	
					         0.63000	5.00000e+00	
					         0.63167	5.00000e+00	
					         0.63333	5.00000e+00	
					         0.63500	5.00000e+00	
					         0.63667	5.00000e+00	
					         0.63833	5.00000e+00	
					         0.64000	5.00000e+00	
					         0.64167	4.00000e+00	
					         0.64333	4.00000e+00	
					         0.64500	4.00000e+00	
					         0.64667	3.00000e+00	
					         0.64833	3.00000e+00	
					         0.65000	3.00000e+00	
					         0.65167	2.00000e+00	
					         0.65333	2.00000e+00	
					         0.65500	2.00000e+00	
					         0.65667	2.00000e+00	
					         0.65833	2.00000e+00	
					         0.66000	2.00000e+00	
					         0.66167	2.00000e+00	
					         0.66333	2.00000e+00	
					         0.66500	1.00000e+00	
					         0.66667	1.00000e+00	
					         0.66833	1.00000e+00	
					         0.67000	0.00000e+00	
					         0.67167	0.00000e+00	
					         0.67333	0.00000e+00	
					         0.67500	-1.00000e+00	
					         0.67667	-1.00000e+00	
					         0.67833	-1.00000e+00	
					         0.68000	-1.00000e+00	
					         0.68167	-1.00000e+00	
					         0.68333	-1.00000e+00	
					         0.68500	0.00000e+00	
					         0.68667	0.00000e+00	
					         0.68833	1.00000e+00	
					         0.69000	1.00000e+00	
					         0.69167	2.00000e+00	
					         0.69333	2.00000e+00	
					         0.69500	3.00000e+00	
					         0.69667	4.00000e+00	
					         0.69833	4.00000e+00	
					         0.70000	5.00000e+00	
					         0.70167	5.00000e+00	
					         0.70333	6.00000e+00	
					         0.70500	6.00000e+00	
					         0.70667	6.00000e+00	
					         0.70833	6.00000e+00	
					         0.71000	6.00000e+00	
					         0.71167	6.00000e+00	
					         0.71333	6.00000e+00	
					         0.71500	6.00000e+00	
					         0.71667	5.00000e+00	
					         0.71833	4.00000e+00	
					         0.72000	4.00000e+00	
					         0.72167	3.00000e+00	
					         0.72333	3.00000e+00	
					         0.72500	2.00000e+00	
					         0.72667	1.00000e+00	
					         0.72833	1.00000e+00	
					         0.73000	1.00000e+00	
					         0.73167	0.00000e+00	
					         0.73333	0.00000e+00	
					         0.73500	0.00000e+00	
					         0.73667	0.00000e+00	
					         0.73833	0.00000e+00	
					         0.74000	0.00000e+00	
					         0.74167	0.00000e+00	
					         0.74333	0.00000e+00	
					         0.74500	0.00000e+00	
					         0.74667	0.00000e+00	
					         0.74833	0.00000e+00	
					         0.75000	0.00000e+00	
					         0.75167	0.00000e+00	
					         0.75333	0.00000e+00	
					         0.75500	0.00000e+00	
					         0.75667	1.00000e+00	
					         0.75833	1.00000e+00	
					         0.76000	1.00000e+00	
					         0.76167	1.00000e+00	
					         0.76333	1.00000e+00	
					         0.76500	1.00000e+00	
					         0.76667	2.00000e+00	
					         0.76833	2.00000e+00	
					         0.77000	2.00000e+00	
					         0.77167	2.00000e+00	
					         0.77333	2.00000e+00	
					         0.77500	2.00000e+00	
					         0.77667	2.00000e+00	
					         0.77833	2.00000e+00	
					         0.78000	1.00000e+00	
					         0.78167	1.00000e+00	
					         0.78333	0.00000e+00	
					         0.78500	0.00000e+00	
					         0.78667	-1.00000e+00	
					         0.78833	-1.00000e+00	
					         0.79000	-2.00000e+00	
					         0.79167	-2.00000e+00	
					         0.79333	-3.00000e+00	
					         0.79500	-3.00000e+00	
					         0.79667	-3.00000e+00	
					         0.79833	-3.00000e+00	
					         0.80000	-2.00000e+00	
					         0.80167	-2.00000e+00	
					         0.80333	-2.00000e+00	
					         0.80500	-1.00000e+00	
					         0.80667	-1.00000e+00	
					         0.80833	0.00000e+00	
					         0.81000	0.00000e+00	
					         0.81167	0.00000e+00	
					         0.81333	1.00000e+00	
					         0.81500	1.00000e+00	
					         0.81667	1.00000e+00	
					         0.81833	1.00000e+00	
					         0.82000	1.00000e+00	
					         0.82167	1.00000e+00	
					         0.82333	1.00000e+00	
					         0.82500	1.00000e+00	
					         0.82667	0.00000e+00	
					         0.82833	0.00000e+00	
					         0.83000	0.00000e+00	
					         0.83167	0.00000e+00	
					         0.83333	0.00000e+00	
					         0.83500	-1.00000e+00	
					         0.83667	-1.00000e+00	
					         0.83833	-1.00000e+00	
					         0.84000	-1.00000e+00	
					         0.84167	-1.00000e+00	
					         0.84333	-2.00000e+00	
					         0.84500	-2.00000e+00	
					         0.84667	-2.00000e+00	
					         0.84833	-2.00000e+00	
					         0.85000	-2.00000e+00	
					         0.85167	-3.00000e+00	
					         0.85333	-3.00000e+00	
					         0.85500	-3.00000e+00	
					         0.85667	-3.00000e+00	
					         0.85833	-3.00000e+00	
					         0.86000	-3.00000e+00	
					         0.86167	-3.00000e+00	
					         0.86333	-3.00000e+00	
					         0.86500	-3.00000e+00	
					         0.86667	-2.00000e+00	
					         0.86833	-2.00000e+00	
					         0.87000	-2.00000e+00	
					         0.87167	-2.00000e+00	
					         0.87333	-2.00000e+00	
					         0.87500	-3.00000e+00	
					         0.87667	-3.00000e+00	
					         0.87833	-5.00000e+00	
					         0.88000	-6.00000e+00	
					         0.88167	-8.00000e+00	
					         0.88333	-9.00000e+00	
					         0.88500	-1.20000e+01	
					         0.88667	-1.40000e+01	
					         0.88833	-1.70000e+01	
					         0.89000	-2.00000e+01	
					         0.89167	-2.30000e+01	
					         0.89333	-2.60000e+01	
					         0.89500	-2.80000e+01	
					         0.89667	-3.10000e+01	
					         0.89833	-3.30000e+01	
					         0.90000	-3.50000e+01	
					         0.90167	-3.60000e+01	
					         0.90333	-3.80000e+01	
					         0.90500	-3.90000e+01	
					         0.90667	-3.90000e+01	
					         0.90833	-4.00000e+01	
					         0.91000	-4.10000e+01	
					         0.91167	-4.10000e+01	
					         0.91333	-4.20000e+01	
					         0.91500	-4.20000e+01	
					         0.91667	-4.20000e+01	
					         0.91833	-4.20000e+01	
					         0.92000	-4.30000e+01	
					         0.92167	-4.30000e+01	
					         0.92333	-4.30000e+01	
					         0.92500	-4.30000e+01	
					         0.92667	-4.40000e+01	
					         0.92833	-4.40000e+01	
					         0.93000	-4.40000e+01	
					         0.93167	-4.40000e+01	
					         0.93333	-4.40000e+01	
					         0.93500	-4.30000e+01	
					         0.93667	-4.20000e+01	
					         0.93833	-4.10000e+01	
					         0.94000	-3.90000e+01	
					         0.94167	-3.70000e+01	
					         0.94333	-3.50000e+01	
					         0.94500	-3.20000e+01	
					         0.94667	-2.90000e+01	
					         0.94833	-2.50000e+01	
					         0.95000	-2.20000e+01	
					         0.95167	-1.80000e+01	
					         0.95333	-1.50000e+01	
					         0.95500	-1.10000e+01	
					         0.95667	-8.00000e+00	
					         0.95833	-5.00000e+00	
					         0.96000	-2.00000e+00	
					         0.96167	1.00000e+00	
					         0.96333	3.00000e+00	
					         0.96500	6.00000e+00	
					         0.96667	8.00000e+00	
					         0.96833	1.10000e+01	
					         0.97000	1.30000e+01	
					         0.97167	1.60000e+01	
					         0.97333	1.80000e+01	
					         0.97500	2.10000e+01	
					         0.97667	2.30000e+01	
					         0.97833	2.50000e+01	
					         0.98000	2.70000e+01	
					         0.98167	2.90000e+01	
					         0.98333	3.10000e+01	
					         0.98500	3.20000e+01	
					         0.98667	3.30000e+01	
					         0.98833	3.40000e+01	
					         0.99000	3.50000e+01	
					         0.99167	3.50000e+01	
					         0.99333	3.60000e+01	
					         0.99500	3.60000e+01	
					         0.99667	3.60000e+01	
					         0.99833	3.60000e+01	
					         1.00000	3.50000e+01	
					         1.00167	3.50000e+01	
					         1.00333	3.40000e+01	
					         1.00500	3.40000e+01	
					         1.00667	3.30000e+01	
					         1.00833	3.20000e+01	
					         1.01000	3.10000e+01	
					         1.01167	3.00000e+01	
					         1.01333	2.90000e+01	
					         1.01500	2.70000e+01	
					         1.01667	2.60000e+01	
					         1.01833	2.50000e+01	
					         1.02000	2.40000e+01	
					         1.02167	2.30000e+01	
					         1.02333	2.20000e+01	
					         1.02500	2.00000e+01	
					         1.02667	1.80000e+01	
					         1.02833	1.50000e+01	
					         1.03000	1.20000e+01	
					         1.03167	8.00000e+00	
					         1.03333	3.00000e+00	
					         1.03500	-2.00000e+00	
					         1.03667	-8.00000e+00	
					         1.03833	-1.30000e+01	
					         1.04000	-1.80000e+01	
					         1.04167	-2.40000e+01	
					         1.04333	-2.80000e+01	
					         1.04500	-3.30000e+01	
					         1.04667	-3.70000e+01	
					         1.04833	-4.10000e+01	
					         1.05000	-4.50000e+01	
					         1.05167	-5.00000e+01	
					         1.05333	-5.30000e+01	
					         1.05500	-5.60000e+01	
					         1.05667	-5.80000e+01	
					         1.05833	-5.80000e+01	
					         1.06000	-5.50000e+01	
					         1.06167	-5.00000e+01	
					         1.06333	-4.20000e+01	
					         1.06500	-3.00000e+01	
					         1.06667	-1.60000e+01	
					         1.06833	2.00000e+00	
					         1.07000	2.40000e+01	
					         1.07167	4.70000e+01	
					         1.07333	7.30000e+01	
					         1.07500	9.90000e+01	
					         1.07667	1.25000e+02	
					         1.07833	1.48000e+02	
					         1.08000	1.68000e+02	
					         1.08167	1.83000e+02	
					         1.08333	1.95000e+02	
					         1.08500	2.01000e+02	
					         1.08667	2.02000e+02	
					         1.08833	1.99000e+02	
					         1.09000	1.91000e+02	
					         1.09167	1.79000e+02	
					         1.09333	1.64000e+02	
					         1.09500	1.48000e+02	
					         1.09667	1.29000e+02	
					         1.09833	1.10000e+02	
					         1.10000	9.10000e+01	
					         1.10167	7.30000e+01	
					         1.10333	5.60000e+01	
					         1.10500	4.10000e+01	
					         1.10667	2.70000e+01	
					         1.10833	1.50000e+01	
					         1.11000	4.00000e+00	
					         1.11167	-4.00000e+00	
					         1.11333	-1.10000e+01	
					         1.11500	-1.70000e+01	
					         1.11667	-2.10000e+01	
					         1.11833	-2.50000e+01	
					         1.12000	-2.70000e+01	
					         1.12167	-2.90000e+01	
					         1.12333	-3.00000e+01	
					         1.12500	-3.00000e+01	
					         1.12667	-3.00000e+01	
					         1.12833	-3.00000e+01	
					         1.13000	-3.00000e+01	
					         1.13167	-2.90000e+01	
					         1.13333	-2.90000e+01	
					         1.13500	-2.80000e+01	
					         1.13667	-2.80000e+01	
					         1.13833	-2.70000e+01	
					         1.14000	-2.60000e+01	
					         1.14167	-2.60000e+01	
					         1.14333	-2.50000e+01	
					         1.14500	-2.50000e+01	
					         1.14667	-2.50000e+01	
					         1.14833	-2.50000e+01	
					         1.15000	-2.50000e+01	
					         1.15167	-2.40000e+01	
					         1.15333	-2.40000e+01	
					         1.15500	-2.40000e+01	
					         1.15667	-2.40000e+01	
					         1.15833	-2.40000e+01	
					         1.16000	-2.40000e+01	
					         1.16167	-2.40000e+01	
					         1.16333	-2.40000e+01	
					         1.16500	-2.40000e+01	
					         1.16667	-2.30000e+01	
					         1.16833	-2.30000e+01	
					         1.17000	-2.30000e+01	
					         1.17167	-2.30000e+01	
					         1.17333	-2.30000e+01	
					         1.17500	-2.30000e+01	
					         1.17667	-2.30000e+01	
					         1.17833	-2.30000e+01	
					         1.18000	-2.30000e+01	
					         1.18167	-2.30000e+01	
					         1.18333	-2.30000e+01	
					         1.18500	-2.30000e+01	
					         1.18667	-2.20000e+01	
					         1.18833	-2.20000e+01	
					         1.19000	-2.20000e+01	
					         1.19167	-2.20000e+01	
					         1.19333	-2.10000e+01	
					         1.19500	-2.10000e+01	
					         1.19667	-2.10000e+01	
					         1.19833	-2.00000e+01	
					         1.20000	-2.00000e+01	
					         1.20167	-1.90000e+01	
					         1.20333	-1.80000e+01	
					         1.20500	-1.80000e+01	
					         1.20667	-1.70000e+01	
					         1.20833	-1.70000e+01	
					         1.21000	-1.70000e+01	
					         1.21167	-1.60000e+01	
					         1.21333	-1.60000e+01	
					         1.21500	-1.60000e+01	
					         1.21667	-1.60000e+01	
					         1.21833	-1.50000e+01	
					         1.22000	-1.50000e+01	
					         1.22167	-1.50000e+01	
					         1.22333	-1.60000e+01	
					         1.22500	-1.60000e+01	
					         1.22667	-1.60000e+01	
					         1.22833	-1.60000e+01	
					         1.23000	-1.60000e+01	
					         1.23167	-1.50000e+01	
					         1.23333	-1.50000e+01	
					         1.23500	-1.50000e+01	
					         1.23667	-1.50000e+01	
					         1.23833	-1.50000e+01	
					         1.24000	-1.50000e+01	
					         1.24167	-1.50000e+01	
					         1.24333	-1.60000e+01	
					         1.24500	-1.60000e+01	
					         1.24667	-1.70000e+01	
					         1.24833	-1.70000e+01	
					         1.25000	-1.80000e+01	
					         1.25167	-1.90000e+01	
					         1.25333	-2.00000e+01	
					         1.25500	-2.00000e+01	
					         1.25667	-2.10000e+01	
					         1.25833	-2.20000e+01	
					         1.26000	-2.20000e+01	
					         1.26167	-2.20000e+01	
					         1.26333	-2.20000e+01	
					         1.26500	-2.30000e+01	
					         1.26667	-2.30000e+01	
					         1.26833	-2.30000e+01	
					         1.27000	-2.30000e+01	
					         1.27167	-2.30000e+01	
					         1.27333	-2.40000e+01	
					         1.27500	-2.40000e+01	
					         1.27667	-2.50000e+01	
					         1.27833	-2.60000e+01	
					         1.28000	-2.70000e+01	
					         1.28167	-2.80000e+01	
					         1.28333	-2.90000e+01	
					         1.28500	-3.00000e+01	
					         1.28667	-3.10000e+01	
					         1.28833	-3.30000e+01	
					         1.29000	-3.40000e+01	
					         1.29167	-3.50000e+01	
					         1.29333	-3.70000e+01	
					         1.29500	-3.80000e+01	
					         1.29667	-3.90000e+01	
					         1.29833	-4.00000e+01	
					         1.30000	-4.20000e+01	
					         1.30167	-4.30000e+01	
					         1.30333	-4.40000e+01	
					         1.30500	-4.50000e+01	
					         1.30667	-4.60000e+01	
					         1.30833	-4.70000e+01	
					         1.31000	-4.80000e+01	
					         1.31167	-4.90000e+01	
					         1.31333	-5.00000e+01	
					         1.31500	-5.10000e+01	
					         1.31667	-5.10000e+01	
					         1.31833	-5.20000e+01	
					         1.32000	-5.30000e+01	
					         1.32167	-5.30000e+01	
					         1.32333	-5.40000e+01	
					         1.32500	-5.40000e+01	
					         1.32667	-5.40000e+01	
					         1.32833	-5.40000e+01	
					         1.33000	-5.50000e+01	
					         1.33167	-5.50000e+01	
					         1.33333	-5.50000e+01	
					         1.33500	-5.40000e+01	
					         1.33667	-5.40000e+01	
					         1.33833	-5.40000e+01	
					         1.34000	-5.40000e+01	
					         1.34167	-5.30000e+01	
					         1.34333	-5.20000e+01	
					         1.34500	-5.20000e+01	
					         1.34667	-5.10000e+01	
					         1.34833	-5.00000e+01	
					         1.35000	-4.90000e+01	
					         1.35167	-4.80000e+01	
					         1.35333	-4.70000e+01	
					         1.35500	-4.50000e+01	
					         1.35667	-4.40000e+01	
					         1.35833	-4.20000e+01	
					         1.36000	-4.10000e+01	
					         1.36167	-3.90000e+01	
					         1.36333	-3.70000e+01	
					         1.36500	-3.50000e+01	
					         1.36667	-3.30000e+01	
					         1.36833	-3.10000e+01	
					         1.37000	-2.80000e+01	
					         1.37167	-2.60000e+01	
					         1.37333	-2.40000e+01	
					         1.37500	-2.10000e+01	
					         1.37667	-1.90000e+01	
					         1.37833	-1.70000e+01	
					         1.38000	-1.50000e+01	
					         1.38167	-1.30000e+01	
					         1.38333	-1.10000e+01	
					         1.38500	-8.00000e+00	
					         1.38667	-6.00000e+00	
					         1.38833	-4.00000e+00	
					         1.39000	-2.00000e+00	
					         1.39167	1.00000e+00	
					         1.39333	3.00000e+00	
					         1.39500	6.00000e+00	
					         1.39667	8.00000e+00	
					         1.39833	1.10000e+01	
					         1.40000	1.30000e+01	
					         1.40167	1.60000e+01	
					         1.40333	1.80000e+01	
					         1.40500	2.00000e+01	
					         1.40667	2.20000e+01	
					         1.40833	2.40000e+01	
					         1.41000	2.60000e+01	
					         1.41167	2.80000e+01	
					         1.41333	2.90000e+01	
					         1.41500	3.00000e+01	
					         1.41667	3.10000e+01	
					         1.41833	3.20000e+01	
					         1.42000	3.30000e+01	
					         1.42167	3.30000e+01	
					         1.42333	3.40000e+01	
					         1.42500	3.40000e+01	
					         1.42667	3.50000e+01	
					         1.42833	3.50000e+01	
					         1.43000	3.50000e+01	
					         1.43167	3.60000e+01	
					         1.43333	3.60000e+01	
					         1.43500	3.60000e+01	
					         1.43667	3.60000e+01	
					         1.43833	3.70000e+01	
					         1.44000	3.70000e+01	
					         1.44167	3.70000e+01	
					         1.44333	3.70000e+01	
					         1.44500	3.70000e+01	
					         1.44667	3.70000e+01	
					         1.44833	3.70000e+01	
					         1.45000	3.60000e+01	
					         1.45167	3.60000e+01	
					         1.45333	3.60000e+01	
					         1.45500	3.50000e+01	
					         1.45667	3.50000e+01	
					         1.45833	3.40000e+01	
					         1.46000	3.30000e+01	
					         1.46167	3.30000e+01	
					         1.46333	3.20000e+01	
					         1.46500	3.10000e+01	
					         1.46667	3.00000e+01	
					         1.46833	2.90000e+01	
					         1.47000	2.80000e+01	
					         1.47167	2.70000e+01	
					         1.47333	2.70000e+01	
					         1.47500	2.60000e+01	
					         1.47667	2.50000e+01	
					         1.47833	2.40000e+01	
					         1.48000	2.30000e+01	
					         1.48167	2.30000e+01	
					         1.48333	2.20000e+01	
					         1.48500	2.10000e+01	
					         1.48667	2.10000e+01	
					         1.48833	2.00000e+01	
					         1.49000	1.90000e+01	
					         1.49167	1.90000e+01	
					         1.49333	1.80000e+01	
					         1.49500	1.70000e+01	
					         1.49667	1.70000e+01	
					         1.49833	1.60000e+01	
					         1.50000	1.60000e+01	
					         1.50167	1.50000e+01	
					         1.50333	1.40000e+01	
					         1.50500	1.40000e+01	
					         1.50667	1.30000e+01	
					         1.50833	1.30000e+01	
					         1.51000	1.20000e+01	
					         1.51167	1.20000e+01	
					         1.51333	1.10000e+01	
					         1.51500	1.10000e+01	
					         1.51667	1.00000e+01	
					         1.51833	1.00000e+01	
					         1.52000	9.00000e+00	
					         1.52167	8.00000e+00	
					         1.52333	8.00000e+00	
					         1.52500	7.00000e+00	
					         1.52667	7.00000e+00	
					         1.52833	7.00000e+00	
					         1.53000	6.00000e+00	
					         1.53167	6.00000e+00	
					         1.53333	6.00000e+00	
					         1.53500	5.00000e+00	
					         1.53667	5.00000e+00	
					         1.53833	5.00000e+00	
					         1.54000	4.00000e+00	
					         1.54167	4.00000e+00	
					         1.54333	4.00000e+00	
					         1.54500	3.00000e+00	
					         1.54667	3.00000e+00	
					         1.54833	2.00000e+00	
					         1.55000	2.00000e+00	
					         1.55167	1.00000e+00	
					         1.55333	1.00000e+00	
					         1.55500	1.00000e+00	
					         1.55667	0.00000e+00	
					         1.55833	0.00000e+00	
					         1.56000	0.00000e+00	
					         1.56167	0.00000e+00	
					         1.56333	0.00000e+00	
					         1.56500	0.00000e+00	
					         1.56667	0.00000e+00	
					         1.56833	0.00000e+00	
					         1.57000	0.00000e+00	
					         1.57167	0.00000e+00	
					         1.57333	0.00000e+00	
					         1.57500	1.00000e+00	
					         1.57667	1.00000e+00	
					         1.57833	1.00000e+00	
					         1.58000	1.00000e+00	
					         1.58167	1.00000e+00	
					         1.58333	1.00000e+00	
					         1.58500	1.00000e+00	
					         1.58667	1.00000e+00	
					         1.58833	1.00000e+00	
					         1.59000	1.00000e+00	
					         1.59167	1.00000e+00	
					         1.59333	1.00000e+00	
					         1.59500	1.00000e+00	
					         1.59667	1.00000e+00	
					         1.59833	1.00000e+00	
					         1.60000	1.00000e+00	
					         1.60167	1.00000e+00	
					         1.60333	1.00000e+00	
					         1.60500	0.00000e+00	
					         1.60667	0.00000e+00	
					         1.60833	0.00000e+00	
					         1.61000	0.00000e+00	
					         1.61167	0.00000e+00	
					         1.61333	0.00000e+00	
					         1.61500	0.00000e+00	
					         1.61667	0.00000e+00	
					         1.61833	0.00000e+00	
					         1.62000	0.00000e+00	
					         1.62167	0.00000e+00	
					         1.62333	1.00000e+00	
					         1.62500	1.00000e+00	
					         1.62667	1.00000e+00	
					         1.62833	2.00000e+00	
					         1.63000	2.00000e+00	
					         1.63167	2.00000e+00	
					         1.63333	3.00000e+00	
					         1.63500	3.00000e+00	
					         1.63667	3.00000e+00	
					         1.63833	3.00000e+00	
					         1.64000	3.00000e+00	
					         1.64167	3.00000e+00	
					         1.64333	4.00000e+00	
					         1.64500	4.00000e+00	
					         1.64667	4.00000e+00	
					         1.64833	4.00000e+00	
					         1.65000	4.00000e+00	
					         1.65167	4.00000e+00	
					         1.65333	4.00000e+00	
					         1.65500	4.00000e+00	
					         1.65667	4.00000e+00	
					         1.65833	4.00000e+00	
					         1.66000	4.00000e+00	
					         1.66167	4.00000e+00	
					         1.66333	4.00000e+00	
					         1.66500	4.00000e+00	
					         1.66667	3.00000e+00	
					         1.66833	3.00000e+00	
					         1.67000	3.00000e+00	
					         1.67167	3.00000e+00	
					         1.67333	3.00000e+00	
					         1.67500	3.00000e+00	
					         1.67667	3.00000e+00	
					         1.67833	3.00000e+00	
					         1.68000	3.00000e+00	
					         1.68167	2.00000e+00	
					         1.68333	2.00000e+00	
					         1.68500	2.00000e+00	
					         1.68667	2.00000e+00	
					         1.68833	2.00000e+00	
					         1.69000	2.00000e+00	
					         1.69167	2.00000e+00	
					         1.69333	2.00000e+00	
					         1.69500	2.00000e+00	
					         1.69667	2.00000e+00	
					         1.69833	2.00000e+00	
					         1.70000	2.00000e+00	
					         1.70167	2.00000e+00	
					         1.70333	2.00000e+00	
					         1.70500	2.00000e+00	
					         1.70667	2.00000e+00	
					         1.70833	2.00000e+00	
					         1.71000	2.00000e+00	
					         1.71167	2.00000e+00	
					         1.71333	2.00000e+00	
					         1.71500	2.00000e+00	
					         1.71667	2.00000e+00	
					         1.71833	2.00000e+00	
					         1.72000	2.00000e+00	
					         1.72167	2.00000e+00	
					         1.72333	2.00000e+00	
					         1.72500	2.00000e+00	
					         1.72667	1.00000e+00	
					         1.72833	1.00000e+00	
					         1.73000	1.00000e+00	
					         1.73167	1.00000e+00	
					         1.73333	1.00000e+00	
					         1.73500	1.00000e+00	
					         1.73667	1.00000e+00	
					         1.73833	1.00000e+00	
					         1.74000	0.00000e+00	
					         1.74167	0.00000e+00	
					         1.74333	0.00000e+00	
					         1.74500	0.00000e+00	
					         1.74667	0.00000e+00	
					         1.74833	0.00000e+00	
					         1.75000	1.00000e+00	
					         1.75167	1.00000e+00	
					         1.75333	1.00000e+00	
					         1.75500	1.00000e+00	
					         1.75667	2.00000e+00	
					         1.75833	2.00000e+00	
					         1.76000	2.00000e+00	
					         1.76167	2.00000e+00	
					         1.76333	2.00000e+00	
					         1.76500	2.00000e+00	
					         1.76667	2.00000e+00	
					         1.76833	2.00000e+00	
					         1.77000	2.00000e+00	
					         1.77167	2.00000e+00	
					         1.77333	2.00000e+00	
					         1.77500	2.00000e+00	
					         1.77667	2.00000e+00	
					         1.77833	2.00000e+00	
					         1.78000	2.00000e+00	
					         1.78167	2.00000e+00	
					         1.78333	2.00000e+00	
					         1.78500	1.00000e+00	
					         1.78667	1.00000e+00	
					         1.78833	1.00000e+00	
					         1.79000	1.00000e+00	
					         1.79167	1.00000e+00	
					         1.79333	0.00000e+00	
					         1.79500	0.00000e+00	
					         1.79667	0.00000e+00	
					         1.79833	0.00000e+00	
					         1.80000	-1.00000e+00	
					         1.80167	-1.00000e+00	
					         1.80333	-2.00000e+00	
					         1.80500	-2.00000e+00	
					         1.80667	-2.00000e+00	
					         1.80833	-2.00000e+00	
					         1.81000	-2.00000e+00	
					         1.81167	-2.00000e+00	
					         1.81333	-2.00000e+00	
					         1.81500	-2.00000e+00	
					         1.81667	-2.00000e+00	
					         1.81833	-2.00000e+00	
					         1.82000	-2.00000e+00	
					         1.82167	-2.00000e+00	
					         1.82333	-1.00000e+00	
					         1.82500	-1.00000e+00	
					         1.82667	-1.00000e+00	
					         1.82833	-1.00000e+00	
					         1.83000	-1.00000e+00	
					         1.83167	-1.00000e+00	
					         1.83333	-1.00000e+00	
					         1.83500	-1.00000e+00	
					         1.83667	-1.00000e+00	
					         1.83833	-1.00000e+00	
					         1.84000	-1.00000e+00	
					         1.84167	-1.00000e+00	
					         1.84333	-2.00000e+00	
					         1.84500	-2.00000e+00	
					         1.84667	-2.00000e+00	
					         1.84833	-2.00000e+00	
					         1.85000	-2.00000e+00	
					         1.85167	-2.00000e+00	
					         1.85333	-2.00000e+00	
					         1.85500	-2.00000e+00	
					         1.85667	-2.00000e+00	
					         1.85833	-2.00000e+00	
					         1.86000	-2.00000e+00	
					         1.86167	-2.00000e+00	
					         1.86333	-2.00000e+00	
					         1.86500	-2.00000e+00	
					         1.86667	-2.00000e+00	
					         1.86833	-2.00000e+00	
					         1.87000	-2.00000e+00	
					         1.87167	-2.00000e+00	
					         1.87333	-3.00000e+00	
					         1.87500	-3.00000e+00	
					         1.87667	-3.00000e+00	
					         1.87833	-3.00000e+00	
					         1.88000	-3.00000e+00	
					         1.88167	-3.00000e+00	
					         1.88333	-4.00000e+00	
					         1.88500	-4.00000e+00	
					         1.88667	-4.00000e+00	
					         1.88833	-4.00000e+00	
					         1.89000	-4.00000e+00	
					         1.89167	-3.00000e+00	
					         1.89333	-3.00000e+00	
					         1.89500	-3.00000e+00	
					         1.89667	-3.00000e+00	
					         1.89833	-3.00000e+00	
					         1.90000	-3.00000e+00	
					         1.90167	-3.00000e+00	
					         1.90333	-3.00000e+00	
					         1.90500	-3.00000e+00	
					         1.90667	-3.00000e+00	
					         1.90833	-4.00000e+00	
					         1.91000	-4.00000e+00	
					         1.91167	-4.00000e+00	
					         1.91333	-4.00000e+00	
					         1.91500	-4.00000e+00	
					         1.91667	-4.00000e+00	
					         1.91833	-4.00000e+00	
					         1.92000	-4.00000e+00	
					         1.92167	-4.00000e+00	
					         1.92333	-4.00000e+00	
					         1.92500	-5.00000e+00	
					         1.92667	-5.00000e+00	
					         1.92833	-5.00000e+00	
					         1.93000	-5.00000e+00	
					         1.93167	-5.00000e+00	
					         1.93333	-5.00000e+00	
					         1.93500	-5.00000e+00	
					         1.93667	-5.00000e+00	
					         1.93833	-5.00000e+00	
					         1.94000	-5.00000e+00	
					         1.94167	-5.00000e+00	
					         1.94333	-5.00000e+00	
					         1.94500	-6.00000e+00	
					         1.94667	-6.00000e+00	
					         1.94833	-6.00000e+00	
					         1.95000	-6.00000e+00	
					         1.95167	-6.00000e+00	
					         1.95333	-6.00000e+00	
					         1.95500	-6.00000e+00	
					         1.95667	-6.00000e+00	
					         1.95833	-6.00000e+00	
					         1.96000	-6.00000e+00	
					         1.96167	-6.00000e+00	
					         1.96333	-6.00000e+00	
					         1.96500	-6.00000e+00	
					         1.96667	-5.00000e+00	
					         1.96833	-5.00000e+00	
					         1.97000	-5.00000e+00	
					         1.97167	-5.00000e+00	
					         1.97333	-5.00000e+00	
					         1.97500	-6.00000e+00	
					         1.97667	-6.00000e+00	
					         1.97833	-6.00000e+00	
					         1.98000	-7.00000e+00	
					         1.98167	-8.00000e+00	
					         1.98333	-9.00000e+00	
					         1.98500	-1.00000e+01	
					         1.98667	-1.20000e+01	
					         1.98833	-1.40000e+01	
					         1.99000	-1.60000e+01	
					         1.99167	-1.80000e+01	
					         1.99333	-2.00000e+01	
					         1.99500	-2.30000e+01	
					         1.99667	-2.50000e+01	
					         1.99833	-2.80000e+01	
					         2.00000	-3.00000e+01	
					         2.00167	-3.30000e+01	
					         2.00333	-3.50000e+01	
					         2.00500	-3.70000e+01	
					         2.00667	-3.80000e+01	
					         2.00833	-4.00000e+01	
					         2.01000	-4.10000e+01	
					         2.01167	-4.20000e+01	
					         2.01333	-4.30000e+01	
					         2.01500	-4.40000e+01	
					         2.01667	-4.50000e+01	
					         2.01833	-4.50000e+01	
					         2.02000	-4.60000e+01	
					         2.02167	-4.70000e+01	
					         2.02333	-4.70000e+01	
					         2.02500	-4.80000e+01	
					         2.02667	-4.80000e+01	
					         2.02833	-4.90000e+01	
					         2.03000	-4.90000e+01	
					         2.03167	-4.90000e+01	
					         2.03333	-4.90000e+01	
					         2.03500	-4.90000e+01	
					         2.03667	-4.80000e+01	
					         2.03833	-4.80000e+01	
					         2.04000	-4.70000e+01	
					         2.04167	-4.50000e+01	
					         2.04333	-4.40000e+01	
					         2.04500	-4.20000e+01	
					         2.04667	-4.00000e+01	
					         2.04833	-3.70000e+01	
					         2.05000	-3.40000e+01	
					         2.05167	-3.10000e+01	
					         2.05333	-2.80000e+01	
					         2.05500	-2.40000e+01	
					         2.05667	-2.00000e+01	
					         2.05833	-1.70000e+01	
					         2.06000	-1.30000e+01	
					         2.06167	-9.00000e+00	
					         2.06333	-6.00000e+00	
					         2.06500	-3.00000e+00	
					         2.06667	0.00000e+00	
					         2.06833	3.00000e+00	
					         2.07000	5.00000e+00	
					         2.07167	8.00000e+00	
					         2.07333	1.00000e+01	
					         2.07500	1.20000e+01	
					         2.07667	1.30000e+01	
					         2.07833	1.50000e+01	
					         2.08000	1.70000e+01	
					         2.08167	1.80000e+01	
					         2.08333	1.90000e+01	
					         2.08500	2.10000e+01	
					         2.08667	2.20000e+01	
					         2.08833	2.30000e+01	
					         2.09000	2.40000e+01	
					         2.09167	2.50000e+01	
					         2.09333	2.60000e+01	
					         2.09500	2.60000e+01	
					         2.09667	2.70000e+01	
					         2.09833	2.70000e+01	
					         2.10000	2.70000e+01	
					         2.10167	2.70000e+01	
					         2.10333	2.70000e+01	
					         2.10500	2.70000e+01	
					         2.10667	2.60000e+01	
					         2.10833	2.60000e+01	
					         2.11000	2.50000e+01	
					         2.11167	2.50000e+01	
					         2.11333	2.40000e+01	
					         2.11500	2.30000e+01	
					         2.11667	2.30000e+01	
					         2.11833	2.20000e+01	
					         2.12000	2.10000e+01	
					         2.12167	2.10000e+01	
					         2.12333	2.00000e+01	
					         2.12500	2.00000e+01	
					         2.12667	1.90000e+01	
					         2.12833	1.80000e+01	
					         2.13000	1.70000e+01	
					         2.13167	1.50000e+01	
					         2.13333	1.30000e+01	
					         2.13500	1.00000e+01	
					         2.13667	6.00000e+00	
					         2.13833	1.00000e+00	
					         2.14000	-4.00000e+00	
					         2.14167	-1.00000e+01	
					         2.14333	-1.50000e+01	
					         2.14500	-2.10000e+01	
					         2.14667	-2.70000e+01	
					         2.14833	-3.30000e+01	
					         2.15000	-3.80000e+01	
					         2.15167	-4.30000e+01	
					         2.15333	-4.80000e+01	
					         2.15500	-5.30000e+01	
					         2.15667	-5.70000e+01	
					         2.15833	-6.10000e+01	
					         2.16000	-6.40000e+01	
					         2.16167	-6.60000e+01	
					         2.16333	-6.50000e+01	
					         2.16500	-6.20000e+01	
					         2.16667	-5.70000e+01	
					         2.16833	-4.80000e+01	
					         2.17000	-3.60000e+01	
					         2.17167	-2.10000e+01	
					         2.17333	-2.00000e+00	
					         2.17500	1.90000e+01	
					         2.17667	4.30000e+01	
					         2.17833	6.90000e+01	
					         2.18000	9.60000e+01	
					         2.18167	1.22000e+02	
					         2.18333	1.46000e+02	
					         2.18500	1.67000e+02	
					         2.18667	1.83000e+02	
					         2.18833	1.95000e+02	
					         2.19000	2.02000e+02	
					         2.19167	2.03000e+02	
					         2.19333	2.01000e+02	
					         2.19500	1.93000e+02	
					         2.19667	1.82000e+02	
					         2.19833	1.68000e+02	
					         2.20000	1.51000e+02	
					         2.20167	1.33000e+02	
					         2.20333	1.14000e+02	
					         2.20500	9.50000e+01	
					         2.20667	7.60000e+01	
					         2.20833	5.90000e+01	
					         2.21000	4.30000e+01	
					         2.21167	2.90000e+01	
					         2.21333	1.70000e+01	
					         2.21500	6.00000e+00	
					         2.21667	-3.00000e+00	
					         2.21833	-1.10000e+01	
					         2.22000	-1.70000e+01	
					         2.22167	-2.10000e+01	
					         2.22333	-2.50000e+01	
					         2.22500	-2.80000e+01	
					         2.22667	-2.90000e+01	
					         2.22833	-3.10000e+01	
					         2.23000	-3.10000e+01	
					         2.23167	-3.10000e+01	
					         2.23333	-3.10000e+01	
					         2.23500	-3.10000e+01	
					         2.23667	-3.10000e+01	
					         2.23833	-3.00000e+01	
					         2.24000	-3.00000e+01	
					         2.24167	-2.90000e+01	
					         2.24333	-2.80000e+01	
					         2.24500	-2.80000e+01	
					         2.24667	-2.70000e+01	
					         2.24833	-2.70000e+01	
					         2.25000	-2.70000e+01	
					         2.25167	-2.60000e+01	
					         2.25333	-2.60000e+01	
					         2.25500	-2.60000e+01	
					         2.25667	-2.50000e+01	
					         2.25833	-2.50000e+01	
					         2.26000	-2.50000e+01	
					         2.26167	-2.50000e+01	
					         2.26333	-2.50000e+01	
					         2.26500	-2.40000e+01	
					         2.26667	-2.40000e+01	
					         2.26833	-2.40000e+01	
					         2.27000	-2.40000e+01	
					         2.27167	-2.30000e+01	
					         2.27333	-2.30000e+01	
					         2.27500	-2.30000e+01	
					         2.27667	-2.20000e+01	
					         2.27833	-2.20000e+01	
					         2.28000	-2.20000e+01	
					         2.28167	-2.20000e+01	
					         2.28333	-2.10000e+01	
					         2.28500	-2.10000e+01	
					         2.28667	-2.10000e+01	
					         2.28833	-2.10000e+01	
					         2.29000	-2.10000e+01	
					         2.29167	-2.10000e+01	
					         2.29333	-2.10000e+01	
					         2.29500	-2.10000e+01	
					         2.29667	-2.10000e+01	
					         2.29833	-2.10000e+01	
					         2.30000	-2.10000e+01	
					         2.30167	-2.10000e+01	
					         2.30333	-2.10000e+01	
					         2.30500	-2.10000e+01	
					         2.30667	-2.10000e+01	
					         2.30833	-2.10000e+01	
					         2.31000	-2.10000e+01	
					         2.31167	-2.10000e+01	
					         2.31333	-2.00000e+01	
					         2.31500	-2.00000e+01	
					         2.31667	-2.00000e+01	
					         2.31833	-2.00000e+01	
					         2.32000	-2.00000e+01	
					         2.32167	-2.00000e+01	
					         2.32333	-2.00000e+01	
					         2.32500	-2.00000e+01	
					         2.32667	-2.00000e+01	
					         2.32833	-2.00000e+01	
					         2.33000	-2.00000e+01	
					         2.33167	-2.10000e+01	
					         2.33333	-2.10000e+01	
					         2.33500	-2.10000e+01	
					         2.33667	-2.10000e+01	
					         2.33833	-2.10000e+01	
					         2.34000	-2.20000e+01	
					         2.34167	-2.20000e+01	
					         2.34333	-2.20000e+01	
					         2.34500	-2.30000e+01	
					         2.34667	-2.30000e+01	
					         2.34833	-2.30000e+01	
					         2.35000	-2.30000e+01	
					         2.35167	-2.40000e+01	
					         2.35333	-2.40000e+01	
					         2.35500	-2.40000e+01	
					         2.35667	-2.40000e+01	
					         2.35833	-2.50000e+01	
					         2.36000	-2.50000e+01	
					         2.36167	-2.50000e+01	
					         2.36333	-2.60000e+01	
					         2.36500	-2.60000e+01	
					         2.36667	-2.60000e+01	
					         2.36833	-2.70000e+01	
					         2.37000	-2.80000e+01	
					         2.37167	-2.80000e+01	
					         2.37333	-2.90000e+01	
					         2.37500	-2.90000e+01	
					         2.37667	-3.00000e+01	
					         2.37833	-3.10000e+01	
					         2.38000	-3.10000e+01	
					         2.38167	-3.20000e+01	
					         2.38333	-3.30000e+01	
					         2.38500	-3.40000e+01	
					         2.38667	-3.40000e+01	
					         2.38833	-3.50000e+01	
					         2.39000	-3.60000e+01	
					         2.39167	-3.70000e+01	
					         2.39333	-3.80000e+01	
					         2.39500	-3.90000e+01	
					         2.39667	-4.00000e+01	
					         2.39833	-4.10000e+01	
					         2.40000	-4.20000e+01	
					         2.40167	-4.30000e+01	
					         2.40333	-4.40000e+01	
					         2.40500	-4.50000e+01	
					         2.40667	-4.50000e+01	
					         2.40833	-4.60000e+01	
					         2.41000	-4.70000e+01	
					         2.41167	-4.80000e+01	
					         2.41333	-4.80000e+01	
					         2.41500	-4.90000e+01	
					         2.41667	-4.90000e+01	
					         2.41833	-5.00000e+01	
					         2.42000	-5.00000e+01	
					         2.42167	-5.10000e+01	
					         2.42333	-5.10000e+01	
					         2.42500	-5.20000e+01	
					         2.42667	-5.20000e+01	
					         2.42833	-5.20000e+01	
					         2.43000	-5.30000e+01	
					         2.43167	-5.30000e+01	
					         2.43333	-5.30000e+01	
					         2.43500	-5.30000e+01	
					         2.43667	-5.30000e+01	
					         2.43833	-5.30000e+01	
					         2.44000	-5.30000e+01	
					         2.44167	-5.30000e+01	
					         2.44333	-5.30000e+01	
					         2.44500	-5.30000e+01	
					         2.44667	-5.20000e+01	
					         2.44833	-5.20000e+01	
					         2.45000	-5.10000e+01	
					         2.45167	-5.00000e+01	
					         2.45333	-4.90000e+01	
					         2.45500	-4.80000e+01	
					         2.45667	-4.70000e+01	
					         2.45833	-4.60000e+01	
					         2.46000	-4.50000e+01	
					         2.46167	-4.30000e+01	
					         2.46333	-4.20000e+01	
					         2.46500	-4.00000e+01	
					         2.46667	-3.80000e+01	
					         2.46833	-3.70000e+01	
					         2.47000	-3.50000e+01	
					         2.47167	-3.30000e+01	
					         2.47333	-3.10000e+01	
					         2.47500	-2.90000e+01	
					         2.47667	-2.70000e+01	
					         2.47833	-2.50000e+01	
					         2.48000	-2.30000e+01	
					         2.48167	-2.00000e+01	
					         2.48333	-1.80000e+01	
					         2.48500	-1.60000e+01	
					         2.48667	-1.30000e+01	
					         2.48833	-1.10000e+01	
					         2.49000	-9.00000e+00	
					         2.49167	-6.00000e+00	
					         2.49333	-4.00000e+00	
					         2.49500	-1.00000e+00	
					         2.49667	1.00000e+00	
					         2.49833	3.00000e+00	
					         2.50000	6.00000e+00	
					         2.50167	8.00000e+00	
					         2.50333	1.00000e+01	
					         2.50500	1.20000e+01	
					         2.50667	1.40000e+01	
					         2.50833	1.70000e+01	
					         2.51000	1.80000e+01	
					         2.51167	2.00000e+01	
					         2.51333	2.20000e+01	
					         2.51500	2.40000e+01	
					         2.51667	2.50000e+01	
					         2.51833	2.70000e+01	
					         2.52000	2.80000e+01	
					         2.52167	2.90000e+01	
					         2.52333	3.00000e+01	
					         2.52500	3.00000e+01	
					         2.52667	3.10000e+01	
					         2.52833	3.20000e+01	
					         2.53000	3.20000e+01	
					         2.53167	3.20000e+01	
					         2.53333	3.20000e+01	
					         2.53500	3.30000e+01	
					         2.53667	3.30000e+01	
					         2.53833	3.30000e+01	
					         2.54000	3.30000e+01	
					         2.54167	3.30000e+01	
					         2.54333	3.40000e+01	
					         2.54500	3.40000e+01	
					         2.54667	3.40000e+01	
					         2.54833	3.40000e+01	
					         2.55000	3.30000e+01	
					         2.55167	3.30000e+01	
					         2.55333	3.30000e+01	
					         2.55500	3.20000e+01	
					         2.55667	3.20000e+01	
					         2.55833	3.10000e+01	
					         2.56000	3.10000e+01	
					         2.56167	3.00000e+01	
					         2.56333	3.00000e+01	
					         2.56500	3.00000e+01	
					         2.56667	2.90000e+01	
					         2.56833	2.90000e+01	
					         2.57000	2.80000e+01	
					         2.57167	2.80000e+01	
					         2.57333	2.80000e+01	
					         2.57500	2.70000e+01	
					         2.57667	2.70000e+01	
					         2.57833	2.70000e+01	
					         2.58000	2.60000e+01	
					         2.58167	2.60000e+01	
					         2.58333	2.60000e+01	
					         2.58500	2.50000e+01	
					         2.58667	2.40000e+01	
					         2.58833	2.40000e+01	
					         2.59000	2.30000e+01	
					         2.59167	2.20000e+01	
					         2.59333	2.10000e+01	
					         2.59500	2.00000e+01	
					         2.59667	1.90000e+01	
					         2.59833	1.80000e+01	
					         2.60000	1.70000e+01	
					         2.60167	1.60000e+01	
					         2.60333	1.50000e+01	
					         2.60500	1.50000e+01	
					         2.60667	1.40000e+01	
					         2.60833	1.30000e+01	
					         2.61000	1.30000e+01	
					         2.61167	1.20000e+01	
					         2.61333	1.20000e+01	
					         2.61500	1.10000e+01	
					         2.61667	1.10000e+01	
					         2.61833	1.00000e+01	
					         2.62000	1.00000e+01	
					         2.62167	9.00000e+00	
					         2.62333	9.00000e+00	
					         2.62500	8.00000e+00	
					         2.62667	7.00000e+00	
					         2.62833	7.00000e+00	
					         2.63000	6.00000e+00	
					         2.63167	5.00000e+00	
					         2.63333	5.00000e+00	
					         2.63500	4.00000e+00	
					         2.63667	3.00000e+00	
					         2.63833	3.00000e+00	
					         2.64000	2.00000e+00	
					         2.64167	2.00000e+00	
					         2.64333	1.00000e+00	
					         2.64500	1.00000e+00	
					         2.64667	1.00000e+00	
					         2.64833	1.00000e+00	
					         2.65000	1.00000e+00	
					         2.65167	1.00000e+00	
					         2.65333	1.00000e+00	
					         2.65500	1.00000e+00	
					         2.65667	1.00000e+00	
					         2.65833	1.00000e+00	
					         2.66000	1.00000e+00	
					         2.66167	1.00000e+00	
					         2.66333	0.00000e+00	
					         2.66500	0.00000e+00	
					         2.66667	0.00000e+00	
					         2.66833	0.00000e+00	
					         2.67000	0.00000e+00	
					         2.67167	-1.00000e+00	
					         2.67333	-1.00000e+00	
					         2.67500	-1.00000e+00	
					         2.67667	-2.00000e+00	
					         2.67833	-2.00000e+00	
					         2.68000	-2.00000e+00	
					         2.68167	-2.00000e+00	
					         2.68333	-3.00000e+00	
					         2.68500	-3.00000e+00	
					         2.68667	-3.00000e+00	
					         2.68833	-3.00000e+00	
					         2.69000	-4.00000e+00	
					         2.69167	-4.00000e+00	
					         2.69333	-3.00000e+00	
					         2.69500	-3.00000e+00	
					         2.69667	-3.00000e+00	
					         2.69833	-3.00000e+00	
					         2.70000	-2.00000e+00	
					         2.70167	-2.00000e+00	
					         2.70333	-2.00000e+00	
					         2.70500	-1.00000e+00	
					         2.70667	-1.00000e+00	
					         2.70833	-1.00000e+00	
					         2.71000	-1.00000e+00	
					         2.71167	0.00000e+00	
					         2.71333	0.00000e+00	
					         2.71500	0.00000e+00	
					         2.71667	0.00000e+00	
					         2.71833	0.00000e+00	
					         2.72000	1.00000e+00	
					         2.72167	1.00000e+00	
					         2.72333	1.00000e+00	
					         2.72500	2.00000e+00	
					         2.72667	2.00000e+00	
					         2.72833	2.00000e+00	
					         2.73000	3.00000e+00	
					         2.73167	3.00000e+00	
					         2.73333	3.00000e+00	
					         2.73500	4.00000e+00	
					         2.73667	4.00000e+00	
					         2.73833	4.00000e+00	
					         2.74000	4.00000e+00	
					         2.74167	4.00000e+00	
					         2.74333	4.00000e+00	
					         2.74500	4.00000e+00	
					         2.74667	4.00000e+00	
					         2.74833	4.00000e+00	
					         2.75000	4.00000e+00	
					         2.75167	4.00000e+00	
					         2.75333	3.00000e+00	
					         2.75500	3.00000e+00	
					         2.75667	3.00000e+00	
					         2.75833	3.00000e+00	
					         2.76000	3.00000e+00	
					         2.76167	3.00000e+00	
					         2.76333	3.00000e+00	
					         2.76500	3.00000e+00	
					         2.76667	3.00000e+00	
					         2.76833	3.00000e+00	
					         2.77000	4.00000e+00	
					         2.77167	4.00000e+00	
					         2.77333	4.00000e+00	
					         2.77500	4.00000e+00	
					         2.77667	4.00000e+00	
					         2.77833	4.00000e+00	
					         2.78000	4.00000e+00	
					         2.78167	4.00000e+00	
					         2.78333	4.00000e+00	
					         2.78500	4.00000e+00	
					         2.78667	4.00000e+00	
					         2.78833	4.00000e+00	
					         2.79000	4.00000e+00	
					         2.79167	3.00000e+00	
					         2.79333	3.00000e+00	
					         2.79500	3.00000e+00	
					         2.79667	3.00000e+00	
					         2.79833	3.00000e+00	
					         2.80000	3.00000e+00	
					         2.80167	3.00000e+00	
					         2.80333	2.00000e+00	
					         2.80500	2.00000e+00	
					         2.80667	2.00000e+00	
					         2.80833	3.00000e+00	
					         2.81000	3.00000e+00	
					         2.81167	3.00000e+00	
					         2.81333	3.00000e+00	
					         2.81500	3.00000e+00	
					         2.81667	3.00000e+00	
					         2.81833	4.00000e+00	
					         2.82000	4.00000e+00	
					         2.82167	4.00000e+00	
					         2.82333	4.00000e+00	
					         2.82500	4.00000e+00	
					         2.82667	4.00000e+00	
					         2.82833	4.00000e+00	
					         2.83000	4.00000e+00	
					         2.83167	4.00000e+00	
					         2.83333	4.00000e+00	
					         2.83500	4.00000e+00	
					         2.83667	4.00000e+00	
					         2.83833	3.00000e+00	
					         2.84000	3.00000e+00	
					         2.84167	3.00000e+00	
					         2.84333	3.00000e+00	
					         2.84500	3.00000e+00	
					         2.84667	3.00000e+00	
					         2.84833	3.00000e+00	
					         2.85000	4.00000e+00	
					         2.85167	4.00000e+00	
					         2.85333	4.00000e+00	
					         2.85500	4.00000e+00	
					         2.85667	5.00000e+00	
					         2.85833	5.00000e+00	
					         2.86000	5.00000e+00	
					         2.86167	5.00000e+00	
					         2.86333	5.00000e+00	
					         2.86500	5.00000e+00	
					         2.86667	6.00000e+00	
					         2.86833	6.00000e+00	
					         2.87000	6.00000e+00	
					         2.87167	6.00000e+00	
					         2.87333	6.00000e+00	
					         2.87500	5.00000e+00	
					         2.87667	5.00000e+00	
					         2.87833	5.00000e+00	
					         2.88000	5.00000e+00	
					         2.88167	5.00000e+00	
					         2.88333	5.00000e+00	
					         2.88500	5.00000e+00	
					         2.88667	5.00000e+00	
					         2.88833	5.00000e+00	
					         2.89000	4.00000e+00	
					         2.89167	4.00000e+00	
					         2.89333	4.00000e+00	
					         2.89500	4.00000e+00	
					         2.89667	4.00000e+00	
					         2.89833	4.00000e+00	
					         2.90000	4.00000e+00	
					         2.90167	4.00000e+00	
					         2.90333	4.00000e+00	
					         2.90500	4.00000e+00	
					         2.90667	4.00000e+00	
					         2.90833	4.00000e+00	
					         2.91000	3.00000e+00	
					         2.91167	3.00000e+00	
					         2.91333	3.00000e+00	
					         2.91500	3.00000e+00	
					         2.91667	2.00000e+00	
					         2.91833	2.00000e+00	
					         2.92000	2.00000e+00	
					         2.92167	2.00000e+00	
					         2.92333	2.00000e+00	
					         2.92500	2.00000e+00	
					         2.92667	1.00000e+00	
					         2.92833	1.00000e+00	
					         2.93000	1.00000e+00	
					         2.93167	1.00000e+00	
					         2.93333	1.00000e+00	
					         2.93500	1.00000e+00	
					         2.93667	1.00000e+00	
					         2.93833	1.00000e+00	
					         2.94000	1.00000e+00	
					         2.94167	1.00000e+00	
					         2.94333	1.00000e+00	
					         2.94500	1.00000e+00	
					         2.94667	1.00000e+00	
					         2.94833	1.00000e+00	
					         2.95000	1.00000e+00	
					         2.95167	1.00000e+00	
					         2.95333	1.00000e+00	
					         2.95500	1.00000e+00	
					         2.95667	1.00000e+00	
					         2.95833	1.00000e+00	
					         2.96000	1.00000e+00	
					         2.96167	1.00000e+00	
					         2.96333	1.00000e+00	
					         2.96500	1.00000e+00	
					         2.96667	1.00000e+00	
					         2.96833	1.00000e+00	
					         2.97000	1.00000e+00	
					         2.97167	1.00000e+00	
					         2.97333	1.00000e+00	
					         2.97500	1.00000e+00	
					         2.97667	1.00000e+00	
					         2.97833	0.00000e+00	
					         2.98000	0.00000e+00	
					         2.98167	0.00000e+00	
					         2.98333	0.00000e+00	
					         2.98500	0.00000e+00	
					         2.98667	0.00000e+00	
					         2.98833	0.00000e+00	
					         2.99000	0.00000e+00	
					         2.99167	0.00000e+00	
					         2.99333	1.00000e+00	
					         2.99500	1.00000e+00	
					         2.99667	1.00000e+00	
					         2.99833	1.00000e+00	
					         3.00000	1.00000e+00	
					         3.00167	1.00000e+00	
					         3.00333	1.00000e+00	
					         3.00500	1.00000e+00	
					         3.00667	1.00000e+00	
					         3.00833	1.00000e+00	
					         3.01000	1.00000e+00	
					         3.01167	1.00000e+00	
					         3.01333	1.00000e+00	
					         3.01500	1.00000e+00	
					         3.01667	1.00000e+00	
					         3.01833	1.00000e+00	
					         3.02000	1.00000e+00	
					         3.02167	1.00000e+00	
					         3.02333	1.00000e+00	
					         3.02500	1.00000e+00	
					         3.02667	1.00000e+00	
					         3.02833	1.00000e+00	
					         3.03000	1.00000e+00	
					         3.03167	1.00000e+00	
					         3.03333	1.00000e+00	
					         3.03500	1.00000e+00	
					         3.03667	1.00000e+00	
					         3.03833	0.00000e+00	
					         3.04000	0.00000e+00	
					         3.04167	0.00000e+00	
					         3.04333	0.00000e+00	
					         3.04500	0.00000e+00	
					         3.04667	0.00000e+00	
					         3.04833	0.00000e+00	
					         3.05000	0.00000e+00	
					         3.05167	0.00000e+00	
					         3.05333	0.00000e+00	
					         3.05500	0.00000e+00	
					         3.05667	-1.00000e+00	
					         3.05833	-1.00000e+00	
					         3.06000	-1.00000e+00	
					         3.06167	-1.00000e+00	
					         3.06333	-1.00000e+00	
					         3.06500	-1.00000e+00	
					         3.06667	0.00000e+00	
					         3.06833	0.00000e+00	
					         3.07000	0.00000e+00	
					         3.07167	0.00000e+00	
					         3.07333	0.00000e+00	
					         3.07500	0.00000e+00	
					         3.07667	0.00000e+00	
					         3.07833	0.00000e+00	
					         3.08000	0.00000e+00	
					         3.08167	0.00000e+00	
					         3.08333	0.00000e+00	
					         3.08500	0.00000e+00	
					         3.08667	0.00000e+00	
					         3.08833	-1.00000e+00	
					         3.09000	-1.00000e+00	
					         3.09167	-1.00000e+00	
					         3.09333	-2.00000e+00	
					         3.09500	-3.00000e+00	
					         3.09667	-4.00000e+00	
					         3.09833	-5.00000e+00	
					         3.10000	-7.00000e+00	
					         3.10167	-8.00000e+00	
					         3.10333	-1.00000e+01	
					         3.10500	-1.20000e+01	
					         3.10667	-1.40000e+01	
					         3.10833	-1.70000e+01	
					         3.11000	-1.90000e+01	
					         3.11167	-2.10000e+01	
					         3.11333	-2.40000e+01	
					         3.11500	-2.60000e+01	
					         3.11667	-2.80000e+01	
					         3.11833	-3.00000e+01	
					         3.12000	-3.20000e+01	
					         3.12167	-3.30000e+01	
					         3.12333	-3.50000e+01	
					         3.12500	-3.60000e+01	
					         3.12667	-3.70000e+01	
					         3.12833	-3.80000e+01	
					         3.13000	-3.90000e+01	
					         3.13167	-4.00000e+01	
					         3.13333	-4.10000e+01	
					         3.13500	-4.20000e+01	
					         3.13667	-4.20000e+01	
					         3.13833	-4.20000e+01	
					         3.14000	-4.20000e+01	
					         3.14167	-4.20000e+01	
					         3.14333	-4.20000e+01	
					         3.14500	-4.20000e+01	
					         3.14667	-4.10000e+01	
					         3.14833	-4.10000e+01	
					         3.15000	-4.00000e+01	
					         3.15167	-3.90000e+01	
					         3.15333	-3.80000e+01	
					         3.15500	-3.60000e+01	
					         3.15667	-3.40000e+01	
					         3.15833	-3.20000e+01	
					         3.16000	-3.00000e+01	
					         3.16167	-2.80000e+01	
					         3.16333	-2.50000e+01	
					         3.16500	-2.20000e+01	
					         3.16667	-1.90000e+01	
					         3.16833	-1.60000e+01	
					         3.17000	-1.30000e+01	
					         3.17167	-9.00000e+00	
					         3.17333	-6.00000e+00	
					         3.17500	-3.00000e+00	
					         3.17667	0.00000e+00	
					         3.17833	3.00000e+00	
					         3.18000	6.00000e+00	
					         3.18167	8.00000e+00	
					         3.18333	1.00000e+01	
					         3.18500	1.20000e+01	
					         3.18667	1.40000e+01	
					         3.18833	1.60000e+01	
					         3.19000	1.80000e+01	
					         3.19167	1.90000e+01	
					         3.19333	2.00000e+01	
					         3.19500	2.20000e+01	
					         3.19667	2.30000e+01	
					         3.19833	2.40000e+01	
					         3.20000	2.50000e+01	
					         3.20167	2.60000e+01	
					         3.20333	2.70000e+01	
					         3.20500	2.80000e+01	
					         3.20667	2.90000e+01	
					         3.20833	3.00000e+01	
					         3.21000	3.10000e+01	
					         3.21167	3.10000e+01	
					         3.21333	3.20000e+01	
					         3.21500	3.20000e+01	
					         3.21667	3.20000e+01	
					         3.21833	3.20000e+01	
					         3.22000	3.20000e+01	
					         3.22167	3.20000e+01	
					         3.22333	3.20000e+01	
					         3.22500	3.10000e+01	
					         3.22667	3.10000e+01	
					         3.22833	3.00000e+01	
					         3.23000	3.00000e+01	
					         3.23167	2.90000e+01	
					         3.23333	2.80000e+01	
					         3.23500	2.80000e+01	
					         3.23667	2.70000e+01	
					         3.23833	2.60000e+01	
					         3.24000	2.50000e+01	
					         3.24167	2.40000e+01	
					         3.24333	2.30000e+01	
					         3.24500	2.10000e+01	
					         3.24667	1.90000e+01	
					         3.24833	1.60000e+01	
					         3.25000	1.30000e+01	
					         3.25167	9.00000e+00	
					         3.25333	4.00000e+00	
					         3.25500	-2.00000e+00	
					         3.25667	-7.00000e+00	
					         3.25833	-1.30000e+01	
					         3.26000	-1.90000e+01	
					         3.26167	-2.40000e+01	
					         3.26333	-3.00000e+01	
					         3.26500	-3.40000e+01	
					         3.26667	-3.90000e+01	
					         3.26833	-4.30000e+01	
					         3.27000	-4.70000e+01	
					         3.27167	-5.00000e+01	
					         3.27333	-5.30000e+01	
					         3.27500	-5.50000e+01	
					         3.27667	-5.60000e+01	
					         3.27833	-5.40000e+01	
					         3.28000	-5.00000e+01	
					         3.28167	-4.30000e+01	
					         3.28333	-3.30000e+01	
					         3.28500	-2.00000e+01	
					         3.28667	-4.00000e+00	
					         3.28833	1.50000e+01	
					         3.29000	3.70000e+01	
					         3.29167	6.10000e+01	
					         3.29333	8.60000e+01	
					         3.29500	1.12000e+02	
					         3.29667	1.36000e+02	
					         3.29833	1.58000e+02	
					         3.30000	1.75000e+02	
					         3.30167	1.89000e+02	
					         3.30333	1.98000e+02	
					         3.30500	2.02000e+02	
					         3.30667	2.01000e+02	
					         3.30833	1.96000e+02	
					         3.31000	1.86000e+02	
					         3.31167	1.73000e+02	
					         3.31333	1.58000e+02	
					         3.31500	1.40000e+02	
					         3.31667	1.21000e+02	
					         3.31833	1.03000e+02	
					         3.32000	8.40000e+01	
					         3.32167	6.70000e+01	
					         3.32333	5.00000e+01	
					         3.32500	3.60000e+01	
					         3.32667	2.30000e+01	
					         3.32833	1.10000e+01	
					         3.33000	2.00000e+00	
					         3.33167	-6.00000e+00	
					         3.33333	-1.30000e+01	
					         3.33500	-1.80000e+01	
					         3.33667	-2.20000e+01	
					         3.33833	-2.50000e+01	
					         3.34000	-2.70000e+01	
					         3.34167	-2.80000e+01	
					         3.34333	-2.90000e+01	
					         3.34500	-3.00000e+01	
					         3.34667	-3.00000e+01	
					         3.34833	-3.00000e+01	
