Grayscale intensity, in dB

Time (s) :	Trace 1 : 	Trace 2 : 	Trace 3 : 		Ecg : 		
0.00163   	-2.90963e+01	-4.34554e+01	-4.02234e+01		         0.00000	1.30000e+01	
0.02050   	-2.96968e+01	-4.40477e+01	-4.13661e+01		         0.00167	2.40000e+01	
0.03936   	-2.91305e+01	-4.32258e+01	-4.07715e+01		         0.00333	3.60000e+01	
0.05823   	-2.98781e+01	-4.47732e+01	-4.08781e+01		         0.00500	5.00000e+01	
0.07710   	-2.80366e+01	-4.48888e+01	-4.07308e+01		         0.00667	6.60000e+01	
0.09597   	-2.94560e+01	-4.38218e+01	-3.87876e+01		         0.00833	8.40000e+01	
0.11483   	-3.09831e+01	-4.41567e+01	-3.65824e+01		         0.01000	1.05000e+02	
0.13370   	-3.05425e+01	-4.26197e+01	-3.55272e+01		         0.01167	1.27000e+02	
0.15257   	-3.02315e+01	-3.93664e+01	-3.52827e+01		         0.01333	1.51000e+02	
0.17143   	-3.09732e+01	-3.29329e+01	-3.56718e+01		         0.01500	1.76000e+02	
0.19064   	-3.12438e+01	-3.37224e+01	-3.40474e+01		         0.01667	2.01000e+02	
0.20916   	-3.19407e+01	-3.38630e+01	-3.28841e+01		         0.01833	2.26000e+02	
0.22803   	-3.19780e+01	-3.28678e+01	-3.27619e+01		         0.02000	2.51000e+02	
0.24690   	-3.26526e+01	-3.38328e+01	-3.32071e+01		         0.02167	2.73000e+02	
0.26577   	-3.29772e+01	-3.49377e+01	-3.53275e+01		         0.02333	2.91000e+02	
0.28463   	-3.36586e+01	-4.03941e+01	-3.69096e+01		         0.02500	3.03000e+02	
0.30350   	-3.43742e+01	-4.55941e+01	-3.60796e+01		         0.02667	3.10000e+02	
0.32236   	-3.49705e+01	-4.74854e+01	-3.61580e+01		         0.02833	3.09000e+02	
0.34123   	-3.64608e+01	-4.79519e+01	-3.55635e+01		         0.03000	2.99000e+02	
0.36010   	-3.71462e+01	-5.05599e+01	-3.73890e+01		         0.03167	2.81000e+02	
0.37897   	-3.78693e+01	-5.08485e+01	-3.67662e+01		         0.03333	2.54000e+02	
0.39783   	-3.87585e+01	-5.11875e+01	-3.54698e+01		         0.03500	2.18000e+02	
0.41670   	-3.94946e+01	-5.17911e+01	-3.68182e+01		         0.03667	1.75000e+02	
0.43556   	-3.94304e+01	-5.06342e+01	-3.58301e+01		         0.03833	1.24000e+02	
0.45443   	-3.82065e+01	-5.03608e+01	-3.47934e+01		         0.04000	6.90000e+01	
0.47330   	-3.64071e+01	-5.01857e+01	-3.53377e+01		         0.04167	9.00000e+00	
0.49217   	-3.46536e+01	-5.07831e+01	-3.51254e+01		         0.04333	-5.20000e+01	
0.51103   	-3.34989e+01	-4.95755e+01	-3.57885e+01		         0.04500	-1.12000e+02	
0.52990   	-3.32189e+01	-4.80149e+01	-3.69147e+01		         0.04667	-1.70000e+02	
0.54877   	-3.30391e+01	-4.78135e+01	-3.77308e+01		         0.04833	-2.24000e+02	
0.56763   	-3.36174e+01	-4.54939e+01	-3.71375e+01		         0.05000	-2.73000e+02	
0.58650   	-3.51300e+01	-4.51069e+01	-3.86494e+01		         0.05167	-3.16000e+02	
0.60568   	-3.54053e+01	-4.20801e+01	-3.55038e+01		         0.05333	-3.52000e+02	
0.62423   	-3.40607e+01	-4.11561e+01	-3.73810e+01		         0.05500	-3.81000e+02	
0.64310   	-3.27222e+01	-4.08304e+01	-3.69366e+01		         0.05667	-4.03000e+02	
0.66197   	-3.12508e+01	-3.85075e+01	-3.74911e+01		         0.05833	-4.18000e+02	
0.68083   	-2.92502e+01	-3.78432e+01	-3.77313e+01		         0.06000	-4.26000e+02	
0.69970   	-2.77736e+01	-3.67860e+01	-3.84746e+01		         0.06167	-4.29000e+02	
0.71856   	-2.74505e+01	-3.65136e+01	-3.83960e+01		         0.06333	-4.27000e+02	
0.73743   	-2.69047e+01	-3.59998e+01	-3.91022e+01		         0.06500	-4.21000e+02	
0.75630   	-2.66785e+01	-3.55729e+01	-3.87312e+01		         0.06667	-4.10000e+02	
0.77517   	-2.70166e+01	-3.56244e+01	-4.03696e+01		         0.06833	-3.97000e+02	
0.79403   	-2.74245e+01	-3.53376e+01	-3.94917e+01		         0.07000	-3.80000e+02	
0.81290   	-2.77112e+01	-3.51047e+01	-3.96605e+01		         0.07167	-3.62000e+02	
0.83177   	-2.79119e+01	-3.47681e+01	-3.86670e+01		         0.07333	-3.41000e+02	
0.85063   	-2.81482e+01	-3.47013e+01	-3.86125e+01		         0.07500	-3.20000e+02	
0.86950   	-2.82127e+01	-3.46082e+01	-3.79314e+01		         0.07667	-2.97000e+02	
0.88837   	-2.83582e+01	-3.45531e+01	-3.80288e+01		         0.07833	-2.74000e+02	
0.90723   	-2.84870e+01	-3.44308e+01	-3.81723e+01		         0.08000	-2.50000e+02	
0.92610   	-2.84928e+01	-3.43970e+01	-3.79747e+01		         0.08167	-2.25000e+02	
0.94497   	-2.85267e+01	-3.40848e+01	-3.79128e+01		         0.08333	-2.00000e+02	
0.96383   	-2.84843e+01	-3.39862e+01	-3.79288e+01		         0.08500	-1.76000e+02	
0.98270   	-2.85140e+01	-3.38474e+01	-3.81481e+01		         0.08667	-1.51000e+02	
1.00157   	-2.85889e+01	-3.37426e+01	-3.81968e+01		         0.08833	-1.27000e+02	
1.02062   	-2.85960e+01	-3.37540e+01	-3.80786e+01		         0.09000	-1.03000e+02	
1.03930   	-2.85839e+01	-3.36528e+01	-3.80550e+01		         0.09167	-8.00000e+01	
1.05817   	-2.86514e+01	-3.36883e+01	-3.81952e+01		         0.09333	-5.80000e+01	
1.07704   	-2.87894e+01	-3.39040e+01	-3.82337e+01		         0.09500	-3.80000e+01	
1.09590   	-2.88599e+01	-3.49680e+01	-3.79505e+01		         0.09667	-1.80000e+01	
1.11477   	-2.93477e+01	-3.51726e+01	-3.78733e+01		         0.09833	0.00000e+00	
1.13363   	-2.86924e+01	-4.14415e+01	-3.87020e+01		         0.10000	1.60000e+01	
1.15250   	-3.01344e+01	-4.31558e+01	-3.93524e+01		         0.10167	3.10000e+01	
1.17137   	-2.81046e+01	-4.33539e+01	-4.01887e+01		         0.10333	4.30000e+01	
1.19024   	-2.93910e+01	-4.40713e+01	-4.19448e+01		         0.10500	5.40000e+01	
1.20910   	-2.96196e+01	-4.31413e+01	-4.27982e+01		         0.10667	6.30000e+01	
1.22797   	-3.00294e+01	-4.39143e+01	-4.28669e+01		         0.10833	7.00000e+01	
1.24683   	-2.89038e+01	-4.38323e+01	-4.20792e+01		         0.11000	7.60000e+01	
1.26570   	-2.89411e+01	-4.41035e+01	-4.00475e+01		         0.11167	8.00000e+01	
1.28457   	-3.10476e+01	-4.34668e+01	-3.87586e+01		         0.11333	8.30000e+01	
1.30343   	-3.09678e+01	-4.26484e+01	-3.61555e+01		         0.11500	8.50000e+01	
1.32230   	-3.07791e+01	-4.02056e+01	-3.54069e+01		         0.11667	8.60000e+01	
1.34117   	-3.09576e+01	-3.42399e+01	-3.67512e+01		         0.11833	8.60000e+01	
1.36004   	-3.10975e+01	-3.35399e+01	-3.51643e+01		         0.12000	8.60000e+01	
1.37890   	-3.17815e+01	-3.35104e+01	-3.27994e+01		         0.12167	8.50000e+01	
1.39777   	-3.13787e+01	-3.39724e+01	-3.22277e+01		         0.12333	8.40000e+01	
1.41663   	-3.18397e+01	-3.42516e+01	-3.19218e+01		         0.12500	8.30000e+01	
1.43566   	-3.12397e+01	-3.45063e+01	-3.17314e+01		         0.12667	8.10000e+01	
1.45437   	-3.27156e+01	-4.20292e+01	-3.50469e+01		         0.12833	8.00000e+01	
1.47324   	-3.39882e+01	-4.60370e+01	-3.48667e+01		         0.13000	7.90000e+01	
1.49210   	-3.43942e+01	-4.88437e+01	-3.51615e+01		         0.13167	7.80000e+01	
1.51097   	-3.57399e+01	-4.86981e+01	-3.59158e+01		         0.13333	7.70000e+01	
1.52984   	-3.68313e+01	-5.03864e+01	-3.60792e+01		         0.13500	7.60000e+01	
1.54870   	-3.75759e+01	-5.04805e+01	-3.61311e+01		         0.13667	7.50000e+01	
1.56757   	-3.83446e+01	-5.08982e+01	-3.63406e+01		         0.13833	7.50000e+01	
1.58644   	-3.89817e+01	-5.12381e+01	-3.60132e+01		         0.14000	7.40000e+01	
1.60530   	-3.94753e+01	-5.16834e+01	-3.43901e+01		         0.14167	7.40000e+01	
1.62417   	-3.84453e+01	-5.03289e+01	-3.38971e+01		         0.14333	7.40000e+01	
1.64304   	-3.71318e+01	-5.04230e+01	-3.59655e+01		         0.14500	7.30000e+01	
1.66190   	-3.57256e+01	-4.99681e+01	-3.64376e+01		         0.14667	7.20000e+01	
1.68077   	-3.39199e+01	-4.86370e+01	-3.65046e+01		         0.14833	7.10000e+01	
1.69963   	-3.34026e+01	-4.81994e+01	-3.70075e+01		         0.15000	7.00000e+01	
1.71850   	-3.34214e+01	-4.81463e+01	-3.71436e+01		         0.15167	6.80000e+01	
1.73737   	-3.38472e+01	-4.67803e+01	-3.77537e+01		         0.15333	6.70000e+01	
1.75624   	-3.53863e+01	-4.57062e+01	-3.81318e+01		         0.15500	6.50000e+01	
1.77510   	-3.62870e+01	-4.29390e+01	-3.72428e+01		         0.15667	6.40000e+01	
1.79397   	-3.61324e+01	-4.09018e+01	-3.63058e+01		         0.15833	6.30000e+01	
1.81283   	-3.45398e+01	-4.09076e+01	-3.66164e+01		         0.16000	6.20000e+01	
1.83170   	-3.27682e+01	-3.84849e+01	-3.63800e+01		         0.16167	6.00000e+01	
1.85067   	-3.08682e+01	-3.80438e+01	-3.79567e+01		         0.16333	5.90000e+01	
1.86943   	-2.90586e+01	-3.71897e+01	-3.74700e+01		         0.16500	5.80000e+01	
1.88830   	-2.82834e+01	-3.64919e+01	-3.81211e+01		         0.16667	5.80000e+01	
1.90717   	-2.77007e+01	-3.60732e+01	-3.84237e+01		         0.16833	5.70000e+01	
1.92604   	-2.72574e+01	-3.55316e+01	-3.84943e+01		         0.17000	5.60000e+01	
1.94490   	-2.72474e+01	-3.52773e+01	-3.96150e+01		         0.17167	5.50000e+01	
1.96377   	-2.75525e+01	-3.50596e+01	-3.89175e+01		         0.17333	5.50000e+01	
1.98263   	-2.78745e+01	-3.46486e+01	-3.89359e+01		         0.17500	5.40000e+01	
2.00150   	-2.80929e+01	-3.42368e+01	-3.87806e+01		         0.17667	5.30000e+01	
2.02037   	-2.83286e+01	-3.41150e+01	-3.86189e+01		         0.17833	5.20000e+01	
2.03924   	-2.85649e+01	-3.43105e+01	-3.87344e+01		         0.18000	5.10000e+01	
2.05810   	-2.87094e+01	-3.42687e+01	-3.84938e+01		         0.18167	5.10000e+01	
2.07697   	-2.88394e+01	-3.42239e+01	-3.81469e+01		         0.18333	5.00000e+01	
2.09584   	-2.90048e+01	-3.42740e+01	-3.79015e+01		         0.18500	4.90000e+01	
2.11470   	-2.91088e+01	-3.41992e+01	-3.80606e+01		         0.18667	4.90000e+01	
2.13357   	-2.92005e+01	-3.40974e+01	-3.81398e+01		         0.18833	4.90000e+01	
2.15244   	-2.92482e+01	-3.39008e+01	-3.82143e+01		         0.19000	4.90000e+01	
2.17130   	-2.92047e+01	-3.36673e+01	-3.82177e+01		         0.19167	4.90000e+01	
2.19017   	-2.92267e+01	-3.33998e+01	-3.82806e+01		         0.19333	4.90000e+01	
2.20904   	-2.92531e+01	-3.33867e+01	-3.83668e+01		         0.19500	4.90000e+01	
2.22790   	-2.92154e+01	-3.34966e+01	-3.83821e+01		         0.19667	4.90000e+01	
2.24677   	-2.92464e+01	-3.34742e+01	-3.82893e+01		         0.19833	4.90000e+01	
2.26593   	-2.93315e+01	-3.35684e+01	-3.80927e+01		         0.20000	4.90000e+01	
2.28450   	-2.95124e+01	-3.48670e+01	-3.83930e+01		         0.20167	4.90000e+01	
2.30337   	-3.01095e+01	-3.51555e+01	-3.81384e+01		         0.20333	4.90000e+01	
2.32224   	-2.98824e+01	-4.24153e+01	-3.83645e+01		         0.20500	4.90000e+01	
2.34110   	-3.04245e+01	-4.22515e+01	-3.97170e+01		         0.20667	4.90000e+01	
2.35997   	-2.92457e+01	-4.27501e+01	-4.02654e+01		         0.20833	4.90000e+01	
2.37884   	-2.96416e+01	-4.31652e+01	-4.17706e+01		         0.21000	4.90000e+01	
2.39770   	-2.96118e+01	-4.23716e+01	-4.35196e+01		         0.21167	4.90000e+01	
2.41657   	-3.00116e+01	-4.31753e+01	-4.31230e+01		         0.21333	5.00000e+01	
2.43544   	-2.77898e+01	-4.37378e+01	-4.27625e+01		         0.21500	5.00000e+01	
2.45431   	-2.89156e+01	-4.33740e+01	-4.03973e+01		         0.21667	5.00000e+01	
2.47317   	-3.06619e+01	-4.30857e+01	-3.77583e+01		         0.21833	5.00000e+01	
2.49204   	-3.00099e+01	-4.19206e+01	-3.70071e+01		         0.22000	5.00000e+01	
2.51090   	-3.03312e+01	-3.95871e+01	-3.60539e+01		         0.22167	5.00000e+01	
2.52977   	-3.09902e+01	-3.30287e+01	-3.69934e+01		         0.22333	4.90000e+01	
2.54899   	-3.09936e+01	-3.34964e+01	-3.55474e+01		         0.22500	4.90000e+01	
2.56751   	-3.15218e+01	-3.33423e+01	-3.29115e+01		         0.22667	4.80000e+01	
2.58637   	-3.08659e+01	-3.39702e+01	-3.29082e+01		         0.22833	4.80000e+01	
2.60524   	-3.18188e+01	-3.43441e+01	-3.36473e+01		         0.23000	4.70000e+01	
2.62410   	-3.09068e+01	-3.48278e+01	-3.26321e+01		         0.23167	4.60000e+01	
2.64297   	-3.29437e+01	-4.19566e+01	-3.36584e+01		         0.23333	4.50000e+01	
2.66184   	-3.42912e+01	-4.55364e+01	-3.40012e+01		         0.23500	4.40000e+01	
2.68093   	-3.47207e+01	-4.86392e+01	-3.51939e+01		         0.23667	4.40000e+01	
2.69957   	-3.64338e+01	-4.85641e+01	-3.55105e+01		         0.23833	4.40000e+01	
2.71844   	-3.73384e+01	-5.01689e+01	-3.56699e+01		         0.24000	4.40000e+01	
2.73730   	-3.79716e+01	-5.06590e+01	-3.48557e+01		         0.24167	4.40000e+01	
2.75617   	-3.86702e+01	-5.07837e+01	-3.51999e+01		         0.24333	4.50000e+01	
2.77504   	-3.91571e+01	-5.15483e+01	-3.52499e+01		         0.24500	4.60000e+01	
2.79390   	-3.92636e+01	-5.11849e+01	-3.41355e+01		         0.24667	4.80000e+01	
2.81277   	-3.84177e+01	-5.04398e+01	-3.33899e+01		         0.24833	5.00000e+01	
2.83164   	-3.71609e+01	-5.08084e+01	-3.56515e+01		         0.25000	5.10000e+01	
2.85050   	-3.57510e+01	-5.05101e+01	-3.67559e+01		         0.25167	5.30000e+01	
2.86937   	-3.39568e+01	-4.87860e+01	-3.64761e+01		         0.25333	5.50000e+01	
2.88824   	-3.34855e+01	-4.82680e+01	-3.65487e+01		         0.25500	5.70000e+01	
2.90710   	-3.36009e+01	-4.72734e+01	-3.67536e+01		         0.25667	5.90000e+01	
2.92598   	-3.40784e+01	-4.68627e+01	-3.69230e+01		         0.25833	6.10000e+01	
2.94484   	-3.56224e+01	-4.53554e+01	-3.79787e+01		         0.26000	6.20000e+01	
2.96370   	-3.62220e+01	-4.24382e+01	-3.54141e+01		         0.26167	6.40000e+01	
2.98257   	-3.58226e+01	-4.09325e+01	-3.69621e+01		         0.26333	6.50000e+01	
3.00144   	-3.41844e+01	-4.01210e+01	-3.69116e+01		         0.26500	6.60000e+01	
3.02031   	-3.24956e+01	-3.79687e+01	-3.72596e+01		         0.26667	6.80000e+01	
3.03917   	-3.03977e+01	-3.84958e+01	-3.80028e+01		         0.26833	6.90000e+01	
3.05804   	-2.84822e+01	-3.67107e+01	-3.87495e+01		         0.27000	7.00000e+01	
3.07690   	-2.78472e+01	-3.64813e+01	-3.86740e+01		         0.27167	7.20000e+01	
3.09594   	-2.75634e+01	-3.59456e+01	-3.84825e+01		         0.27333	7.30000e+01	
3.11465   	-2.71717e+01	-3.54094e+01	-3.95909e+01		         0.27500	7.50000e+01	
3.13351   	-2.72001e+01	-3.49472e+01	-3.97185e+01		         0.27667	7.70000e+01	
3.15237   	-2.75859e+01	-3.47684e+01	-3.88070e+01		         0.27833	7.90000e+01	
3.17124   	-2.79497e+01	-3.42017e+01	-3.88472e+01		         0.28000	8.10000e+01	
3.19011   	-2.81369e+01	-3.38140e+01	-3.96295e+01		         0.28167	8.40000e+01	
3.20897   	-2.83408e+01	-3.36944e+01	-3.88232e+01		         0.28333	8.60000e+01	
3.22784   	-2.85696e+01	-3.37474e+01	-3.92334e+01		         0.28500	8.80000e+01	
3.24671   	-2.87320e+01	-3.37796e+01	-3.90937e+01		         0.28667	9.00000e+01	
3.26557   	-2.89096e+01	-3.38814e+01	-3.85426e+01		         0.28833	9.20000e+01	
3.28444   	-2.91104e+01	-3.38282e+01	-3.87665e+01		         0.29000	9.30000e+01	
3.30331   	-2.91469e+01	-3.38619e+01	-3.89509e+01		         0.29167	9.50000e+01	
3.32217   	-2.92190e+01	-3.36768e+01	-3.87717e+01		         0.29333	9.50000e+01	
3.34104   	-2.92294e+01	-3.35583e+01	-3.86875e+01		         0.29500	9.60000e+01	
3.35990   	-2.92091e+01	-3.33311e+01	-3.87147e+01		         0.29667	9.60000e+01	
3.37877   	-2.92677e+01	-3.30930e+01	-3.89254e+01		         0.29833	9.60000e+01	
3.39764   	-2.93511e+01	-3.31361e+01	-3.89619e+01		         0.30000	9.50000e+01	
3.41651   	-2.94003e+01	-3.33483e+01	-3.87258e+01		         0.30167	9.40000e+01	
3.43537   	-2.94740e+01	-3.33016e+01	-3.85561e+01		         0.30333	9.30000e+01	
3.45424   	-2.95460e+01	-3.31895e+01	-3.84665e+01		         0.30500	9.20000e+01	
3.47311   	-2.95512e+01	-3.35490e+01	-3.84189e+01		         0.30667	9.10000e+01	
3.49197   	-2.97675e+01	-3.50310e+01	-3.82868e+01		         0.30833	9.10000e+01	
3.51102   	-3.03121e+01	-3.53298e+01	-3.80075e+01		         0.31000	9.00000e+01	
3.52970   	-2.95884e+01	-4.23971e+01	-3.88015e+01		         0.31167	9.00000e+01	
3.54858   	-3.08556e+01	-4.19206e+01	-3.86242e+01		         0.31333	9.00000e+01	
3.56744   	-3.02193e+01	-4.30167e+01	-4.13546e+01		         0.31500	9.00000e+01	
3.58631   	-2.98155e+01	-4.29473e+01	-4.24326e+01		         0.31667	9.00000e+01	
3.60517   	-2.98379e+01	-4.23256e+01	-4.33058e+01		         0.31833	9.00000e+01	
3.62404   	-3.02053e+01	-4.30428e+01	-4.30203e+01		         0.32000	8.90000e+01	
					         0.32167	8.90000e+01	
					         0.32333	8.80000e+01	
					         0.32500	8.70000e+01	
					         0.32667	8.50000e+01	
					         0.32833	8.30000e+01	
					         0.33000	8.10000e+01	
					         0.33167	7.80000e+01	
					         0.33333	7.50000e+01	
					         0.33500	7.20000e+01	
					         0.33667	6.80000e+01	
					         0.33833	6.50000e+01	
					         0.34000	6.10000e+01	
					         0.34167	5.70000e+01	
					         0.34333	5.30000e+01	
					         0.34500	4.90000e+01	
					         0.34667	4.50000e+01	
					         0.34833	4.10000e+01	
					         0.35000	3.70000e+01	
					         0.35167	3.30000e+01	
					         0.35333	2.90000e+01	
					         0.35500	2.50000e+01	
					         0.35667	2.10000e+01	
					         0.35833	1.70000e+01	
					         0.36000	1.30000e+01	
					         0.36167	9.00000e+00	
					         0.36333	5.00000e+00	
					         0.36500	1.00000e+00	
					         0.36667	-3.00000e+00	
					         0.36833	-7.00000e+00	
					         0.37000	-1.10000e+01	
					         0.37167	-1.40000e+01	
					         0.37333	-1.80000e+01	
					         0.37500	-2.20000e+01	
					         0.37667	-2.60000e+01	
					         0.37833	-2.90000e+01	
					         0.38000	-3.30000e+01	
					         0.38167	-3.70000e+01	
					         0.38333	-4.10000e+01	
					         0.38500	-4.40000e+01	
					         0.38667	-4.80000e+01	
					         0.38833	-5.10000e+01	
					         0.39000	-5.40000e+01	
					         0.39167	-5.70000e+01	
					         0.39333	-5.90000e+01	
					         0.39500	-6.20000e+01	
					         0.39667	-6.40000e+01	
					         0.39833	-6.50000e+01	
					         0.40000	-6.70000e+01	
					         0.40167	-6.80000e+01	
					         0.40333	-6.90000e+01	
					         0.40500	-6.90000e+01	
					         0.40667	-7.00000e+01	
					         0.40833	-7.00000e+01	
					         0.41000	-7.00000e+01	
					         0.41167	-7.00000e+01	
					         0.41333	-7.00000e+01	
					         0.41500	-7.10000e+01	
					         0.41667	-7.10000e+01	
					         0.41833	-7.10000e+01	
					         0.42000	-7.20000e+01	
					         0.42167	-7.20000e+01	
					         0.42333	-7.20000e+01	
					         0.42500	-7.20000e+01	
					         0.42667	-7.20000e+01	
					         0.42833	-7.30000e+01	
					         0.43000	-7.30000e+01	
					         0.43167	-7.30000e+01	
					         0.43333	-7.40000e+01	
					         0.43500	-7.40000e+01	
					         0.43667	-7.40000e+01	
					         0.43833	-7.40000e+01	
					         0.44000	-7.40000e+01	
					         0.44167	-7.40000e+01	
					         0.44333	-7.30000e+01	
					         0.44500	-7.30000e+01	
					         0.44667	-7.20000e+01	
					         0.44833	-7.10000e+01	
					         0.45000	-7.00000e+01	
					         0.45167	-6.80000e+01	
					         0.45333	-6.70000e+01	
					         0.45500	-6.60000e+01	
					         0.45667	-6.50000e+01	
					         0.45833	-6.40000e+01	
					         0.46000	-6.30000e+01	
					         0.46167	-6.20000e+01	
					         0.46333	-6.10000e+01	
					         0.46500	-5.90000e+01	
					         0.46667	-5.80000e+01	
					         0.46833	-5.70000e+01	
					         0.47000	-5.50000e+01	
					         0.47167	-5.30000e+01	
					         0.47333	-5.10000e+01	
					         0.47500	-4.90000e+01	
					         0.47667	-4.70000e+01	
					         0.47833	-4.40000e+01	
					         0.48000	-4.20000e+01	
					         0.48167	-4.00000e+01	
					         0.48333	-3.80000e+01	
					         0.48500	-3.60000e+01	
					         0.48667	-3.50000e+01	
					         0.48833	-3.30000e+01	
					         0.49000	-3.20000e+01	
					         0.49167	-3.00000e+01	
					         0.49333	-2.90000e+01	
					         0.49500	-2.80000e+01	
					         0.49667	-2.60000e+01	
					         0.49833	-2.50000e+01	
					         0.50000	-2.30000e+01	
					         0.50167	-2.10000e+01	
					         0.50333	-2.00000e+01	
					         0.50500	-1.80000e+01	
					         0.50667	-1.70000e+01	
					         0.50833	-1.60000e+01	
					         0.51000	-1.50000e+01	
					         0.51167	-1.40000e+01	
					         0.51333	-1.30000e+01	
					         0.51500	-1.30000e+01	
					         0.51667	-1.20000e+01	
					         0.51833	-1.20000e+01	
					         0.52000	-1.20000e+01	
					         0.52167	-1.20000e+01	
					         0.52333	-1.20000e+01	
					         0.52500	-1.20000e+01	
					         0.52667	-1.20000e+01	
					         0.52833	-1.20000e+01	
					         0.53000	-1.10000e+01	
					         0.53167	-1.00000e+01	
					         0.53333	-9.00000e+00	
					         0.53500	-8.00000e+00	
					         0.53667	-7.00000e+00	
					         0.53833	-6.00000e+00	
					         0.54000	-4.00000e+00	
					         0.54167	-3.00000e+00	
					         0.54333	-1.00000e+00	
					         0.54500	0.00000e+00	
					         0.54667	2.00000e+00	
					         0.54833	3.00000e+00	
					         0.55000	4.00000e+00	
					         0.55167	5.00000e+00	
					         0.55333	6.00000e+00	
					         0.55500	7.00000e+00	
					         0.55667	7.00000e+00	
					         0.55833	7.00000e+00	
					         0.56000	8.00000e+00	
					         0.56167	8.00000e+00	
					         0.56333	8.00000e+00	
					         0.56500	8.00000e+00	
					         0.56667	8.00000e+00	
					         0.56833	8.00000e+00	
					         0.57000	7.00000e+00	
					         0.57167	7.00000e+00	
					         0.57333	6.00000e+00	
					         0.57500	5.00000e+00	
					         0.57667	5.00000e+00	
					         0.57833	4.00000e+00	
					         0.58000	3.00000e+00	
					         0.58167	2.00000e+00	
					         0.58333	1.00000e+00	
					         0.58500	0.00000e+00	
					         0.58667	-1.00000e+00	
					         0.58833	-2.00000e+00	
					         0.59000	-2.00000e+00	
					         0.59167	-3.00000e+00	
					         0.59333	-3.00000e+00	
					         0.59500	-3.00000e+00	
					         0.59667	-3.00000e+00	
					         0.59833	-4.00000e+00	
					         0.60000	-4.00000e+00	
					         0.60167	-5.00000e+00	
					         0.60333	-5.00000e+00	
					         0.60500	-6.00000e+00	
					         0.60667	-7.00000e+00	
					         0.60833	-8.00000e+00	
					         0.61000	-8.00000e+00	
					         0.61167	-9.00000e+00	
					         0.61333	-1.00000e+01	
					         0.61500	-1.00000e+01	
					         0.61667	-1.10000e+01	
					         0.61833	-1.10000e+01	
					         0.62000	-1.10000e+01	
					         0.62167	-1.10000e+01	
					         0.62333	-1.10000e+01	
					         0.62500	-1.10000e+01	
					         0.62667	-1.10000e+01	
					         0.62833	-1.10000e+01	
					         0.63000	-1.10000e+01	
					         0.63167	-1.10000e+01	
					         0.63333	-1.10000e+01	
					         0.63500	-1.10000e+01	
					         0.63667	-1.10000e+01	
					         0.63833	-1.20000e+01	
					         0.64000	-1.20000e+01	
					         0.64167	-1.30000e+01	
					         0.64333	-1.40000e+01	
					         0.64500	-1.50000e+01	
					         0.64667	-1.50000e+01	
					         0.64833	-1.60000e+01	
					         0.65000	-1.70000e+01	
					         0.65167	-1.80000e+01	
					         0.65333	-1.90000e+01	
					         0.65500	-2.00000e+01	
					         0.65667	-2.00000e+01	
					         0.65833	-2.00000e+01	
					         0.66000	-2.00000e+01	
					         0.66167	-1.90000e+01	
					         0.66333	-1.90000e+01	
					         0.66500	-1.80000e+01	
					         0.66667	-1.70000e+01	
					         0.66833	-1.60000e+01	
					         0.67000	-1.60000e+01	
					         0.67167	-1.50000e+01	
					         0.67333	-1.40000e+01	
					         0.67500	-1.30000e+01	
					         0.67667	-1.30000e+01	
					         0.67833	-1.20000e+01	
					         0.68000	-1.20000e+01	
					         0.68167	-1.10000e+01	
					         0.68333	-1.10000e+01	
					         0.68500	-1.10000e+01	
					         0.68667	-1.20000e+01	
					         0.68833	-1.20000e+01	
					         0.69000	-1.20000e+01	
					         0.69167	-1.20000e+01	
					         0.69333	-1.20000e+01	
					         0.69500	-1.30000e+01	
					         0.69667	-1.30000e+01	
					         0.69833	-1.30000e+01	
					         0.70000	-1.30000e+01	
					         0.70167	-1.30000e+01	
					         0.70333	-1.30000e+01	
					         0.70500	-1.20000e+01	
					         0.70667	-1.20000e+01	
					         0.70833	-1.20000e+01	
					         0.71000	-1.20000e+01	
					         0.71167	-1.20000e+01	
					         0.71333	-1.20000e+01	
					         0.71500	-1.30000e+01	
					         0.71667	-1.30000e+01	
					         0.71833	-1.40000e+01	
					         0.72000	-1.40000e+01	
					         0.72167	-1.50000e+01	
					         0.72333	-1.50000e+01	
					         0.72500	-1.60000e+01	
					         0.72667	-1.60000e+01	
					         0.72833	-1.60000e+01	
					         0.73000	-1.60000e+01	
					         0.73167	-1.60000e+01	
					         0.73333	-1.50000e+01	
					         0.73500	-1.50000e+01	
					         0.73667	-1.40000e+01	
					         0.73833	-1.30000e+01	
					         0.74000	-1.30000e+01	
					         0.74167	-1.30000e+01	
					         0.74333	-1.30000e+01	
					         0.74500	-1.30000e+01	
					         0.74667	-1.30000e+01	
					         0.74833	-1.30000e+01	
					         0.75000	-1.30000e+01	
					         0.75167	-1.30000e+01	
					         0.75333	-1.30000e+01	
					         0.75500	-1.30000e+01	
					         0.75667	-1.40000e+01	
					         0.75833	-1.40000e+01	
					         0.76000	-1.40000e+01	
					         0.76167	-1.40000e+01	
					         0.76333	-1.40000e+01	
					         0.76500	-1.40000e+01	
					         0.76667	-1.30000e+01	
					         0.76833	-1.30000e+01	
					         0.77000	-1.20000e+01	
					         0.77167	-1.20000e+01	
					         0.77333	-1.10000e+01	
					         0.77500	-1.00000e+01	
					         0.77667	-1.00000e+01	
					         0.77833	-1.00000e+01	
					         0.78000	-9.00000e+00	
					         0.78167	-9.00000e+00	
					         0.78333	-9.00000e+00	
					         0.78500	-1.00000e+01	
					         0.78667	-1.00000e+01	
					         0.78833	-1.00000e+01	
					         0.79000	-1.00000e+01	
					         0.79167	-1.10000e+01	
					         0.79333	-1.10000e+01	
					         0.79500	-1.10000e+01	
					         0.79667	-1.10000e+01	
					         0.79833	-1.10000e+01	
					         0.80000	-1.10000e+01	
					         0.80167	-1.20000e+01	
					         0.80333	-1.20000e+01	
					         0.80500	-1.20000e+01	
					         0.80667	-1.20000e+01	
					         0.80833	-1.20000e+01	
					         0.81000	-1.20000e+01	
					         0.81167	-1.20000e+01	
					         0.81333	-1.20000e+01	
					         0.81500	-1.20000e+01	
					         0.81667	-1.20000e+01	
					         0.81833	-1.20000e+01	
					         0.82000	-1.10000e+01	
					         0.82167	-1.10000e+01	
					         0.82333	-1.10000e+01	
					         0.82500	-1.00000e+01	
					         0.82667	-1.00000e+01	
					         0.82833	-1.00000e+01	
					         0.83000	-1.00000e+01	
					         0.83167	-1.00000e+01	
					         0.83333	-1.00000e+01	
					         0.83500	-1.00000e+01	
					         0.83667	-1.00000e+01	
					         0.83833	-1.00000e+01	
					         0.84000	-1.10000e+01	
					         0.84167	-1.10000e+01	
					         0.84333	-1.10000e+01	
					         0.84500	-1.10000e+01	
					         0.84667	-1.10000e+01	
					         0.84833	-1.10000e+01	
					         0.85000	-1.10000e+01	
					         0.85167	-1.10000e+01	
					         0.85333	-1.10000e+01	
					         0.85500	-1.10000e+01	
					         0.85667	-1.10000e+01	
					         0.85833	-1.10000e+01	
					         0.86000	-1.10000e+01	
					         0.86167	-1.10000e+01	
					         0.86333	-1.10000e+01	
					         0.86500	-1.10000e+01	
					         0.86667	-1.10000e+01	
					         0.86833	-1.10000e+01	
					         0.87000	-1.10000e+01	
					         0.87167	-1.20000e+01	
					         0.87333	-1.20000e+01	
					         0.87500	-1.20000e+01	
					         0.87667	-1.20000e+01	
					         0.87833	-1.20000e+01	
					         0.88000	-1.20000e+01	
					         0.88167	-1.20000e+01	
					         0.88333	-1.20000e+01	
					         0.88500	-1.10000e+01	
					         0.88667	-1.10000e+01	
					         0.88833	-1.10000e+01	
					         0.89000	-1.00000e+01	
					         0.89167	-1.00000e+01	
					         0.89333	-9.00000e+00	
					         0.89500	-9.00000e+00	
					         0.89667	-9.00000e+00	
					         0.89833	-8.00000e+00	
					         0.90000	-8.00000e+00	
					         0.90167	-8.00000e+00	
					         0.90333	-7.00000e+00	
					         0.90500	-7.00000e+00	
					         0.90667	-6.00000e+00	
					         0.90833	-6.00000e+00	
					         0.91000	-5.00000e+00	
					         0.91167	-5.00000e+00	
					         0.91333	-5.00000e+00	
					         0.91500	-5.00000e+00	
					         0.91667	-5.00000e+00	
					         0.91833	-5.00000e+00	
					         0.92000	-5.00000e+00	
					         0.92167	-5.00000e+00	
					         0.92333	-5.00000e+00	
					         0.92500	-5.00000e+00	
					         0.92667	-5.00000e+00	
					         0.92833	-5.00000e+00	
					         0.93000	-5.00000e+00	
					         0.93167	-5.00000e+00	
					         0.93333	-5.00000e+00	
					         0.93500	-6.00000e+00	
					         0.93667	-6.00000e+00	
					         0.93833	-6.00000e+00	
					         0.94000	-7.00000e+00	
					         0.94167	-7.00000e+00	
					         0.94333	-8.00000e+00	
					         0.94500	-9.00000e+00	
					         0.94667	-1.00000e+01	
					         0.94833	-1.10000e+01	
					         0.95000	-1.10000e+01	
					         0.95167	-1.20000e+01	
					         0.95333	-1.20000e+01	
					         0.95500	-1.30000e+01	
					         0.95667	-1.30000e+01	
					         0.95833	-1.30000e+01	
					         0.96000	-1.40000e+01	
					         0.96167	-1.30000e+01	
					         0.96333	-1.30000e+01	
					         0.96500	-1.20000e+01	
					         0.96667	-1.00000e+01	
					         0.96833	-9.00000e+00	
					         0.97000	-7.00000e+00	
					         0.97167	-6.00000e+00	
					         0.97333	-4.00000e+00	
					         0.97500	-2.00000e+00	
					         0.97667	-1.00000e+00	
					         0.97833	1.00000e+00	
					         0.98000	2.00000e+00	
					         0.98167	4.00000e+00	
					         0.98333	4.00000e+00	
					         0.98500	4.00000e+00	
					         0.98667	4.00000e+00	
					         0.98833	4.00000e+00	
					         0.99000	3.00000e+00	
					         0.99167	3.00000e+00	
					         0.99333	2.00000e+00	
					         0.99500	2.00000e+00	
					         0.99667	1.00000e+00	
					         0.99833	1.00000e+00	
					         1.00000	0.00000e+00	
					         1.00167	0.00000e+00	
					         1.00333	-1.00000e+00	
					         1.00500	-2.00000e+00	
					         1.00667	-3.00000e+00	
					         1.00833	-4.00000e+00	
					         1.01000	-5.00000e+00	
					         1.01167	-6.00000e+00	
					         1.01333	-6.00000e+00	
					         1.01500	-7.00000e+00	
					         1.01667	-7.00000e+00	
					         1.01833	-6.00000e+00	
					         1.02000	-6.00000e+00	
					         1.02167	-4.00000e+00	
					         1.02333	-3.00000e+00	
					         1.02500	-1.00000e+00	
					         1.02667	2.00000e+00	
					         1.02833	4.00000e+00	
					         1.03000	7.00000e+00	
					         1.03167	1.00000e+01	
					         1.03333	1.30000e+01	
					         1.03500	1.60000e+01	
					         1.03667	1.80000e+01	
					         1.03833	2.10000e+01	
					         1.04000	2.30000e+01	
					         1.04167	2.50000e+01	
					         1.04333	2.80000e+01	
					         1.04500	2.90000e+01	
					         1.04667	3.10000e+01	
					         1.04833	3.20000e+01	
					         1.05000	3.20000e+01	
					         1.05167	3.30000e+01	
					         1.05333	3.20000e+01	
					         1.05500	3.20000e+01	
					         1.05667	3.10000e+01	
					         1.05833	3.00000e+01	
					         1.06000	2.80000e+01	
					         1.06167	2.70000e+01	
					         1.06333	2.50000e+01	
					         1.06500	2.40000e+01	
					         1.06667	2.20000e+01	
					         1.06833	2.00000e+01	
					         1.07000	1.80000e+01	
					         1.07167	1.60000e+01	
					         1.07333	1.30000e+01	
					         1.07500	1.10000e+01	
					         1.07667	8.00000e+00	
					         1.07833	4.00000e+00	
					         1.08000	1.00000e+00	
					         1.08167	-3.00000e+00	
					         1.08333	-6.00000e+00	
					         1.08500	-1.00000e+01	
					         1.08667	-1.30000e+01	
					         1.08833	-1.60000e+01	
					         1.09000	-1.80000e+01	
					         1.09167	-2.00000e+01	
					         1.09333	-2.10000e+01	
					         1.09500	-2.20000e+01	
					         1.09667	-2.20000e+01	
					         1.09833	-2.20000e+01	
					         1.10000	-2.20000e+01	
					         1.10167	-2.10000e+01	
					         1.10333	-2.10000e+01	
					         1.10500	-2.00000e+01	
					         1.10667	-1.90000e+01	
					         1.10833	-1.90000e+01	
					         1.11000	-1.80000e+01	
					         1.11167	-1.80000e+01	
					         1.11333	-1.90000e+01	
					         1.11500	-1.90000e+01	
					         1.11667	-2.00000e+01	
					         1.11833	-2.10000e+01	
					         1.12000	-2.20000e+01	
					         1.12167	-2.30000e+01	
					         1.12333	-2.40000e+01	
					         1.12500	-2.60000e+01	
					         1.12667	-2.70000e+01	
					         1.12833	-2.90000e+01	
					         1.13000	-3.00000e+01	
					         1.13167	-3.10000e+01	
					         1.13333	-3.10000e+01	
					         1.13500	-3.20000e+01	
					         1.13667	-3.20000e+01	
					         1.13833	-3.20000e+01	
					         1.14000	-3.20000e+01	
					         1.14167	-3.20000e+01	
					         1.14333	-3.20000e+01	
					         1.14500	-3.10000e+01	
					         1.14667	-3.00000e+01	
					         1.14833	-3.00000e+01	
					         1.15000	-2.90000e+01	
					         1.15167	-2.80000e+01	
					         1.15333	-2.70000e+01	
					         1.15500	-2.70000e+01	
					         1.15667	-2.60000e+01	
					         1.15833	-2.50000e+01	
					         1.16000	-2.40000e+01	
					         1.16167	-2.30000e+01	
					         1.16333	-2.20000e+01	
					         1.16500	-2.00000e+01	
					         1.16667	-1.70000e+01	
					         1.16833	-1.30000e+01	
					         1.17000	-8.00000e+00	
					         1.17167	-1.00000e+00	
					         1.17333	7.00000e+00	
					         1.17500	1.80000e+01	
					         1.17667	3.00000e+01	
					         1.17833	4.40000e+01	
					         1.18000	6.00000e+01	
					         1.18167	7.90000e+01	
					         1.18333	9.90000e+01	
					         1.18500	1.21000e+02	
					         1.18667	1.45000e+02	
					         1.18833	1.69000e+02	
					         1.19000	1.95000e+02	
					         1.19167	2.21000e+02	
					         1.19333	2.46000e+02	
					         1.19500	2.69000e+02	
					         1.19667	2.90000e+02	
					         1.19833	3.07000e+02	
					         1.20000	3.18000e+02	
					         1.20167	3.22000e+02	
					         1.20333	3.18000e+02	
					         1.20500	3.06000e+02	
					         1.20667	2.85000e+02	
					         1.20833	2.55000e+02	
					         1.21000	2.17000e+02	
					         1.21167	1.71000e+02	
					         1.21333	1.18000e+02	
					         1.21500	6.00000e+01	
					         1.21667	0.00000e+00	
					         1.21833	-6.20000e+01	
					         1.22000	-1.23000e+02	
					         1.22167	-1.81000e+02	
					         1.22333	-2.35000e+02	
					         1.22500	-2.83000e+02	
					         1.22667	-3.25000e+02	
					         1.22833	-3.61000e+02	
					         1.23000	-3.89000e+02	
					         1.23167	-4.10000e+02	
					         1.23333	-4.24000e+02	
					         1.23500	-4.33000e+02	
					         1.23667	-4.35000e+02	
					         1.23833	-4.33000e+02	
					         1.24000	-4.26000e+02	
					         1.24167	-4.15000e+02	
					         1.24333	-4.01000e+02	
					         1.24500	-3.84000e+02	
					         1.24667	-3.64000e+02	
					         1.24833	-3.43000e+02	
					         1.25000	-3.20000e+02	
					         1.25167	-2.96000e+02	
					         1.25333	-2.71000e+02	
					         1.25500	-2.46000e+02	
					         1.25667	-2.20000e+02	
					         1.25833	-1.94000e+02	
					         1.26000	-1.69000e+02	
					         1.26167	-1.44000e+02	
					         1.26333	-1.20000e+02	
					         1.26500	-9.70000e+01	
					         1.26667	-7.50000e+01	
					         1.26833	-5.40000e+01	
					         1.27000	-3.50000e+01	
					         1.27167	-1.60000e+01	
					         1.27333	0.00000e+00	
					         1.27500	1.50000e+01	
					         1.27667	2.90000e+01	
					         1.27833	4.10000e+01	
					         1.28000	5.20000e+01	
					         1.28167	6.00000e+01	
					         1.28333	6.80000e+01	
					         1.28500	7.40000e+01	
					         1.28667	7.80000e+01	
					         1.28833	8.20000e+01	
					         1.29000	8.40000e+01	
					         1.29167	8.50000e+01	
					         1.29333	8.50000e+01	
					         1.29500	8.50000e+01	
					         1.29667	8.30000e+01	
					         1.29833	8.20000e+01	
					         1.30000	8.00000e+01	
					         1.30167	7.90000e+01	
					         1.30333	7.70000e+01	
					         1.30500	7.50000e+01	
					         1.30667	7.30000e+01	
					         1.30833	7.20000e+01	
					         1.31000	7.00000e+01	
					         1.31167	6.90000e+01	
					         1.31333	6.70000e+01	
					         1.31500	6.60000e+01	
					         1.31667	6.50000e+01	
					         1.31833	6.40000e+01	
					         1.32000	6.30000e+01	
					         1.32167	6.30000e+01	
					         1.32333	6.20000e+01	
					         1.32500	6.20000e+01	
					         1.32667	6.10000e+01	
					         1.32833	6.10000e+01	
					         1.33000	6.10000e+01	
					         1.33167	6.00000e+01	
					         1.33333	6.00000e+01	
					         1.33500	6.10000e+01	
					         1.33667	6.10000e+01	
					         1.33833	6.00000e+01	
					         1.34000	6.00000e+01	
					         1.34167	6.00000e+01	
					         1.34333	6.00000e+01	
					         1.34500	5.90000e+01	
					         1.34667	5.90000e+01	
					         1.34833	5.80000e+01	
					         1.35000	5.80000e+01	
					         1.35167	5.70000e+01	
					         1.35333	5.70000e+01	
					         1.35500	5.50000e+01	
					         1.35667	5.40000e+01	
					         1.35833	5.30000e+01	
					         1.36000	5.20000e+01	
					         1.36167	5.10000e+01	
					         1.36333	4.90000e+01	
					         1.36500	4.80000e+01	
					         1.36667	4.60000e+01	
					         1.36833	4.50000e+01	
					         1.37000	4.30000e+01	
					         1.37167	4.20000e+01	
					         1.37333	4.10000e+01	
					         1.37500	4.00000e+01	
					         1.37667	4.00000e+01	
					         1.37833	4.00000e+01	
					         1.38000	4.00000e+01	
					         1.38167	4.00000e+01	
					         1.38333	4.00000e+01	
					         1.38500	4.00000e+01	
					         1.38667	4.00000e+01	
					         1.38833	4.10000e+01	
					         1.39000	4.10000e+01	
					         1.39167	4.20000e+01	
					         1.39333	4.30000e+01	
					         1.39500	4.30000e+01	
					         1.39667	4.40000e+01	
					         1.39833	4.40000e+01	
					         1.40000	4.50000e+01	
					         1.40167	4.50000e+01	
					         1.40333	4.50000e+01	
					         1.40500	4.50000e+01	
					         1.40667	4.50000e+01	
					         1.40833	4.50000e+01	
					         1.41000	4.40000e+01	
					         1.41167	4.40000e+01	
					         1.41333	4.40000e+01	
					         1.41500	4.40000e+01	
					         1.41667	4.40000e+01	
					         1.41833	4.40000e+01	
					         1.42000	4.40000e+01	
					         1.42167	4.40000e+01	
					         1.42333	4.50000e+01	
					         1.42500	4.60000e+01	
					         1.42667	4.70000e+01	
					         1.42833	4.90000e+01	
					         1.43000	5.10000e+01	
					         1.43167	5.30000e+01	
					         1.43333	5.40000e+01	
					         1.43500	5.60000e+01	
					         1.43667	5.70000e+01	
					         1.43833	5.90000e+01	
					         1.44000	6.00000e+01	
					         1.44167	6.20000e+01	
					         1.44333	6.30000e+01	
					         1.44500	6.40000e+01	
					         1.44667	6.60000e+01	
					         1.44833	6.70000e+01	
					         1.45000	6.90000e+01	
					         1.45167	7.00000e+01	
					         1.45333	7.20000e+01	
					         1.45500	7.40000e+01	
					         1.45667	7.70000e+01	
					         1.45833	8.00000e+01	
					         1.46000	8.20000e+01	
					         1.46167	8.50000e+01	
					         1.46333	8.80000e+01	
					         1.46500	9.10000e+01	
					         1.46667	9.30000e+01	
					         1.46833	9.60000e+01	
					         1.47000	9.90000e+01	
					         1.47167	1.01000e+02	
					         1.47333	1.03000e+02	
					         1.47500	1.05000e+02	
					         1.47667	1.06000e+02	
					         1.47833	1.06000e+02	
					         1.48000	1.07000e+02	
					         1.48167	1.06000e+02	
					         1.48333	1.06000e+02	
					         1.48500	1.05000e+02	
					         1.48667	1.04000e+02	
					         1.48833	1.02000e+02	
					         1.49000	1.00000e+02	
					         1.49167	9.70000e+01	
					         1.49333	9.50000e+01	
					         1.49500	9.20000e+01	
					         1.49667	9.00000e+01	
					         1.49833	8.70000e+01	
					         1.50000	8.50000e+01	
					         1.50167	8.20000e+01	
					         1.50333	8.00000e+01	
					         1.50500	7.80000e+01	
					         1.50667	7.50000e+01	
					         1.50833	7.20000e+01	
					         1.51000	6.90000e+01	
					         1.51167	6.60000e+01	
					         1.51333	6.30000e+01	
					         1.51500	5.90000e+01	
					         1.51667	5.60000e+01	
					         1.51833	5.20000e+01	
					         1.52000	4.80000e+01	
					         1.52167	4.50000e+01	
					         1.52333	4.10000e+01	
					         1.52500	3.70000e+01	
					         1.52667	3.30000e+01	
					         1.52833	2.90000e+01	
					         1.53000	2.50000e+01	
					         1.53167	2.10000e+01	
					         1.53333	1.70000e+01	
					         1.53500	1.30000e+01	
					         1.53667	9.00000e+00	
					         1.53833	5.00000e+00	
					         1.54000	1.00000e+00	
					         1.54167	-4.00000e+00	
					         1.54333	-8.00000e+00	
					         1.54500	-1.30000e+01	
					         1.54667	-1.70000e+01	
					         1.54833	-2.10000e+01	
					         1.55000	-2.50000e+01	
					         1.55167	-2.90000e+01	
					         1.55333	-3.30000e+01	
					         1.55500	-3.60000e+01	
					         1.55667	-3.90000e+01	
					         1.55833	-4.20000e+01	
					         1.56000	-4.40000e+01	
					         1.56167	-4.70000e+01	
					         1.56333	-4.90000e+01	
					         1.56500	-5.10000e+01	
					         1.56667	-5.30000e+01	
					         1.56833	-5.50000e+01	
					         1.57000	-5.70000e+01	
					         1.57167	-5.80000e+01	
					         1.57333	-6.00000e+01	
					         1.57500	-6.20000e+01	
					         1.57667	-6.40000e+01	
					         1.57833	-6.60000e+01	
					         1.58000	-6.70000e+01	
					         1.58167	-6.90000e+01	
					         1.58333	-7.10000e+01	
					         1.58500	-7.20000e+01	
					         1.58667	-7.30000e+01	
					         1.58833	-7.40000e+01	
					         1.59000	-7.50000e+01	
					         1.59167	-7.60000e+01	
					         1.59333	-7.60000e+01	
					         1.59500	-7.60000e+01	
					         1.59667	-7.60000e+01	
					         1.59833	-7.60000e+01	
					         1.60000	-7.60000e+01	
					         1.60167	-7.50000e+01	
					         1.60333	-7.40000e+01	
					         1.60500	-7.30000e+01	
					         1.60667	-7.20000e+01	
					         1.60833	-7.10000e+01	
					         1.61000	-7.00000e+01	
					         1.61167	-6.90000e+01	
					         1.61333	-6.80000e+01	
					         1.61500	-6.80000e+01	
					         1.61667	-6.70000e+01	
					         1.61833	-6.70000e+01	
					         1.62000	-6.60000e+01	
					         1.62167	-6.60000e+01	
					         1.62333	-6.60000e+01	
					         1.62500	-6.60000e+01	
					         1.62667	-6.50000e+01	
					         1.62833	-6.50000e+01	
					         1.63000	-6.40000e+01	
					         1.63167	-6.30000e+01	
					         1.63333	-6.20000e+01	
					         1.63500	-6.10000e+01	
					         1.63667	-5.90000e+01	
					         1.63833	-5.70000e+01	
					         1.64000	-5.50000e+01	
					         1.64167	-5.40000e+01	
					         1.64333	-5.20000e+01	
					         1.64500	-5.00000e+01	
					         1.64667	-4.80000e+01	
					         1.64833	-4.60000e+01	
					         1.65000	-4.40000e+01	
					         1.65167	-4.20000e+01	
					         1.65333	-4.00000e+01	
					         1.65500	-3.80000e+01	
					         1.65667	-3.60000e+01	
					         1.65833	-3.40000e+01	
					         1.66000	-3.30000e+01	
					         1.66167	-3.20000e+01	
					         1.66333	-3.00000e+01	
					         1.66500	-2.90000e+01	
					         1.66667	-2.80000e+01	
					         1.66833	-2.70000e+01	
					         1.67000	-2.60000e+01	
					         1.67167	-2.50000e+01	
					         1.67333	-2.40000e+01	
					         1.67500	-2.30000e+01	
					         1.67667	-2.20000e+01	
					         1.67833	-2.00000e+01	
					         1.68000	-1.90000e+01	
					         1.68167	-1.70000e+01	
					         1.68333	-1.50000e+01	
					         1.68500	-1.30000e+01	
					         1.68667	-1.10000e+01	
					         1.68833	-9.00000e+00	
					         1.69000	-8.00000e+00	
					         1.69167	-6.00000e+00	
					         1.69333	-5.00000e+00	
					         1.69500	-3.00000e+00	
					         1.69667	-3.00000e+00	
					         1.69833	-2.00000e+00	
					         1.70000	-1.00000e+00	
					         1.70167	0.00000e+00	
					         1.70333	0.00000e+00	
					         1.70500	1.00000e+00	
					         1.70667	2.00000e+00	
					         1.70833	2.00000e+00	
					         1.71000	2.00000e+00	
					         1.71167	2.00000e+00	
					         1.71333	2.00000e+00	
					         1.71500	3.00000e+00	
					         1.71667	3.00000e+00	
					         1.71833	3.00000e+00	
					         1.72000	3.00000e+00	
					         1.72167	3.00000e+00	
					         1.72333	2.00000e+00	
					         1.72500	2.00000e+00	
					         1.72667	2.00000e+00	
					         1.72833	2.00000e+00	
					         1.73000	2.00000e+00	
					         1.73167	2.00000e+00	
					         1.73333	2.00000e+00	
					         1.73500	2.00000e+00	
					         1.73667	3.00000e+00	
					         1.73833	3.00000e+00	
					         1.74000	3.00000e+00	
					         1.74167	3.00000e+00	
					         1.74333	3.00000e+00	
					         1.74500	3.00000e+00	
					         1.74667	3.00000e+00	
					         1.74833	3.00000e+00	
					         1.75000	3.00000e+00	
					         1.75167	3.00000e+00	
					         1.75333	3.00000e+00	
					         1.75500	2.00000e+00	
					         1.75667	2.00000e+00	
					         1.75833	2.00000e+00	
					         1.76000	2.00000e+00	
					         1.76167	2.00000e+00	
					         1.76333	2.00000e+00	
					         1.76500	2.00000e+00	
					         1.76667	1.00000e+00	
					         1.76833	1.00000e+00	
					         1.77000	0.00000e+00	
					         1.77167	0.00000e+00	
					         1.77333	-1.00000e+00	
					         1.77500	-1.00000e+00	
					         1.77667	-2.00000e+00	
					         1.77833	-2.00000e+00	
					         1.78000	-3.00000e+00	
					         1.78167	-3.00000e+00	
					         1.78333	-3.00000e+00	
					         1.78500	-4.00000e+00	
					         1.78667	-4.00000e+00	
					         1.78833	-4.00000e+00	
					         1.79000	-5.00000e+00	
					         1.79167	-6.00000e+00	
					         1.79333	-7.00000e+00	
					         1.79500	-8.00000e+00	
					         1.79667	-9.00000e+00	
					         1.79833	-1.00000e+01	
					         1.80000	-1.10000e+01	
					         1.80167	-1.20000e+01	
					         1.80333	-1.30000e+01	
					         1.80500	-1.40000e+01	
					         1.80667	-1.40000e+01	
					         1.80833	-1.50000e+01	
					         1.81000	-1.50000e+01	
					         1.81167	-1.50000e+01	
					         1.81333	-1.50000e+01	
					         1.81500	-1.50000e+01	
					         1.81667	-1.50000e+01	
					         1.81833	-1.50000e+01	
					         1.82000	-1.50000e+01	
					         1.82167	-1.50000e+01	
					         1.82333	-1.50000e+01	
					         1.82500	-1.50000e+01	
					         1.82667	-1.40000e+01	
					         1.82833	-1.40000e+01	
					         1.83000	-1.30000e+01	
					         1.83167	-1.30000e+01	
					         1.83333	-1.20000e+01	
					         1.83500	-1.10000e+01	
					         1.83667	-1.00000e+01	
					         1.83833	-1.00000e+01	
					         1.84000	-9.00000e+00	
					         1.84167	-9.00000e+00	
					         1.84333	-9.00000e+00	
					         1.84500	-9.00000e+00	
					         1.84667	-1.00000e+01	
					         1.84833	-1.00000e+01	
					         1.85000	-1.10000e+01	
					         1.85167	-1.20000e+01	
					         1.85333	-1.30000e+01	
					         1.85500	-1.40000e+01	
					         1.85667	-1.50000e+01	
					         1.85833	-1.60000e+01	
					         1.86000	-1.60000e+01	
					         1.86167	-1.70000e+01	
					         1.86333	-1.70000e+01	
					         1.86500	-1.70000e+01	
					         1.86667	-1.70000e+01	
					         1.86833	-1.60000e+01	
					         1.87000	-1.50000e+01	
					         1.87167	-1.50000e+01	
					         1.87333	-1.40000e+01	
					         1.87500	-1.30000e+01	
					         1.87667	-1.20000e+01	
					         1.87833	-1.10000e+01	
					         1.88000	-1.10000e+01	
					         1.88167	-1.00000e+01	
					         1.88333	-1.00000e+01	
					         1.88500	-1.00000e+01	
					         1.88667	-1.00000e+01	
					         1.88833	-1.00000e+01	
					         1.89000	-1.00000e+01	
					         1.89167	-1.00000e+01	
					         1.89333	-1.00000e+01	
					         1.89500	-9.00000e+00	
					         1.89667	-9.00000e+00	
					         1.89833	-8.00000e+00	
					         1.90000	-7.00000e+00	
					         1.90167	-6.00000e+00	
					         1.90333	-6.00000e+00	
					         1.90500	-5.00000e+00	
					         1.90667	-4.00000e+00	
					         1.90833	-4.00000e+00	
					         1.91000	-3.00000e+00	
					         1.91167	-3.00000e+00	
					         1.91333	-3.00000e+00	
					         1.91500	-4.00000e+00	
					         1.91667	-4.00000e+00	
					         1.91833	-4.00000e+00	
					         1.92000	-4.00000e+00	
					         1.92167	-4.00000e+00	
					         1.92333	-4.00000e+00	
					         1.92500	-4.00000e+00	
					         1.92667	-3.00000e+00	
					         1.92833	-3.00000e+00	
					         1.93000	-3.00000e+00	
					         1.93167	-3.00000e+00	
					         1.93333	-3.00000e+00	
					         1.93500	-4.00000e+00	
					         1.93667	-4.00000e+00	
					         1.93833	-5.00000e+00	
					         1.94000	-5.00000e+00	
					         1.94167	-6.00000e+00	
					         1.94333	-6.00000e+00	
					         1.94500	-7.00000e+00	
					         1.94667	-7.00000e+00	
					         1.94833	-7.00000e+00	
					         1.95000	-6.00000e+00	
					         1.95167	-6.00000e+00	
					         1.95333	-6.00000e+00	
					         1.95500	-6.00000e+00	
					         1.95667	-5.00000e+00	
					         1.95833	-5.00000e+00	
					         1.96000	-5.00000e+00	
					         1.96167	-5.00000e+00	
					         1.96333	-5.00000e+00	
					         1.96500	-5.00000e+00	
					         1.96667	-5.00000e+00	
					         1.96833	-5.00000e+00	
					         1.97000	-5.00000e+00	
					         1.97167	-5.00000e+00	
					         1.97333	-5.00000e+00	
					         1.97500	-5.00000e+00	
					         1.97667	-5.00000e+00	
					         1.97833	-5.00000e+00	
					         1.98000	-5.00000e+00	
					         1.98167	-5.00000e+00	
					         1.98333	-5.00000e+00	
					         1.98500	-6.00000e+00	
					         1.98667	-6.00000e+00	
					         1.98833	-6.00000e+00	
					         1.99000	-6.00000e+00	
					         1.99167	-6.00000e+00	
					         1.99333	-6.00000e+00	
					         1.99500	-6.00000e+00	
					         1.99667	-6.00000e+00	
					         1.99833	-6.00000e+00	
					         2.00000	-6.00000e+00	
					         2.00167	-5.00000e+00	
					         2.00333	-5.00000e+00	
					         2.00500	-5.00000e+00	
					         2.00667	-5.00000e+00	
					         2.00833	-5.00000e+00	
					         2.01000	-5.00000e+00	
					         2.01167	-5.00000e+00	
					         2.01333	-5.00000e+00	
					         2.01500	-5.00000e+00	
					         2.01667	-5.00000e+00	
					         2.01833	-5.00000e+00	
					         2.02000	-5.00000e+00	
					         2.02167	-4.00000e+00	
					         2.02333	-4.00000e+00	
					         2.02500	-4.00000e+00	
					         2.02667	-3.00000e+00	
					         2.02833	-3.00000e+00	
					         2.03000	-3.00000e+00	
					         2.03167	-3.00000e+00	
					         2.03333	-3.00000e+00	
					         2.03500	-3.00000e+00	
					         2.03667	-4.00000e+00	
					         2.03833	-4.00000e+00	
					         2.04000	-5.00000e+00	
					         2.04167	-5.00000e+00	
					         2.04333	-6.00000e+00	
					         2.04500	-6.00000e+00	
					         2.04667	-6.00000e+00	
					         2.04833	-6.00000e+00	
					         2.05000	-6.00000e+00	
					         2.05167	-7.00000e+00	
					         2.05333	-7.00000e+00	
					         2.05500	-6.00000e+00	
					         2.05667	-6.00000e+00	
					         2.05833	-6.00000e+00	
					         2.06000	-6.00000e+00	
					         2.06167	-6.00000e+00	
					         2.06333	-5.00000e+00	
					         2.06500	-5.00000e+00	
					         2.06667	-5.00000e+00	
					         2.06833	-5.00000e+00	
					         2.07000	-5.00000e+00	
					         2.07167	-5.00000e+00	
					         2.07333	-5.00000e+00	
					         2.07500	-5.00000e+00	
					         2.07667	-5.00000e+00	
					         2.07833	-5.00000e+00	
					         2.08000	-5.00000e+00	
					         2.08167	-4.00000e+00	
					         2.08333	-4.00000e+00	
					         2.08500	-4.00000e+00	
					         2.08667	-3.00000e+00	
					         2.08833	-3.00000e+00	
					         2.09000	-3.00000e+00	
					         2.09167	-3.00000e+00	
					         2.09333	-3.00000e+00	
					         2.09500	-3.00000e+00	
					         2.09667	-3.00000e+00	
					         2.09833	-4.00000e+00	
					         2.10000	-5.00000e+00	
					         2.10167	-6.00000e+00	
					         2.10333	-7.00000e+00	
					         2.10500	-8.00000e+00	
					         2.10667	-9.00000e+00	
					         2.10833	-1.00000e+01	
					         2.11000	-1.00000e+01	
					         2.11167	-1.10000e+01	
					         2.11333	-1.00000e+01	
					         2.11500	-1.00000e+01	
					         2.11667	-1.00000e+01	
					         2.11833	-9.00000e+00	
					         2.12000	-8.00000e+00	
					         2.12167	-7.00000e+00	
					         2.12333	-7.00000e+00	
					         2.12500	-6.00000e+00	
					         2.12667	-6.00000e+00	
					         2.12833	-6.00000e+00	
					         2.13000	-6.00000e+00	
					         2.13167	-6.00000e+00	
					         2.13333	-6.00000e+00	
					         2.13500	-7.00000e+00	
					         2.13667	-7.00000e+00	
					         2.13833	-8.00000e+00	
					         2.14000	-8.00000e+00	
					         2.14167	-8.00000e+00	
					         2.14333	-8.00000e+00	
					         2.14500	-8.00000e+00	
					         2.14667	-7.00000e+00	
					         2.14833	-7.00000e+00	
					         2.15000	-6.00000e+00	
					         2.15167	-6.00000e+00	
					         2.15333	-5.00000e+00	
					         2.15500	-4.00000e+00	
					         2.15667	-4.00000e+00	
					         2.15833	-3.00000e+00	
					         2.16000	-2.00000e+00	
					         2.16167	-2.00000e+00	
					         2.16333	-1.00000e+00	
					         2.16500	-1.00000e+00	
					         2.16667	0.00000e+00	
					         2.16833	0.00000e+00	
					         2.17000	0.00000e+00	
					         2.17167	0.00000e+00	
					         2.17333	0.00000e+00	
					         2.17500	0.00000e+00	
					         2.17667	0.00000e+00	
					         2.17833	0.00000e+00	
					         2.18000	-1.00000e+00	
					         2.18167	-2.00000e+00	
					         2.18333	-2.00000e+00	
					         2.18500	-3.00000e+00	
					         2.18667	-3.00000e+00	
					         2.18833	-4.00000e+00	
					         2.19000	-5.00000e+00	
					         2.19167	-5.00000e+00	
					         2.19333	-6.00000e+00	
					         2.19500	-6.00000e+00	
					         2.19667	-6.00000e+00	
					         2.19833	-7.00000e+00	
					         2.20000	-6.00000e+00	
					         2.20167	-6.00000e+00	
					         2.20333	-6.00000e+00	
					         2.20500	-5.00000e+00	
					         2.20667	-4.00000e+00	
					         2.20833	-3.00000e+00	
					         2.21000	-2.00000e+00	
					         2.21167	0.00000e+00	
					         2.21333	2.00000e+00	
					         2.21500	3.00000e+00	
					         2.21667	5.00000e+00	
					         2.21833	7.00000e+00	
					         2.22000	9.00000e+00	
					         2.22167	1.10000e+01	
					         2.22333	1.30000e+01	
					         2.22500	1.50000e+01	
					         2.22667	1.70000e+01	
					         2.22833	1.90000e+01	
					         2.23000	2.00000e+01	
					         2.23167	2.10000e+01	
					         2.23333	2.10000e+01	
					         2.23500	2.20000e+01	
					         2.23667	2.20000e+01	
					         2.23833	2.20000e+01	
					         2.24000	2.20000e+01	
					         2.24167	2.20000e+01	
					         2.24333	2.20000e+01	
					         2.24500	2.20000e+01	
					         2.24667	2.20000e+01	
					         2.24833	2.20000e+01	
					         2.25000	2.20000e+01	
					         2.25167	2.20000e+01	
					         2.25333	2.20000e+01	
					         2.25500	2.10000e+01	
					         2.25667	2.00000e+01	
					         2.25833	1.90000e+01	
					         2.26000	1.70000e+01	
					         2.26167	1.40000e+01	
					         2.26333	1.10000e+01	
					         2.26500	7.00000e+00	
					         2.26667	2.00000e+00	
					         2.26833	-2.00000e+00	
					         2.27000	-7.00000e+00	
					         2.27167	-1.20000e+01	
					         2.27333	-1.60000e+01	
					         2.27500	-2.00000e+01	
					         2.27667	-2.40000e+01	
					         2.27833	-2.70000e+01	
					         2.28000	-2.90000e+01	
					         2.28167	-3.10000e+01	
					         2.28333	-3.20000e+01	
					         2.28500	-3.30000e+01	
					         2.28667	-3.30000e+01	
					         2.28833	-3.20000e+01	
					         2.29000	-3.10000e+01	
					         2.29167	-2.90000e+01	
					         2.29333	-2.80000e+01	
					         2.29500	-2.50000e+01	
					         2.29667	-2.30000e+01	
					         2.29833	-2.10000e+01	
					         2.30000	-1.90000e+01	
					         2.30167	-1.80000e+01	
					         2.30333	-1.70000e+01	
					         2.30500	-1.60000e+01	
					         2.30667	-1.60000e+01	
					         2.30833	-1.70000e+01	
					         2.31000	-1.80000e+01	
					         2.31167	-1.90000e+01	
					         2.31333	-2.10000e+01	
					         2.31500	-2.30000e+01	
					         2.31667	-2.50000e+01	
					         2.31833	-2.80000e+01	
					         2.32000	-3.00000e+01	
					         2.32167	-3.20000e+01	
					         2.32333	-3.40000e+01	
					         2.32500	-3.50000e+01	
					         2.32667	-3.60000e+01	
					         2.32833	-3.70000e+01	
					         2.33000	-3.70000e+01	
					         2.33167	-3.80000e+01	
					         2.33333	-3.80000e+01	
					         2.33500	-3.80000e+01	
					         2.33667	-3.70000e+01	
					         2.33833	-3.70000e+01	
					         2.34000	-3.60000e+01	
					         2.34167	-3.60000e+01	
					         2.34333	-3.50000e+01	
					         2.34500	-3.40000e+01	
					         2.34667	-3.30000e+01	
					         2.34833	-3.20000e+01	
					         2.35000	-3.00000e+01	
					         2.35167	-2.80000e+01	
					         2.35333	-2.50000e+01	
					         2.35500	-2.10000e+01	
					         2.35667	-1.60000e+01	
					         2.35833	-9.00000e+00	
					         2.36000	-1.00000e+00	
					         2.36167	8.00000e+00	
					         2.36333	2.00000e+01	
					         2.36500	3.30000e+01	
					         2.36667	4.80000e+01	
					         2.36833	6.60000e+01	
					         2.37000	8.50000e+01	
					         2.37167	1.06000e+02	
					         2.37333	1.30000e+02	
					         2.37500	1.55000e+02	
					         2.37667	1.81000e+02	
					         2.37833	2.07000e+02	
					         2.38000	2.34000e+02	
					         2.38167	2.59000e+02	
					         2.38333	2.82000e+02	
					         2.38500	3.01000e+02	
					         2.38667	3.14000e+02	
					         2.38833	3.21000e+02	
					         2.39000	3.20000e+02	
					         2.39167	3.10000e+02	
					         2.39333	2.91000e+02	
					         2.39500	2.63000e+02	
					         2.39667	2.27000e+02	
					         2.39833	1.82000e+02	
					         2.40000	1.30000e+02	
					         2.40167	7.20000e+01	
					         2.40333	1.10000e+01	
					         2.40500	-5.20000e+01	
					         2.40667	-1.14000e+02	
					         2.40833	-1.73000e+02	
					         2.41000	-2.28000e+02	
					         2.41167	-2.78000e+02	
					         2.41333	-3.22000e+02	
					         2.41500	-3.58000e+02	
					         2.41667	-3.87000e+02	
					         2.41833	-4.09000e+02	
					         2.42000	-4.24000e+02	
					         2.42167	-4.33000e+02	
					         2.42333	-4.35000e+02	
					         2.42500	-4.33000e+02	
					         2.42667	-4.27000e+02	
					         2.42833	-4.16000e+02	
					         2.43000	-4.03000e+02	
					         2.43167	-3.86000e+02	
					         2.43333	-3.68000e+02	
					         2.43500	-3.48000e+02	
					         2.43667	-3.26000e+02	
					         2.43833	-3.03000e+02	
					         2.44000	-2.79000e+02	
					         2.44167	-2.55000e+02	
					         2.44333	-2.30000e+02	
					         2.44500	-2.05000e+02	
					         2.44667	-1.80000e+02	
					         2.44833	-1.54000e+02	
					         2.45000	-1.29000e+02	
					         2.45167	-1.04000e+02	
					         2.45333	-8.10000e+01	
					         2.45500	-5.80000e+01	
					         2.45667	-3.60000e+01	
					         2.45833	-1.60000e+01	
					         2.46000	2.00000e+00	
					         2.46167	1.80000e+01	
					         2.46333	3.30000e+01	
					         2.46500	4.50000e+01	
					         2.46667	5.50000e+01	
					         2.46833	6.40000e+01	
					         2.47000	7.00000e+01	
					         2.47167	7.40000e+01	
					         2.47333	7.80000e+01	
					         2.47500	8.00000e+01	
					         2.47667	8.10000e+01	
					         2.47833	8.20000e+01	
					         2.48000	8.20000e+01	
					         2.48167	8.10000e+01	
					         2.48333	8.00000e+01	
					         2.48500	8.00000e+01	
					         2.48667	7.90000e+01	
					         2.48833	7.70000e+01	
					         2.49000	7.60000e+01	
					         2.49167	7.50000e+01	
					         2.49333	7.40000e+01	
					         2.49500	7.30000e+01	
					         2.49667	7.10000e+01	
					         2.49833	6.90000e+01	
					         2.50000	6.70000e+01	
					         2.50167	6.60000e+01	
					         2.50333	6.40000e+01	
					         2.50500	6.30000e+01	
					         2.50667	6.20000e+01	
					         2.50833	6.10000e+01	
					         2.51000	6.10000e+01	
					         2.51167	6.00000e+01	
					         2.51333	6.00000e+01	
					         2.51500	6.00000e+01	
					         2.51667	6.00000e+01	
					         2.51833	6.00000e+01	
					         2.52000	6.00000e+01	
					         2.52167	6.00000e+01	
					         2.52333	6.00000e+01	
					         2.52500	6.00000e+01	
					         2.52667	6.00000e+01	
					         2.52833	5.90000e+01	
					         2.53000	5.90000e+01	
					         2.53167	5.90000e+01	
					         2.53333	5.90000e+01	
					         2.53500	5.90000e+01	
					         2.53667	5.90000e+01	
					         2.53833	5.90000e+01	
					         2.54000	5.90000e+01	
					         2.54167	5.90000e+01	
					         2.54333	5.90000e+01	
					         2.54500	5.90000e+01	
					         2.54667	5.90000e+01	
					         2.54833	5.80000e+01	
					         2.55000	5.80000e+01	
					         2.55167	5.70000e+01	
					         2.55333	5.60000e+01	
					         2.55500	5.40000e+01	
					         2.55667	5.30000e+01	
					         2.55833	5.10000e+01	
					         2.56000	5.00000e+01	
					         2.56167	4.80000e+01	
					         2.56333	4.70000e+01	
					         2.56500	4.50000e+01	
					         2.56667	4.40000e+01	
					         2.56833	4.30000e+01	
					         2.57000	4.20000e+01	
					         2.57167	4.20000e+01	
					         2.57333	4.10000e+01	
					         2.57500	4.10000e+01	
					         2.57667	4.10000e+01	
					         2.57833	4.20000e+01	
					         2.58000	4.30000e+01	
					         2.58167	4.40000e+01	
					         2.58333	4.50000e+01	
					         2.58500	4.60000e+01	
					         2.58667	4.70000e+01	
					         2.58833	4.80000e+01	
					         2.59000	4.90000e+01	
					         2.59167	5.00000e+01	
					         2.59333	5.00000e+01	
					         2.59500	5.10000e+01	
					         2.59667	5.10000e+01	
					         2.59833	5.10000e+01	
					         2.60000	5.10000e+01	
					         2.60167	5.10000e+01	
					         2.60333	5.10000e+01	
					         2.60500	5.10000e+01	
					         2.60667	5.10000e+01	
					         2.60833	5.10000e+01	
					         2.61000	5.10000e+01	
					         2.61167	5.10000e+01	
					         2.61333	5.20000e+01	
					         2.61500	5.20000e+01	
					         2.61667	5.30000e+01	
					         2.61833	5.50000e+01	
					         2.62000	5.60000e+01	
					         2.62167	5.80000e+01	
					         2.62333	6.00000e+01	
					         2.62500	6.20000e+01	
					         2.62667	6.40000e+01	
					         2.62833	6.60000e+01	
					         2.63000	6.80000e+01	
					         2.63167	7.00000e+01	
					         2.63333	7.20000e+01	
					         2.63500	7.40000e+01	
					         2.63667	7.60000e+01	
					         2.63833	7.70000e+01	
					         2.64000	7.90000e+01	
					         2.64167	8.10000e+01	
					         2.64333	8.20000e+01	
					         2.64500	8.40000e+01	
					         2.64667	8.60000e+01	
					         2.64833	8.80000e+01	
					         2.65000	8.90000e+01	
					         2.65167	9.10000e+01	
					         2.65333	9.30000e+01	
					         2.65500	9.50000e+01	
					         2.65667	9.70000e+01	
					         2.65833	9.80000e+01	
					         2.66000	1.00000e+02	
					         2.66167	1.01000e+02	
					         2.66333	1.01000e+02	
					         2.66500	1.02000e+02	
					         2.66667	1.02000e+02	
					         2.66833	1.01000e+02	
					         2.67000	1.01000e+02	
					         2.67167	1.00000e+02	
					         2.67333	9.80000e+01	
					         2.67500	9.70000e+01	
					         2.67667	9.60000e+01	
					         2.67833	9.40000e+01	
					         2.68000	9.30000e+01	
					         2.68167	9.10000e+01	
					         2.68333	9.00000e+01	
					         2.68500	8.80000e+01	
					         2.68667	8.70000e+01	
					         2.68833	8.50000e+01	
					         2.69000	8.40000e+01	
					         2.69167	8.20000e+01	
					         2.69333	8.00000e+01	
					         2.69500	7.80000e+01	
					         2.69667	7.50000e+01	
					         2.69833	7.20000e+01	
					         2.70000	6.80000e+01	
					         2.70167	6.50000e+01	
					         2.70333	6.10000e+01	
					         2.70500	5.60000e+01	
					         2.70667	5.20000e+01	
					         2.70833	4.80000e+01	
					         2.71000	4.30000e+01	
					         2.71167	3.90000e+01	
					         2.71333	3.50000e+01	
					         2.71500	3.10000e+01	
					         2.71667	2.60000e+01	
					         2.71833	2.20000e+01	
					         2.72000	1.80000e+01	
					         2.72167	1.40000e+01	
					         2.72333	1.00000e+01	
					         2.72500	6.00000e+00	
					         2.72667	2.00000e+00	
					         2.72833	-2.00000e+00	
					         2.73000	-5.00000e+00	
					         2.73167	-9.00000e+00	
					         2.73333	-1.30000e+01	
					         2.73500	-1.70000e+01	
					         2.73667	-2.00000e+01	
					         2.73833	-2.40000e+01	
					         2.74000	-2.70000e+01	
					         2.74167	-3.10000e+01	
					         2.74333	-3.40000e+01	
					         2.74500	-3.80000e+01	
					         2.74667	-4.20000e+01	
					         2.74833	-4.50000e+01	
					         2.75000	-4.80000e+01	
					         2.75167	-5.10000e+01	
					         2.75333	-5.40000e+01	
					         2.75500	-5.70000e+01	
					         2.75667	-5.90000e+01	
					         2.75833	-6.10000e+01	
					         2.76000	-6.20000e+01	
					         2.76167	-6.40000e+01	
					         2.76333	-6.50000e+01	
					         2.76500	-6.60000e+01	
					         2.76667	-6.70000e+01	
					         2.76833	-6.70000e+01	
					         2.77000	-6.80000e+01	
					         2.77167	-6.80000e+01	
					         2.77333	-6.90000e+01	
					         2.77500	-6.90000e+01	
					         2.77667	-7.00000e+01	
					         2.77833	-7.00000e+01	
					         2.78000	-7.10000e+01	
					         2.78167	-7.10000e+01	
					         2.78333	-7.10000e+01	
					         2.78500	-7.20000e+01	
					         2.78667	-7.20000e+01	
					         2.78833	-7.20000e+01	
					         2.79000	-7.20000e+01	
					         2.79167	-7.20000e+01	
					         2.79333	-7.20000e+01	
					         2.79500	-7.10000e+01	
					         2.79667	-7.10000e+01	
					         2.79833	-7.00000e+01	
					         2.80000	-6.90000e+01	
					         2.80167	-6.90000e+01	
					         2.80333	-6.80000e+01	
					         2.80500	-6.80000e+01	
					         2.80667	-6.70000e+01	
					         2.80833	-6.70000e+01	
					         2.81000	-6.60000e+01	
					         2.81167	-6.50000e+01	
					         2.81333	-6.40000e+01	
					         2.81500	-6.30000e+01	
					         2.81667	-6.20000e+01	
					         2.81833	-6.10000e+01	
					         2.82000	-5.90000e+01	
					         2.82167	-5.80000e+01	
					         2.82333	-5.60000e+01	
					         2.82500	-5.40000e+01	
					         2.82667	-5.30000e+01	
					         2.82833	-5.10000e+01	
					         2.83000	-5.00000e+01	
					         2.83167	-4.80000e+01	
					         2.83333	-4.70000e+01	
					         2.83500	-4.60000e+01	
					         2.83667	-4.50000e+01	
					         2.83833	-4.40000e+01	
					         2.84000	-4.30000e+01	
					         2.84167	-4.20000e+01	
					         2.84333	-4.10000e+01	
					         2.84500	-4.00000e+01	
					         2.84667	-3.90000e+01	
					         2.84833	-3.80000e+01	
					         2.85000	-3.60000e+01	
					         2.85167	-3.50000e+01	
					         2.85333	-3.30000e+01	
					         2.85500	-3.20000e+01	
					         2.85667	-3.00000e+01	
					         2.85833	-2.80000e+01	
					         2.86000	-2.60000e+01	
					         2.86167	-2.50000e+01	
					         2.86333	-2.30000e+01	
					         2.86500	-2.10000e+01	
					         2.86667	-2.00000e+01	
					         2.86833	-1.80000e+01	
					         2.87000	-1.70000e+01	
					         2.87167	-1.50000e+01	
					         2.87333	-1.40000e+01	
					         2.87500	-1.20000e+01	
					         2.87667	-1.10000e+01	
					         2.87833	-9.00000e+00	
					         2.88000	-8.00000e+00	
					         2.88167	-7.00000e+00	
					         2.88333	-6.00000e+00	
					         2.88500	-5.00000e+00	
					         2.88667	-4.00000e+00	
					         2.88833	-4.00000e+00	
					         2.89000	-4.00000e+00	
					         2.89167	-3.00000e+00	
					         2.89333	-3.00000e+00	
					         2.89500	-3.00000e+00	
					         2.89667	-3.00000e+00	
					         2.89833	-3.00000e+00	
					         2.90000	-3.00000e+00	
					         2.90167	-3.00000e+00	
					         2.90333	-2.00000e+00	
					         2.90500	-2.00000e+00	
					         2.90667	-1.00000e+00	
					         2.90833	0.00000e+00	
					         2.91000	1.00000e+00	
					         2.91167	2.00000e+00	
					         2.91333	3.00000e+00	
					         2.91500	4.00000e+00	
					         2.91667	5.00000e+00	
					         2.91833	6.00000e+00	
					         2.92000	6.00000e+00	
					         2.92167	5.00000e+00	
					         2.92333	5.00000e+00	
					         2.92500	4.00000e+00	
					         2.92667	3.00000e+00	
					         2.92833	2.00000e+00	
					         2.93000	1.00000e+00	
					         2.93167	1.00000e+00	
					         2.93333	0.00000e+00	
					         2.93500	-1.00000e+00	
					         2.93667	-1.00000e+00	
					         2.93833	-2.00000e+00	
					         2.94000	-2.00000e+00	
					         2.94167	-2.00000e+00	
					         2.94333	-1.00000e+00	
					         2.94500	-1.00000e+00	
					         2.94667	-1.00000e+00	
					         2.94833	-1.00000e+00	
					         2.95000	-1.00000e+00	
					         2.95167	-1.00000e+00	
					         2.95333	-2.00000e+00	
					         2.95500	-2.00000e+00	
					         2.95667	-3.00000e+00	
					         2.95833	-3.00000e+00	
					         2.96000	-4.00000e+00	
					         2.96167	-4.00000e+00	
					         2.96333	-4.00000e+00	
					         2.96500	-5.00000e+00	
					         2.96667	-6.00000e+00	
					         2.96833	-6.00000e+00	
					         2.97000	-7.00000e+00	
					         2.97167	-7.00000e+00	
					         2.97333	-7.00000e+00	
					         2.97500	-8.00000e+00	
					         2.97667	-8.00000e+00	
					         2.97833	-8.00000e+00	
					         2.98000	-8.00000e+00	
					         2.98167	-8.00000e+00	
					         2.98333	-9.00000e+00	
					         2.98500	-9.00000e+00	
					         2.98667	-9.00000e+00	
					         2.98833	-9.00000e+00	
					         2.99000	-9.00000e+00	
					         2.99167	-9.00000e+00	
					         2.99333	-9.00000e+00	
					         2.99500	-8.00000e+00	
					         2.99667	-8.00000e+00	
					         2.99833	-8.00000e+00	
					         3.00000	-8.00000e+00	
					         3.00167	-8.00000e+00	
					         3.00333	-8.00000e+00	
					         3.00500	-8.00000e+00	
					         3.00667	-8.00000e+00	
					         3.00833	-8.00000e+00	
					         3.01000	-8.00000e+00	
					         3.01167	-9.00000e+00	
					         3.01333	-9.00000e+00	
					         3.01500	-1.00000e+01	
					         3.01667	-1.00000e+01	
					         3.01833	-1.10000e+01	
					         3.02000	-1.10000e+01	
					         3.02167	-1.10000e+01	
					         3.02333	-1.10000e+01	
					         3.02500	-1.10000e+01	
					         3.02667	-1.00000e+01	
					         3.02833	-1.00000e+01	
					         3.03000	-1.00000e+01	
					         3.03167	-1.00000e+01	
					         3.03333	-9.00000e+00	
					         3.03500	-9.00000e+00	
					         3.03667	-9.00000e+00	
					         3.03833	-8.00000e+00	
					         3.04000	-8.00000e+00	
					         3.04167	-8.00000e+00	
					         3.04333	-8.00000e+00	
					         3.04500	-8.00000e+00	
					         3.04667	-9.00000e+00	
					         3.04833	-9.00000e+00	
					         3.05000	-9.00000e+00	
					         3.05167	-9.00000e+00	
					         3.05333	-9.00000e+00	
					         3.05500	-1.00000e+01	
					         3.05667	-1.00000e+01	
					         3.05833	-1.00000e+01	
					         3.06000	-1.00000e+01	
					         3.06167	-1.00000e+01	
					         3.06333	-1.00000e+01	
					         3.06500	-9.00000e+00	
					         3.06667	-9.00000e+00	
					         3.06833	-9.00000e+00	
					         3.07000	-9.00000e+00	
					         3.07167	-8.00000e+00	
					         3.07333	-8.00000e+00	
					         3.07500	-7.00000e+00	
					         3.07667	-7.00000e+00	
					         3.07833	-6.00000e+00	
					         3.08000	-6.00000e+00	
					         3.08167	-6.00000e+00	
					         3.08333	-6.00000e+00	
					         3.08500	-6.00000e+00	
					         3.08667	-6.00000e+00	
					         3.08833	-6.00000e+00	
					         3.09000	-7.00000e+00	
					         3.09167	-8.00000e+00	
					         3.09333	-8.00000e+00	
					         3.09500	-9.00000e+00	
					         3.09667	-1.00000e+01	
					         3.09833	-1.00000e+01	
					         3.10000	-1.10000e+01	
					         3.10167	-1.10000e+01	
					         3.10333	-1.10000e+01	
					         3.10500	-1.10000e+01	
					         3.10667	-1.10000e+01	
					         3.10833	-1.10000e+01	
					         3.11000	-1.00000e+01	
					         3.11167	-1.00000e+01	
					         3.11333	-9.00000e+00	
					         3.11500	-8.00000e+00	
					         3.11667	-7.00000e+00	
					         3.11833	-7.00000e+00	
					         3.12000	-6.00000e+00	
					         3.12167	-6.00000e+00	
					         3.12333	-5.00000e+00	
					         3.12500	-5.00000e+00	
					         3.12667	-5.00000e+00	
					         3.12833	-5.00000e+00	
					         3.13000	-5.00000e+00	
					         3.13167	-5.00000e+00	
					         3.13333	-5.00000e+00	
					         3.13500	-6.00000e+00	
					         3.13667	-6.00000e+00	
					         3.13833	-6.00000e+00	
					         3.14000	-6.00000e+00	
					         3.14167	-6.00000e+00	
					         3.14333	-6.00000e+00	
					         3.14500	-5.00000e+00	
					         3.14667	-5.00000e+00	
					         3.14833	-5.00000e+00	
					         3.15000	-5.00000e+00	
					         3.15167	-5.00000e+00	
					         3.15333	-5.00000e+00	
					         3.15500	-5.00000e+00	
					         3.15667	-6.00000e+00	
					         3.15833	-6.00000e+00	
					         3.16000	-6.00000e+00	
					         3.16167	-6.00000e+00	
					         3.16333	-7.00000e+00	
					         3.16500	-7.00000e+00	
					         3.16667	-7.00000e+00	
					         3.16833	-7.00000e+00	
					         3.17000	-7.00000e+00	
					         3.17167	-7.00000e+00	
					         3.17333	-7.00000e+00	
					         3.17500	-7.00000e+00	
					         3.17667	-7.00000e+00	
					         3.17833	-7.00000e+00	
					         3.18000	-7.00000e+00	
					         3.18167	-7.00000e+00	
					         3.18333	-7.00000e+00	
					         3.18500	-7.00000e+00	
					         3.18667	-7.00000e+00	
					         3.18833	-6.00000e+00	
					         3.19000	-6.00000e+00	
					         3.19167	-6.00000e+00	
					         3.19333	-6.00000e+00	
					         3.19500	-7.00000e+00	
					         3.19667	-7.00000e+00	
					         3.19833	-7.00000e+00	
					         3.20000	-8.00000e+00	
					         3.20167	-8.00000e+00	
					         3.20333	-8.00000e+00	
					         3.20500	-9.00000e+00	
					         3.20667	-9.00000e+00	
					         3.20833	-9.00000e+00	
					         3.21000	-9.00000e+00	
					         3.21167	-9.00000e+00	
					         3.21333	-9.00000e+00	
					         3.21500	-9.00000e+00	
					         3.21667	-9.00000e+00	
					         3.21833	-9.00000e+00	
					         3.22000	-8.00000e+00	
					         3.22167	-9.00000e+00	
					         3.22333	-9.00000e+00	
					         3.22500	-9.00000e+00	
					         3.22667	-1.00000e+01	
					         3.22833	-1.00000e+01	
					         3.23000	-1.10000e+01	
					         3.23167	-1.10000e+01	
					         3.23333	-1.20000e+01	
					         3.23500	-1.20000e+01	
					         3.23667	-1.20000e+01	
					         3.23833	-1.20000e+01	
					         3.24000	-1.20000e+01	
					         3.24167	-1.10000e+01	
					         3.24333	-1.00000e+01	
					         3.24500	-1.00000e+01	
					         3.24667	-9.00000e+00	
					         3.24833	-8.00000e+00	
					         3.25000	-7.00000e+00	
					         3.25167	-6.00000e+00	
					         3.25333	-5.00000e+00	
					         3.25500	-4.00000e+00	
					         3.25667	-4.00000e+00	
					         3.25833	-4.00000e+00	
					         3.26000	-4.00000e+00	
					         3.26167	-4.00000e+00	
					         3.26333	-4.00000e+00	
					         3.26500	-4.00000e+00	
					         3.26667	-3.00000e+00	
					         3.26833	-3.00000e+00	
					         3.27000	-4.00000e+00	
					         3.27167	-4.00000e+00	
					         3.27333	-4.00000e+00	
					         3.27500	-4.00000e+00	
					         3.27667	-4.00000e+00	
					         3.27833	-4.00000e+00	
					         3.28000	-4.00000e+00	
					         3.28167	-4.00000e+00	
					         3.28333	-5.00000e+00	
					         3.28500	-5.00000e+00	
					         3.28667	-6.00000e+00	
					         3.28833	-7.00000e+00	
					         3.29000	-7.00000e+00	
					         3.29167	-8.00000e+00	
					         3.29333	-8.00000e+00	
					         3.29500	-9.00000e+00	
					         3.29667	-9.00000e+00	
					         3.29833	-1.00000e+01	
					         3.30000	-1.00000e+01	
					         3.30167	-1.00000e+01	
					         3.30333	-9.00000e+00	
					         3.30500	-9.00000e+00	
					         3.30667	-8.00000e+00	
					         3.30833	-7.00000e+00	
					         3.31000	-6.00000e+00	
					         3.31167	-5.00000e+00	
					         3.31333	-4.00000e+00	
					         3.31500	-3.00000e+00	
					         3.31667	-2.00000e+00	
					         3.31833	-2.00000e+00	
					         3.32000	-2.00000e+00	
					         3.32167	-2.00000e+00	
					         3.32333	-3.00000e+00	
					         3.32500	-4.00000e+00	
					         3.32667	-4.00000e+00	
					         3.32833	-5.00000e+00	
					         3.33000	-5.00000e+00	
					         3.33167	-5.00000e+00	
					         3.33333	-5.00000e+00	
					         3.33500	-5.00000e+00	
					         3.33667	-5.00000e+00	
					         3.33833	-4.00000e+00	
					         3.34000	-3.00000e+00	
					         3.34167	-3.00000e+00	
					         3.34333	-2.00000e+00	
					         3.34500	-2.00000e+00	
					         3.34667	-2.00000e+00	
					         3.34833	-3.00000e+00	
					         3.35000	-3.00000e+00	
					         3.35167	-4.00000e+00	
					         3.35333	-5.00000e+00	
					         3.35500	-6.00000e+00	
					         3.35667	-8.00000e+00	
					         3.35833	-8.00000e+00	
					         3.36000	-9.00000e+00	
					         3.36167	-1.00000e+01	
					         3.36333	-1.00000e+01	
					         3.36500	-1.00000e+01	
					         3.36667	-9.00000e+00	
					         3.36833	-8.00000e+00	
					         3.37000	-7.00000e+00	
					         3.37167	-6.00000e+00	
					         3.37333	-5.00000e+00	
					         3.37500	-3.00000e+00	
					         3.37667	-2.00000e+00	
					         3.37833	-1.00000e+00	
					         3.38000	-1.00000e+00	
					         3.38167	0.00000e+00	
					         3.38333	1.00000e+00	
					         3.38500	1.00000e+00	
					         3.38667	2.00000e+00	
					         3.38833	2.00000e+00	
					         3.39000	2.00000e+00	
					         3.39167	2.00000e+00	
					         3.39333	2.00000e+00	
					         3.39500	2.00000e+00	
					         3.39667	2.00000e+00	
					         3.39833	2.00000e+00	
					         3.40000	2.00000e+00	
					         3.40167	2.00000e+00	
					         3.40333	2.00000e+00	
					         3.40500	2.00000e+00	
					         3.40667	2.00000e+00	
					         3.40833	1.00000e+00	
					         3.41000	2.00000e+00	
					         3.41167	2.00000e+00	
					         3.41333	3.00000e+00	
					         3.41500	4.00000e+00	
					         3.41667	5.00000e+00	
					         3.41833	7.00000e+00	
					         3.42000	9.00000e+00	
					         3.42167	1.10000e+01	
					         3.42333	1.30000e+01	
					         3.42500	1.60000e+01	
					         3.42667	1.90000e+01	
					         3.42833	2.20000e+01	
					         3.43000	2.50000e+01	
					         3.43167	2.80000e+01	
					         3.43333	3.00000e+01	
					         3.43500	3.30000e+01	
					         3.43667	3.50000e+01	
					         3.43833	3.60000e+01	
					         3.44000	3.70000e+01	
					         3.44167	3.80000e+01	
					         3.44333	3.80000e+01	
					         3.44500	3.80000e+01	
					         3.44667	3.70000e+01	
					         3.44833	3.60000e+01	
					         3.45000	3.50000e+01	
					         3.45167	3.30000e+01	
					         3.45333	3.10000e+01	
					         3.45500	3.00000e+01	
					         3.45667	2.80000e+01	
					         3.45833	2.60000e+01	
					         3.46000	2.40000e+01	
					         3.46167	2.20000e+01	
					         3.46333	1.90000e+01	
					         3.46500	1.70000e+01	
					         3.46667	1.40000e+01	
					         3.46833	1.00000e+01	
					         3.47000	7.00000e+00	
					         3.47167	3.00000e+00	
					         3.47333	-1.00000e+00	
					         3.47500	-5.00000e+00	
					         3.47667	-8.00000e+00	
					         3.47833	-1.10000e+01	
					         3.48000	-1.40000e+01	
					         3.48167	-1.70000e+01	
					         3.48333	-1.90000e+01	
					         3.48500	-2.10000e+01	
					         3.48667	-2.30000e+01	
					         3.48833	-2.40000e+01	
					         3.49000	-2.40000e+01	
					         3.49167	-2.50000e+01	
					         3.49333	-2.50000e+01	
					         3.49500	-2.50000e+01	
					         3.49667	-2.50000e+01	
					         3.49833	-2.50000e+01	
					         3.50000	-2.40000e+01	
					         3.50167	-2.30000e+01	
					         3.50333	-2.20000e+01	
					         3.50500	-2.20000e+01	
					         3.50667	-2.10000e+01	
					         3.50833	-2.00000e+01	
					         3.51000	-1.90000e+01	
					         3.51167	-1.80000e+01	
					         3.51333	-1.80000e+01	
					         3.51500	-1.80000e+01	
					         3.51667	-1.90000e+01	
					         3.51833	-2.00000e+01	
					         3.52000	-2.20000e+01	
					         3.52167	-2.40000e+01	
					         3.52333	-2.60000e+01	
					         3.52500	-2.80000e+01	
					         3.52667	-3.00000e+01	
					         3.52833	-3.20000e+01	
					         3.53000	-3.40000e+01	
					         3.53167	-3.50000e+01	
					         3.53333	-3.60000e+01	
					         3.53500	-3.70000e+01	
					         3.53667	-3.70000e+01	
					         3.53833	-3.70000e+01	
					         3.54000	-3.60000e+01	
					         3.54167	-3.50000e+01	
					         3.54333	-3.30000e+01	
					         3.54500	-3.20000e+01	
					         3.54667	-3.00000e+01	
					         3.54833	-2.80000e+01	
					         3.55000	-2.60000e+01	
					         3.55167	-2.40000e+01	
					         3.55333	-2.30000e+01	
					         3.55500	-2.10000e+01	
					         3.55667	-1.90000e+01	
					         3.55833	-1.80000e+01	
					         3.56000	-1.50000e+01	
					         3.56167	-1.20000e+01	
					         3.56333	-8.00000e+00	
					         3.56500	-3.00000e+00	
					         3.56667	4.00000e+00	
					         3.56833	1.20000e+01	
					         3.57000	2.30000e+01	
					         3.57167	3.50000e+01	
					         3.57333	5.00000e+01	
					         3.57500	6.70000e+01	
					         3.57667	8.60000e+01	
					         3.57833	1.08000e+02	
					         3.58000	1.31000e+02	
					         3.58167	1.57000e+02	
					         3.58333	1.83000e+02	
					         3.58500	2.10000e+02	
					         3.58667	2.37000e+02	
					         3.58833	2.62000e+02	
					         3.59000	2.85000e+02	
					         3.59167	3.04000e+02	
					         3.59333	3.16000e+02	
					         3.59500	3.22000e+02	
					         3.59667	3.20000e+02	
					         3.59833	3.09000e+02	
					         3.60000	2.88000e+02	
					         3.60167	2.59000e+02	
					         3.60333	2.21000e+02	
					         3.60500	1.75000e+02	
					         3.60667	1.22000e+02	
					         3.60833	6.40000e+01	
					         3.61000	2.00000e+00	
					         3.61167	-6.00000e+01	
					         3.61333	-1.22000e+02	
					         3.61500	-1.81000e+02	
					         3.61667	-2.36000e+02	
					         3.61833	-2.85000e+02	
					         3.62000	-3.28000e+02	
					         3.62167	-3.64000e+02	
					         3.62333	-3.92000e+02	
					         3.62500	-4.14000e+02	
					         3.62667	-4.28000e+02	
					         3.62833	-4.36000e+02	
					         3.63000	-4.39000e+02	
					         3.63167	-4.35000e+02	
					         3.63333	-4.28000e+02	
					         3.63500	-4.16000e+02	
					         3.63667	-4.00000e+02	
					         3.63833	-3.82000e+02	
					         3.64000	-3.62000e+02	
					         3.64167	-3.40000e+02	
					         3.64333	-3.16000e+02	
