Grayscale intensity, in dB

Time (s) :	Trace 1 : 	Trace 2 : 	Trace 3 : 		Ecg : 		
0.00170   	-2.88398e+01	-3.56658e+01	-3.88972e+01		         0.00000	-4.10000e+01	
0.01835   	-3.16971e+01	-3.49533e+01	-3.70791e+01		         0.00167	-5.60000e+01	
0.03500   	-3.47683e+01	-3.53551e+01	-3.59508e+01		         0.00333	-7.00000e+01	
0.05165   	-3.54591e+01	-3.35974e+01	-3.71427e+01		         0.00500	-8.00000e+01	
0.06832   	-3.47928e+01	-3.00989e+01	-3.75064e+01		         0.00667	-8.80000e+01	
0.08497   	-3.20432e+01	-3.10047e+01	-3.86987e+01		         0.00833	-9.20000e+01	
0.10161   	-3.03859e+01	-2.90441e+01	-3.64317e+01		         0.01000	-9.30000e+01	
0.11826   	-3.10774e+01	-2.76261e+01	-3.81776e+01		         0.01167	-9.20000e+01	
0.13492   	-3.15450e+01	-2.65411e+01	-3.68471e+01		         0.01333	-8.80000e+01	
0.15158   	-3.19487e+01	-2.77824e+01	-3.64294e+01		         0.01500	-8.30000e+01	
0.16822   	-3.23600e+01	-2.91980e+01	-3.72253e+01		         0.01667	-7.60000e+01	
0.18488   	-3.22296e+01	-3.06937e+01	-3.50241e+01		         0.01833	-6.80000e+01	
0.20153   	-3.23101e+01	-3.12166e+01	-3.64838e+01		         0.02000	-6.00000e+01	
0.21818   	-3.37528e+01	-3.44908e+01	-3.54509e+01		         0.02167	-5.10000e+01	
0.23483   	-3.43603e+01	-3.45800e+01	-3.49659e+01		         0.02333	-4.30000e+01	
0.25148   	-3.44198e+01	-3.46254e+01	-3.72994e+01		         0.02500	-3.60000e+01	
0.26814   	-3.49071e+01	-3.60348e+01	-3.73449e+01		         0.02667	-2.90000e+01	
0.28479   	-3.57706e+01	-3.78460e+01	-3.71752e+01		         0.02833	-2.20000e+01	
0.30144   	-3.64598e+01	-3.69162e+01	-3.73754e+01		         0.03000	-1.70000e+01	
0.31809   	-3.69819e+01	-4.06940e+01	-3.65710e+01		         0.03167	-1.20000e+01	
0.33475   	-3.75600e+01	-4.31141e+01	-3.56240e+01		         0.03333	-8.00000e+00	
0.35140   	-3.81437e+01	-4.31676e+01	-3.56093e+01		         0.03500	-4.00000e+00	
0.36805   	-3.88811e+01	-4.64613e+01	-3.56309e+01		         0.03667	-2.00000e+00	
0.38471   	-3.89542e+01	-4.59127e+01	-3.77426e+01		         0.03833	0.00000e+00	
0.40136   	-3.92150e+01	-4.53119e+01	-3.64523e+01		         0.04000	1.00000e+00	
0.41801   	-3.84744e+01	-4.42663e+01	-3.75701e+01		         0.04167	2.00000e+00	
0.43466   	-3.85715e+01	-4.28334e+01	-3.56843e+01		         0.04333	3.00000e+00	
0.45131   	-3.89715e+01	-4.48554e+01	-3.71913e+01		         0.04500	3.00000e+00	
0.46797   	-3.74320e+01	-4.32327e+01	-3.46063e+01		         0.04667	3.00000e+00	
0.48462   	-3.69613e+01	-4.27775e+01	-3.45158e+01		         0.04833	2.00000e+00	
0.50127   	-3.75132e+01	-4.08143e+01	-3.24467e+01		         0.05000	2.00000e+00	
0.51793   	-3.61595e+01	-4.12342e+01	-3.34773e+01		         0.05167	1.00000e+00	
0.53458   	-3.65885e+01	-4.26389e+01	-3.52273e+01		         0.05333	0.00000e+00	
0.55123   	-3.68976e+01	-4.53192e+01	-3.67928e+01		         0.05500	0.00000e+00	
0.56788   	-3.75021e+01	-4.64761e+01	-3.55911e+01		         0.05667	-1.00000e+00	
0.58453   	-3.61871e+01	-4.53438e+01	-3.65080e+01		         0.05833	-1.00000e+00	
0.60119   	-3.56509e+01	-4.50634e+01	-3.83179e+01		         0.06000	-1.00000e+00	
0.61784   	-3.47177e+01	-4.36936e+01	-3.76386e+01		         0.06167	-1.00000e+00	
0.63449   	-3.31701e+01	-4.05616e+01	-3.82459e+01		         0.06333	-1.00000e+00	
0.65114   	-3.23359e+01	-3.87517e+01	-3.64296e+01		         0.06500	-1.00000e+00	
0.66781   	-3.25104e+01	-3.72823e+01	-3.73375e+01		         0.06667	0.00000e+00	
0.68445   	-3.28959e+01	-3.71963e+01	-3.66770e+01		         0.06833	0.00000e+00	
0.70111   	-3.30985e+01	-3.79061e+01	-3.51953e+01		         0.07000	1.00000e+00	
0.71775   	-3.28592e+01	-3.80902e+01	-3.53668e+01		         0.07167	1.00000e+00	
0.73441   	-3.24306e+01	-3.65159e+01	-3.47637e+01		         0.07333	2.00000e+00	
0.75106   	-3.23231e+01	-3.71513e+01	-3.39572e+01		         0.07500	2.00000e+00	
0.76770   	-3.45742e+01	-4.06970e+01	-3.81487e+01		         0.07667	2.00000e+00	
0.78436   	-3.47885e+01	-4.03777e+01	-3.74502e+01		         0.07833	2.00000e+00	
0.80102   	-3.49661e+01	-4.00040e+01	-3.72877e+01		         0.08000	2.00000e+00	
0.81767   	-3.50007e+01	-4.01807e+01	-3.64862e+01		         0.08167	2.00000e+00	
0.83432   	-3.48888e+01	-3.98839e+01	-3.71448e+01		         0.08333	2.00000e+00	
0.85097   	-3.49125e+01	-4.00976e+01	-3.63698e+01		         0.08500	2.00000e+00	
0.86764   	-3.47871e+01	-4.01686e+01	-3.60359e+01		         0.08667	2.00000e+00	
0.88428   	-3.48093e+01	-4.02644e+01	-3.60507e+01		         0.08833	2.00000e+00	
0.90093   	-3.48190e+01	-3.98774e+01	-3.62479e+01		         0.09000	2.00000e+00	
0.91758   	-3.47406e+01	-3.90807e+01	-3.65078e+01		         0.09167	2.00000e+00	
0.93424   	-3.47619e+01	-3.86515e+01	-3.69095e+01		         0.09333	2.00000e+00	
0.95089   	-3.47198e+01	-3.85439e+01	-3.71675e+01		         0.09500	3.00000e+00	
0.96754   	-3.46775e+01	-3.87919e+01	-3.74616e+01		         0.09667	4.00000e+00	
0.98419   	-3.46601e+01	-3.83920e+01	-3.77329e+01		         0.09833	5.00000e+00	
1.00085   	-3.46560e+01	-3.83614e+01	-3.77687e+01		         0.10000	6.00000e+00	
1.01750   	-3.46680e+01	-3.90631e+01	-3.78529e+01		         0.10167	7.00000e+00	
1.03415   	-3.46155e+01	-3.85041e+01	-3.78590e+01		         0.10333	8.00000e+00	
1.05080   	-3.45947e+01	-3.89843e+01	-3.78259e+01		         0.10500	9.00000e+00	
1.06746   	-3.46600e+01	-3.84268e+01	-3.78512e+01		         0.10667	9.00000e+00	
1.08411   	-3.45325e+01	-4.00101e+01	-3.78359e+01		         0.10833	1.00000e+01	
1.10076   	-3.45316e+01	-4.11246e+01	-3.79989e+01		         0.11000	1.10000e+01	
1.11741   	-3.50222e+01	-4.06754e+01	-3.86119e+01		         0.11167	1.10000e+01	
1.13407   	-3.40084e+01	-4.06817e+01	-3.98538e+01		         0.11333	1.10000e+01	
1.15072   	-3.38174e+01	-4.14532e+01	-3.93885e+01		         0.11500	1.10000e+01	
1.16737   	-3.27674e+01	-4.27902e+01	-3.83445e+01		         0.11667	1.10000e+01	
1.18403   	-3.28629e+01	-4.31841e+01	-4.05726e+01		         0.11833	1.10000e+01	
1.20067   	-3.35908e+01	-4.28503e+01	-4.16465e+01		         0.12000	1.10000e+01	
1.21733   	-3.52365e+01	-4.36955e+01	-4.12204e+01		         0.12167	1.10000e+01	
1.23398   	-3.59245e+01	-4.21326e+01	-4.04792e+01		         0.12333	1.10000e+01	
1.25063   	-3.73772e+01	-4.12773e+01	-3.87168e+01		         0.12500	1.10000e+01	
1.26729   	-3.77433e+01	-3.82036e+01	-3.92730e+01		         0.12667	1.10000e+01	
1.28394   	-3.68817e+01	-3.55165e+01	-3.97239e+01		         0.12833	1.10000e+01	
1.30059   	-3.65597e+01	-3.57952e+01	-3.86237e+01		         0.13000	1.10000e+01	
1.31725   	-3.68283e+01	-3.39791e+01	-3.75017e+01		         0.13167	1.20000e+01	
1.33390   	-3.69178e+01	-3.37966e+01	-3.86546e+01		         0.13333	1.20000e+01	
1.35055   	-3.59775e+01	-3.41401e+01	-3.90383e+01		         0.13500	1.30000e+01	
1.36720   	-3.61125e+01	-3.60095e+01	-4.05787e+01		         0.13667	1.30000e+01	
1.38386   	-3.68161e+01	-3.59606e+01	-3.81160e+01		         0.13833	1.40000e+01	
1.40051   	-3.71941e+01	-3.71761e+01	-3.87638e+01		         0.14000	1.40000e+01	
1.41716   	-3.76944e+01	-3.79510e+01	-3.61889e+01		         0.14167	1.50000e+01	
1.43381   	-3.80511e+01	-3.95408e+01	-3.83983e+01		         0.14333	1.50000e+01	
1.45047   	-3.84044e+01	-4.09525e+01	-3.65012e+01		         0.14500	1.50000e+01	
1.46712   	-3.88437e+01	-4.17395e+01	-3.78528e+01		         0.14667	1.50000e+01	
1.48377   	-3.97220e+01	-4.19279e+01	-3.94813e+01		         0.14833	1.60000e+01	
1.50042   	-4.05392e+01	-4.23627e+01	-3.72642e+01		         0.15000	1.60000e+01	
1.51707   	-4.10636e+01	-4.48118e+01	-3.85275e+01		         0.15167	1.70000e+01	
1.53373   	-4.16116e+01	-4.76849e+01	-3.67668e+01		         0.15333	1.70000e+01	
1.55038   	-4.18273e+01	-4.75270e+01	-3.49498e+01		         0.15500	1.80000e+01	
1.56703   	-4.21008e+01	-4.92717e+01	-3.44193e+01		         0.15667	1.90000e+01	
1.58369   	-4.24725e+01	-5.04492e+01	-3.43447e+01		         0.15833	2.00000e+01	
1.60034   	-4.20586e+01	-5.12415e+01	-3.77544e+01		         0.16000	2.00000e+01	
1.61699   	-4.26560e+01	-5.11987e+01	-3.83630e+01		         0.16167	2.10000e+01	
1.63364   	-4.20972e+01	-5.04559e+01	-3.79074e+01		         0.16333	2.30000e+01	
1.65030   	-4.24569e+01	-5.10727e+01	-3.77414e+01		         0.16500	2.40000e+01	
1.66695   	-4.20749e+01	-4.98689e+01	-3.59411e+01		         0.16667	2.50000e+01	
1.68360   	-4.05511e+01	-4.84184e+01	-3.49244e+01		         0.16833	2.60000e+01	
1.70025   	-4.06419e+01	-4.67297e+01	-3.60024e+01		         0.17000	2.70000e+01	
1.71690   	-4.10075e+01	-4.65003e+01	-3.53085e+01		         0.17167	2.80000e+01	
1.73356   	-4.03479e+01	-4.61803e+01	-3.72222e+01		         0.17333	2.90000e+01	
1.75021   	-4.03358e+01	-4.48798e+01	-3.78986e+01		         0.17500	3.00000e+01	
1.76686   	-4.33644e+01	-4.73493e+01	-4.09853e+01		         0.17667	3.10000e+01	
1.78351   	-4.38224e+01	-4.90696e+01	-3.95552e+01		         0.17833	3.20000e+01	
1.80016   	-4.28926e+01	-5.07869e+01	-4.09044e+01		         0.18000	3.30000e+01	
1.81682   	-4.12053e+01	-5.18590e+01	-4.18008e+01		         0.18167	3.40000e+01	
1.83347   	-3.92844e+01	-5.05964e+01	-4.09842e+01		         0.18333	3.50000e+01	
1.85013   	-3.78722e+01	-4.74298e+01	-4.03031e+01		         0.18500	3.60000e+01	
1.86677   	-3.65020e+01	-4.41220e+01	-4.15975e+01		         0.18667	3.80000e+01	
1.88343   	-3.63208e+01	-4.32230e+01	-4.10059e+01		         0.18833	3.90000e+01	
1.90009   	-3.63780e+01	-4.20201e+01	-4.11753e+01		         0.19000	4.00000e+01	
1.91674   	-3.66906e+01	-4.16977e+01	-4.05768e+01		         0.19167	4.20000e+01	
1.93338   	-3.69452e+01	-4.23048e+01	-4.03433e+01		         0.19333	4.40000e+01	
1.95004   	-3.70883e+01	-4.23729e+01	-3.97814e+01		         0.19500	4.50000e+01	
1.96669   	-3.72373e+01	-4.24073e+01	-3.79622e+01		         0.19667	4.70000e+01	
1.98334   	-3.75262e+01	-4.39034e+01	-3.86768e+01		         0.19833	4.90000e+01	
2.00000   	-3.77632e+01	-4.47013e+01	-3.86525e+01		         0.20000	5.10000e+01	
2.01665   	-3.80584e+01	-4.41482e+01	-3.88662e+01		         0.20167	5.30000e+01	
2.03330   	-3.81805e+01	-4.49764e+01	-3.92419e+01		         0.20333	5.50000e+01	
2.04995   	-3.82199e+01	-4.48756e+01	-3.91692e+01		         0.20500	5.70000e+01	
2.06660   	-3.82519e+01	-4.46173e+01	-3.95774e+01		         0.20667	5.80000e+01	
2.08327   	-3.83089e+01	-4.47047e+01	-3.90834e+01		         0.20833	6.00000e+01	
2.09991   	-3.83326e+01	-4.45145e+01	-3.89199e+01		         0.21000	6.10000e+01	
2.11655   	-3.82790e+01	-4.43928e+01	-3.88635e+01		         0.21167	6.20000e+01	
2.13321   	-3.82609e+01	-4.36776e+01	-3.89134e+01		         0.21333	6.20000e+01	
2.14987   	-3.80567e+01	-4.34711e+01	-3.90122e+01		         0.21500	6.30000e+01	
2.16652   	-3.78595e+01	-4.30268e+01	-3.91448e+01		         0.21667	6.30000e+01	
2.18317   	-3.77839e+01	-4.29468e+01	-3.91256e+01		         0.21833	6.40000e+01	
2.19982   	-3.76832e+01	-4.33021e+01	-3.89095e+01		         0.22000	6.40000e+01	
2.21648   	-3.76809e+01	-4.32489e+01	-3.88755e+01		         0.22167	6.50000e+01	
2.23314   	-3.76751e+01	-4.33209e+01	-3.89049e+01		         0.22333	6.50000e+01	
2.24978   	-3.76279e+01	-4.37425e+01	-3.89562e+01		         0.22500	6.60000e+01	
2.26643   	-3.76008e+01	-4.34655e+01	-3.89690e+01		         0.22667	6.70000e+01	
2.28309   	-3.76188e+01	-4.32689e+01	-3.91067e+01		         0.22833	6.70000e+01	
2.29975   	-3.75704e+01	-4.32809e+01	-3.92460e+01		         0.23000	6.80000e+01	
2.31639   	-3.76226e+01	-4.34941e+01	-3.92857e+01		         0.23167	6.80000e+01	
2.33304   	-3.75959e+01	-4.40580e+01	-3.90003e+01		         0.23333	6.90000e+01	
2.34970   	-3.73356e+01	-4.61804e+01	-3.87541e+01		         0.23500	6.90000e+01	
2.36635   	-3.68089e+01	-4.65389e+01	-3.84514e+01		         0.23667	6.90000e+01	
2.38300   	-3.65850e+01	-4.62761e+01	-3.94451e+01		         0.23833	6.80000e+01	
2.39965   	-3.60517e+01	-4.56785e+01	-3.87079e+01		         0.24000	6.80000e+01	
2.41630   	-3.53503e+01	-4.60152e+01	-3.96260e+01		         0.24167	6.70000e+01	
2.43296   	-3.48293e+01	-4.65757e+01	-4.01654e+01		         0.24333	6.60000e+01	
2.44961   	-3.49689e+01	-4.83423e+01	-4.09090e+01		         0.24500	6.40000e+01	
2.46627   	-3.52248e+01	-4.78182e+01	-3.98163e+01		         0.24667	6.20000e+01	
2.48291   	-3.72451e+01	-4.77807e+01	-4.11722e+01		         0.24833	6.00000e+01	
2.49956   	-3.88447e+01	-4.68739e+01	-4.07173e+01		         0.25000	5.80000e+01	
2.51622   	-4.12822e+01	-4.50951e+01	-3.97918e+01		         0.25167	5.60000e+01	
2.53287   	-4.02313e+01	-4.22292e+01	-3.90504e+01		         0.25333	5.30000e+01	
2.54953   	-3.86637e+01	-4.10951e+01	-3.99301e+01		         0.25500	5.10000e+01	
2.56619   	-3.81085e+01	-3.88255e+01	-3.88135e+01		         0.25667	4.80000e+01	
2.58283   	-3.85978e+01	-3.77924e+01	-3.97211e+01		         0.25833	4.50000e+01	
2.59948   	-3.84314e+01	-3.88099e+01	-4.12039e+01		         0.26000	4.20000e+01	
2.61614   	-3.91663e+01	-3.91752e+01	-4.03129e+01		         0.26167	3.90000e+01	
2.63279   	-4.00813e+01	-4.26289e+01	-4.00039e+01		         0.26333	3.70000e+01	
2.64944   	-4.07104e+01	-4.12075e+01	-4.06802e+01		         0.26500	3.40000e+01	
2.66610   	-4.11333e+01	-4.39129e+01	-4.06882e+01		         0.26667	3.10000e+01	
2.68275   	-4.12765e+01	-4.60890e+01	-3.97157e+01		         0.26833	2.70000e+01	
2.69940   	-4.11316e+01	-4.73219e+01	-4.12286e+01		         0.27000	2.40000e+01	
2.71605   	-4.14073e+01	-4.94943e+01	-3.97739e+01		         0.27167	2.10000e+01	
2.73270   	-4.23439e+01	-4.95145e+01	-4.03720e+01		         0.27333	1.70000e+01	
2.74936   	-4.30353e+01	-5.13399e+01	-3.94333e+01		         0.27500	1.40000e+01	
2.76601   	-4.38527e+01	-5.28266e+01	-3.89131e+01		         0.27667	1.00000e+01	
2.78266   	-4.46672e+01	-5.47823e+01	-3.94890e+01		         0.27833	7.00000e+00	
2.79932   	-4.51817e+01	-5.55027e+01	-3.79829e+01		         0.28000	3.00000e+00	
2.81598   	-4.54933e+01	-5.71867e+01	-3.79935e+01		         0.28167	0.00000e+00	
2.83261   	-4.57131e+01	-5.68245e+01	-3.71794e+01		         0.28333	-4.00000e+00	
2.84927   	-4.53578e+01	-5.72054e+01	-3.65702e+01		         0.28500	-8.00000e+00	
2.86592   	-4.59045e+01	-5.66278e+01	-3.66525e+01		         0.28667	-1.20000e+01	
2.88257   	-4.62307e+01	-5.70142e+01	-3.71315e+01		         0.28833	-1.60000e+01	
2.89922   	-4.60064e+01	-5.64064e+01	-3.79727e+01		         0.29000	-1.90000e+01	
2.91588   	-4.49336e+01	-5.58338e+01	-3.62625e+01		         0.29167	-2.30000e+01	
2.93253   	-4.54159e+01	-5.53222e+01	-3.52638e+01		         0.29333	-2.60000e+01	
2.94918   	-4.60085e+01	-5.57275e+01	-3.64238e+01		         0.29500	-2.90000e+01	
2.96583   	-4.79411e+01	-5.46615e+01	-3.67255e+01		         0.29667	-3.30000e+01	
2.98249   	-4.79111e+01	-5.32272e+01	-3.62054e+01		         0.29833	-3.60000e+01	
2.99914   	-4.53652e+01	-5.19781e+01	-3.78075e+01		         0.30000	-3.80000e+01	
3.01579   	-4.39546e+01	-5.04466e+01	-3.82050e+01		         0.30167	-4.10000e+01	
3.03244   	-4.51134e+01	-5.06114e+01	-3.89637e+01		         0.30333	-4.30000e+01	
3.04910   	-4.50888e+01	-5.07194e+01	-3.79269e+01		         0.30500	-4.60000e+01	
3.06575   	-4.42169e+01	-5.32240e+01	-4.00397e+01		         0.30667	-4.80000e+01	
3.08240   	-4.25527e+01	-5.57526e+01	-3.90566e+01		         0.30833	-4.90000e+01	
3.09905   	-4.04145e+01	-5.53905e+01	-3.93391e+01		         0.31000	-5.10000e+01	
3.11571   	-3.83164e+01	-5.25642e+01	-3.95385e+01		         0.31167	-5.20000e+01	
3.13236   	-3.74219e+01	-5.01842e+01	-4.04669e+01		         0.31333	-5.40000e+01	
3.14901   	-3.73922e+01	-4.92191e+01	-4.00624e+01		         0.31500	-5.50000e+01	
3.16566   	-3.72981e+01	-4.77936e+01	-4.02554e+01		         0.31667	-5.60000e+01	
3.18232   	-3.74557e+01	-4.71514e+01	-3.81842e+01		         0.31833	-5.60000e+01	
3.19897   	-3.79417e+01	-4.74138e+01	-3.82991e+01		         0.32000	-5.70000e+01	
3.21562   	-3.83627e+01	-4.76509e+01	-3.73715e+01		         0.32167	-5.70000e+01	
3.23227   	-3.88000e+01	-4.82379e+01	-3.82336e+01		         0.32333	-5.70000e+01	
3.24893   	-3.90714e+01	-4.83824e+01	-3.84930e+01		         0.32500	-5.70000e+01	
3.26558   	-3.93932e+01	-4.88463e+01	-3.85859e+01		         0.32667	-5.70000e+01	
3.28223   	-3.96466e+01	-4.82287e+01	-3.96980e+01		         0.32833	-5.70000e+01	
3.29888   	-3.98263e+01	-4.97448e+01	-3.91986e+01		         0.33000	-5.70000e+01	
3.31554   	-3.99741e+01	-4.83204e+01	-3.95938e+01		         0.33167	-5.70000e+01	
3.33219   	-3.99779e+01	-4.85685e+01	-3.94031e+01		         0.33333	-5.60000e+01	
3.34884   	-3.98606e+01	-4.83290e+01	-3.98262e+01		         0.33500	-5.60000e+01	
3.36549   	-3.97900e+01	-4.79045e+01	-4.00189e+01		         0.33667	-5.50000e+01	
3.38214   	-3.96509e+01	-4.78303e+01	-4.00250e+01		         0.33833	-5.40000e+01	
3.39880   	-3.94954e+01	-4.68885e+01	-3.99466e+01		         0.34000	-5.40000e+01	
3.41545   	-3.92015e+01	-4.66801e+01	-3.97351e+01		         0.34167	-5.30000e+01	
3.43210   	-3.90700e+01	-4.67618e+01	-3.95984e+01		         0.34333	-5.20000e+01	
3.44875   	-3.88744e+01	-4.65518e+01	-3.94225e+01		         0.34500	-5.20000e+01	
3.46541   	-3.87884e+01	-4.68866e+01	-3.91967e+01		         0.34667	-5.10000e+01	
3.48206   	-3.86960e+01	-4.60466e+01	-3.89876e+01		         0.34833	-5.10000e+01	
3.49871   	-3.85737e+01	-4.74519e+01	-3.88474e+01		         0.35000	-5.00000e+01	
3.51536   	-3.81798e+01	-4.79527e+01	-3.87091e+01		         0.35167	-5.00000e+01	
3.53202   	-3.72945e+01	-4.88684e+01	-3.80145e+01		         0.35333	-4.90000e+01	
3.54866   	-3.72680e+01	-4.87985e+01	-3.81612e+01		         0.35500	-4.90000e+01	
3.56532   	-3.62703e+01	-4.74017e+01	-3.88322e+01		         0.35667	-4.80000e+01	
3.58197   	-3.50788e+01	-4.90129e+01	-3.90967e+01		         0.35833	-4.70000e+01	
3.59863   	-3.47117e+01	-4.72626e+01	-4.02855e+01		         0.36000	-4.60000e+01	
3.61528   	-3.47276e+01	-4.95338e+01	-4.07009e+01		         0.36167	-4.50000e+01	
3.63193   	-3.52252e+01	-4.84756e+01	-3.97937e+01		         0.36333	-4.40000e+01	
3.64859   	-3.82207e+01	-4.84855e+01	-4.05469e+01		         0.36500	-4.30000e+01	
3.66525   	-4.01910e+01	-4.76149e+01	-3.95835e+01		         0.36667	-4.20000e+01	
					         0.36833	-4.10000e+01	
					         0.37000	-3.90000e+01	
					         0.37167	-3.80000e+01	
					         0.37333	-3.70000e+01	
					         0.37500	-3.60000e+01	
					         0.37667	-3.50000e+01	
					         0.37833	-3.40000e+01	
					         0.38000	-3.30000e+01	
					         0.38167	-3.20000e+01	
					         0.38333	-3.10000e+01	
					         0.38500	-3.00000e+01	
					         0.38667	-2.90000e+01	
					         0.38833	-2.80000e+01	
					         0.39000	-2.70000e+01	
					         0.39167	-2.60000e+01	
					         0.39333	-2.40000e+01	
					         0.39500	-2.30000e+01	
					         0.39667	-2.30000e+01	
					         0.39833	-2.20000e+01	
					         0.40000	-2.10000e+01	
					         0.40167	-2.00000e+01	
					         0.40333	-2.00000e+01	
					         0.40500	-2.00000e+01	
					         0.40667	-1.90000e+01	
					         0.40833	-1.90000e+01	
					         0.41000	-1.90000e+01	
					         0.41167	-1.90000e+01	
					         0.41333	-1.90000e+01	
					         0.41500	-1.80000e+01	
					         0.41667	-1.80000e+01	
					         0.41833	-1.80000e+01	
					         0.42000	-1.80000e+01	
					         0.42167	-1.80000e+01	
					         0.42333	-1.70000e+01	
					         0.42500	-1.70000e+01	
					         0.42667	-1.70000e+01	
					         0.42833	-1.60000e+01	
					         0.43000	-1.60000e+01	
					         0.43167	-1.50000e+01	
					         0.43333	-1.40000e+01	
					         0.43500	-1.30000e+01	
					         0.43667	-1.20000e+01	
					         0.43833	-1.10000e+01	
					         0.44000	-9.00000e+00	
					         0.44167	-8.00000e+00	
					         0.44333	-7.00000e+00	
					         0.44500	-6.00000e+00	
					         0.44667	-4.00000e+00	
					         0.44833	-3.00000e+00	
					         0.45000	-2.00000e+00	
					         0.45167	-2.00000e+00	
					         0.45333	-1.00000e+00	
					         0.45500	-1.00000e+00	
					         0.45667	-1.00000e+00	
					         0.45833	-1.00000e+00	
					         0.46000	-1.00000e+00	
					         0.46167	-1.00000e+00	
					         0.46333	-1.00000e+00	
					         0.46500	-1.00000e+00	
					         0.46667	-1.00000e+00	
					         0.46833	-1.00000e+00	
					         0.47000	-1.00000e+00	
					         0.47167	-2.00000e+00	
					         0.47333	-2.00000e+00	
					         0.47500	-2.00000e+00	
					         0.47667	-1.00000e+00	
					         0.47833	-1.00000e+00	
					         0.48000	-1.00000e+00	
					         0.48167	-1.00000e+00	
					         0.48333	-1.00000e+00	
					         0.48500	-1.00000e+00	
					         0.48667	-1.00000e+00	
					         0.48833	-1.00000e+00	
					         0.49000	-1.00000e+00	
					         0.49167	-1.00000e+00	
					         0.49333	-2.00000e+00	
					         0.49500	-2.00000e+00	
					         0.49667	-2.00000e+00	
					         0.49833	-3.00000e+00	
					         0.50000	-3.00000e+00	
					         0.50167	-3.00000e+00	
					         0.50333	-4.00000e+00	
					         0.50500	-4.00000e+00	
					         0.50667	-4.00000e+00	
					         0.50833	-4.00000e+00	
					         0.51000	-4.00000e+00	
					         0.51167	-5.00000e+00	
					         0.51333	-5.00000e+00	
					         0.51500	-5.00000e+00	
					         0.51667	-5.00000e+00	
					         0.51833	-4.00000e+00	
					         0.52000	-4.00000e+00	
					         0.52167	-4.00000e+00	
					         0.52333	-3.00000e+00	
					         0.52500	-3.00000e+00	
					         0.52667	-2.00000e+00	
					         0.52833	-2.00000e+00	
					         0.53000	-1.00000e+00	
					         0.53167	-1.00000e+00	
					         0.53333	-1.00000e+00	
					         0.53500	0.00000e+00	
					         0.53667	0.00000e+00	
					         0.53833	0.00000e+00	
					         0.54000	0.00000e+00	
					         0.54167	1.00000e+00	
					         0.54333	1.00000e+00	
					         0.54500	1.00000e+00	
					         0.54667	1.00000e+00	
					         0.54833	2.00000e+00	
					         0.55000	2.00000e+00	
					         0.55167	2.00000e+00	
					         0.55333	3.00000e+00	
					         0.55500	3.00000e+00	
					         0.55667	3.00000e+00	
					         0.55833	3.00000e+00	
					         0.56000	4.00000e+00	
					         0.56167	4.00000e+00	
					         0.56333	4.00000e+00	
					         0.56500	3.00000e+00	
					         0.56667	3.00000e+00	
					         0.56833	2.00000e+00	
					         0.57000	2.00000e+00	
					         0.57167	1.00000e+00	
					         0.57333	0.00000e+00	
					         0.57500	0.00000e+00	
					         0.57667	-1.00000e+00	
					         0.57833	-1.00000e+00	
					         0.58000	-1.00000e+00	
					         0.58167	-1.00000e+00	
					         0.58333	-1.00000e+00	
					         0.58500	0.00000e+00	
					         0.58667	0.00000e+00	
					         0.58833	1.00000e+00	
					         0.59000	1.00000e+00	
					         0.59167	2.00000e+00	
					         0.59333	3.00000e+00	
					         0.59500	3.00000e+00	
					         0.59667	4.00000e+00	
					         0.59833	4.00000e+00	
					         0.60000	4.00000e+00	
					         0.60167	5.00000e+00	
					         0.60333	5.00000e+00	
					         0.60500	5.00000e+00	
					         0.60667	5.00000e+00	
					         0.60833	5.00000e+00	
					         0.61000	5.00000e+00	
					         0.61167	5.00000e+00	
					         0.61333	5.00000e+00	
					         0.61500	5.00000e+00	
					         0.61667	5.00000e+00	
					         0.61833	5.00000e+00	
					         0.62000	5.00000e+00	
					         0.62167	5.00000e+00	
					         0.62333	6.00000e+00	
					         0.62500	6.00000e+00	
					         0.62667	6.00000e+00	
					         0.62833	5.00000e+00	
					         0.63000	5.00000e+00	
					         0.63167	5.00000e+00	
					         0.63333	4.00000e+00	
					         0.63500	4.00000e+00	
					         0.63667	4.00000e+00	
					         0.63833	4.00000e+00	
					         0.64000	4.00000e+00	
					         0.64167	4.00000e+00	
					         0.64333	5.00000e+00	
					         0.64500	5.00000e+00	
					         0.64667	6.00000e+00	
					         0.64833	6.00000e+00	
					         0.65000	7.00000e+00	
					         0.65167	7.00000e+00	
					         0.65333	7.00000e+00	
					         0.65500	8.00000e+00	
					         0.65667	8.00000e+00	
					         0.65833	8.00000e+00	
					         0.66000	8.00000e+00	
					         0.66167	8.00000e+00	
					         0.66333	8.00000e+00	
					         0.66500	8.00000e+00	
					         0.66667	8.00000e+00	
					         0.66833	9.00000e+00	
					         0.67000	9.00000e+00	
					         0.67167	9.00000e+00	
					         0.67333	9.00000e+00	
					         0.67500	1.00000e+01	
					         0.67667	1.00000e+01	
					         0.67833	1.00000e+01	
					         0.68000	1.00000e+01	
					         0.68167	1.00000e+01	
					         0.68333	1.00000e+01	
					         0.68500	1.00000e+01	
					         0.68667	9.00000e+00	
					         0.68833	9.00000e+00	
					         0.69000	9.00000e+00	
					         0.69167	9.00000e+00	
					         0.69333	9.00000e+00	
					         0.69500	9.00000e+00	
					         0.69667	8.00000e+00	
					         0.69833	8.00000e+00	
					         0.70000	8.00000e+00	
					         0.70167	7.00000e+00	
					         0.70333	7.00000e+00	
					         0.70500	7.00000e+00	
					         0.70667	7.00000e+00	
					         0.70833	6.00000e+00	
					         0.71000	6.00000e+00	
					         0.71167	6.00000e+00	
					         0.71333	6.00000e+00	
					         0.71500	5.00000e+00	
					         0.71667	5.00000e+00	
					         0.71833	5.00000e+00	
					         0.72000	5.00000e+00	
					         0.72167	5.00000e+00	
					         0.72333	5.00000e+00	
					         0.72500	5.00000e+00	
					         0.72667	5.00000e+00	
					         0.72833	6.00000e+00	
					         0.73000	6.00000e+00	
					         0.73167	6.00000e+00	
					         0.73333	7.00000e+00	
					         0.73500	7.00000e+00	
					         0.73667	7.00000e+00	
					         0.73833	8.00000e+00	
					         0.74000	8.00000e+00	
					         0.74167	8.00000e+00	
					         0.74333	9.00000e+00	
					         0.74500	9.00000e+00	
					         0.74667	9.00000e+00	
					         0.74833	1.00000e+01	
					         0.75000	1.00000e+01	
					         0.75167	1.00000e+01	
					         0.75333	1.00000e+01	
					         0.75500	1.00000e+01	
					         0.75667	1.00000e+01	
					         0.75833	1.10000e+01	
					         0.76000	1.10000e+01	
					         0.76167	1.10000e+01	
					         0.76333	1.20000e+01	
					         0.76500	1.20000e+01	
					         0.76667	1.20000e+01	
					         0.76833	1.20000e+01	
					         0.77000	1.10000e+01	
					         0.77167	1.10000e+01	
					         0.77333	1.00000e+01	
					         0.77500	1.00000e+01	
					         0.77667	9.00000e+00	
					         0.77833	9.00000e+00	
					         0.78000	8.00000e+00	
					         0.78167	8.00000e+00	
					         0.78333	7.00000e+00	
					         0.78500	7.00000e+00	
					         0.78667	6.00000e+00	
					         0.78833	6.00000e+00	
					         0.79000	6.00000e+00	
					         0.79167	6.00000e+00	
					         0.79333	5.00000e+00	
					         0.79500	5.00000e+00	
					         0.79667	5.00000e+00	
					         0.79833	5.00000e+00	
					         0.80000	5.00000e+00	
					         0.80167	4.00000e+00	
					         0.80333	4.00000e+00	
					         0.80500	4.00000e+00	
					         0.80667	4.00000e+00	
					         0.80833	4.00000e+00	
					         0.81000	4.00000e+00	
					         0.81167	5.00000e+00	
					         0.81333	5.00000e+00	
					         0.81500	5.00000e+00	
					         0.81667	6.00000e+00	
					         0.81833	6.00000e+00	
					         0.82000	7.00000e+00	
					         0.82167	7.00000e+00	
					         0.82333	8.00000e+00	
					         0.82500	8.00000e+00	
					         0.82667	8.00000e+00	
					         0.82833	8.00000e+00	
					         0.83000	8.00000e+00	
					         0.83167	8.00000e+00	
					         0.83333	8.00000e+00	
					         0.83500	7.00000e+00	
					         0.83667	7.00000e+00	
					         0.83833	6.00000e+00	
					         0.84000	6.00000e+00	
					         0.84167	5.00000e+00	
					         0.84333	5.00000e+00	
					         0.84500	5.00000e+00	
					         0.84667	4.00000e+00	
					         0.84833	4.00000e+00	
					         0.85000	4.00000e+00	
					         0.85167	3.00000e+00	
					         0.85333	3.00000e+00	
					         0.85500	2.00000e+00	
					         0.85667	2.00000e+00	
					         0.85833	2.00000e+00	
					         0.86000	1.00000e+00	
					         0.86167	1.00000e+00	
					         0.86333	1.00000e+00	
					         0.86500	1.00000e+00	
					         0.86667	2.00000e+00	
					         0.86833	2.00000e+00	
					         0.87000	2.00000e+00	
					         0.87167	2.00000e+00	
					         0.87333	2.00000e+00	
					         0.87500	2.00000e+00	
					         0.87667	2.00000e+00	
					         0.87833	2.00000e+00	
					         0.88000	2.00000e+00	
					         0.88167	2.00000e+00	
					         0.88333	1.00000e+00	
					         0.88500	1.00000e+00	
					         0.88667	1.00000e+00	
					         0.88833	1.00000e+00	
					         0.89000	1.00000e+00	
					         0.89167	0.00000e+00	
					         0.89333	0.00000e+00	
					         0.89500	0.00000e+00	
					         0.89667	0.00000e+00	
					         0.89833	0.00000e+00	
					         0.90000	1.00000e+00	
					         0.90167	1.00000e+00	
					         0.90333	1.00000e+00	
					         0.90500	1.00000e+00	
					         0.90667	1.00000e+00	
					         0.90833	1.00000e+00	
					         0.91000	1.00000e+00	
					         0.91167	1.00000e+00	
					         0.91333	1.00000e+00	
					         0.91500	1.00000e+00	
					         0.91667	0.00000e+00	
					         0.91833	0.00000e+00	
					         0.92000	0.00000e+00	
					         0.92167	-1.00000e+00	
					         0.92333	-1.00000e+00	
					         0.92500	-1.00000e+00	
					         0.92667	-1.00000e+00	
					         0.92833	-1.00000e+00	
					         0.93000	-1.00000e+00	
					         0.93167	-2.00000e+00	
					         0.93333	-2.00000e+00	
					         0.93500	-2.00000e+00	
					         0.93667	-3.00000e+00	
					         0.93833	-3.00000e+00	
					         0.94000	-3.00000e+00	
					         0.94167	-3.00000e+00	
					         0.94333	-3.00000e+00	
					         0.94500	-4.00000e+00	
					         0.94667	-4.00000e+00	
					         0.94833	-4.00000e+00	
					         0.95000	-3.00000e+00	
					         0.95167	-3.00000e+00	
					         0.95333	-3.00000e+00	
					         0.95500	-2.00000e+00	
					         0.95667	-2.00000e+00	
					         0.95833	-2.00000e+00	
					         0.96000	-1.00000e+00	
					         0.96167	-1.00000e+00	
					         0.96333	-1.00000e+00	
					         0.96500	0.00000e+00	
					         0.96667	0.00000e+00	
					         0.96833	0.00000e+00	
					         0.97000	-1.00000e+00	
					         0.97167	-1.00000e+00	
					         0.97333	-1.00000e+00	
					         0.97500	-2.00000e+00	
					         0.97667	-3.00000e+00	
					         0.97833	-3.00000e+00	
					         0.98000	-4.00000e+00	
					         0.98167	-5.00000e+00	
					         0.98333	-5.00000e+00	
					         0.98500	-6.00000e+00	
					         0.98667	-7.00000e+00	
					         0.98833	-8.00000e+00	
					         0.99000	-9.00000e+00	
					         0.99167	-1.00000e+01	
					         0.99333	-1.00000e+01	
					         0.99500	-1.10000e+01	
					         0.99667	-1.10000e+01	
					         0.99833	-1.10000e+01	
					         1.00000	-1.10000e+01	
					         1.00167	-1.00000e+01	
					         1.00333	-1.00000e+01	
					         1.00500	-9.00000e+00	
					         1.00667	-9.00000e+00	
					         1.00833	-8.00000e+00	
					         1.01000	-7.00000e+00	
					         1.01167	-7.00000e+00	
					         1.01333	-7.00000e+00	
					         1.01500	-6.00000e+00	
					         1.01667	-6.00000e+00	
					         1.01833	-6.00000e+00	
					         1.02000	-5.00000e+00	
					         1.02167	-5.00000e+00	
					         1.02333	-5.00000e+00	
					         1.02500	-4.00000e+00	
					         1.02667	-3.00000e+00	
					         1.02833	-3.00000e+00	
					         1.03000	-2.00000e+00	
					         1.03167	-1.00000e+00	
					         1.03333	0.00000e+00	
					         1.03500	1.00000e+00	
					         1.03667	2.00000e+00	
					         1.03833	3.00000e+00	
					         1.04000	4.00000e+00	
					         1.04167	5.00000e+00	
					         1.04333	5.00000e+00	
					         1.04500	6.00000e+00	
					         1.04667	7.00000e+00	
					         1.04833	7.00000e+00	
					         1.05000	7.00000e+00	
					         1.05167	7.00000e+00	
					         1.05333	7.00000e+00	
					         1.05500	7.00000e+00	
					         1.05667	6.00000e+00	
					         1.05833	5.00000e+00	
					         1.06000	5.00000e+00	
					         1.06167	4.00000e+00	
					         1.06333	3.00000e+00	
					         1.06500	2.00000e+00	
					         1.06667	0.00000e+00	
					         1.06833	-1.00000e+00	
					         1.07000	-2.00000e+00	
					         1.07167	-3.00000e+00	
					         1.07333	-4.00000e+00	
					         1.07500	-5.00000e+00	
					         1.07667	-6.00000e+00	
					         1.07833	-7.00000e+00	
					         1.08000	-8.00000e+00	
					         1.08167	-9.00000e+00	
					         1.08333	-1.00000e+01	
					         1.08500	-1.00000e+01	
					         1.08667	-1.10000e+01	
					         1.08833	-1.10000e+01	
					         1.09000	-1.20000e+01	
					         1.09167	-1.20000e+01	
					         1.09333	-1.20000e+01	
					         1.09500	-1.20000e+01	
					         1.09667	-1.20000e+01	
					         1.09833	-1.20000e+01	
					         1.10000	-1.20000e+01	
					         1.10167	-1.20000e+01	
					         1.10333	-1.20000e+01	
					         1.10500	-1.20000e+01	
					         1.10667	-1.30000e+01	
					         1.10833	-1.30000e+01	
					         1.11000	-1.30000e+01	
					         1.11167	-1.30000e+01	
					         1.11333	-1.40000e+01	
					         1.11500	-1.40000e+01	
					         1.11667	-1.50000e+01	
					         1.11833	-1.50000e+01	
					         1.12000	-1.50000e+01	
					         1.12167	-1.60000e+01	
					         1.12333	-1.60000e+01	
					         1.12500	-1.60000e+01	
					         1.12667	-1.60000e+01	
					         1.12833	-1.60000e+01	
					         1.13000	-1.60000e+01	
					         1.13167	-1.50000e+01	
					         1.13333	-1.50000e+01	
					         1.13500	-1.50000e+01	
					         1.13667	-1.40000e+01	
					         1.13833	-1.40000e+01	
					         1.14000	-1.40000e+01	
					         1.14167	-1.40000e+01	
					         1.14333	-1.30000e+01	
					         1.14500	-1.30000e+01	
					         1.14667	-1.30000e+01	
					         1.14833	-1.20000e+01	
					         1.15000	-1.20000e+01	
					         1.15167	-1.10000e+01	
					         1.15333	-1.00000e+01	
					         1.15500	-9.00000e+00	
					         1.15667	-8.00000e+00	
					         1.15833	-6.00000e+00	
					         1.16000	-4.00000e+00	
					         1.16167	-1.00000e+00	
					         1.16333	1.00000e+00	
					         1.16500	4.00000e+00	
					         1.16667	7.00000e+00	
					         1.16833	1.10000e+01	
					         1.17000	1.50000e+01	
					         1.17167	1.90000e+01	
					         1.17333	2.40000e+01	
					         1.17500	3.00000e+01	
					         1.17667	3.80000e+01	
					         1.17833	4.60000e+01	
					         1.18000	5.50000e+01	
					         1.18167	6.40000e+01	
					         1.18333	7.50000e+01	
					         1.18500	8.50000e+01	
					         1.18667	9.50000e+01	
					         1.18833	1.04000e+02	
					         1.19000	1.12000e+02	
					         1.19167	1.17000e+02	
					         1.19333	1.20000e+02	
					         1.19500	1.20000e+02	
					         1.19667	1.16000e+02	
					         1.19833	1.08000e+02	
					         1.20000	9.80000e+01	
					         1.20167	8.40000e+01	
					         1.20333	6.70000e+01	
					         1.20500	4.80000e+01	
					         1.20667	2.90000e+01	
					         1.20833	9.00000e+00	
					         1.21000	-1.10000e+01	
					         1.21167	-2.90000e+01	
					         1.21333	-4.60000e+01	
					         1.21500	-5.90000e+01	
					         1.21667	-7.00000e+01	
					         1.21833	-7.80000e+01	
					         1.22000	-8.20000e+01	
					         1.22167	-8.40000e+01	
					         1.22333	-8.30000e+01	
					         1.22500	-8.00000e+01	
					         1.22667	-7.60000e+01	
					         1.22833	-7.00000e+01	
					         1.23000	-6.30000e+01	
					         1.23167	-5.50000e+01	
					         1.23333	-4.70000e+01	
					         1.23500	-4.00000e+01	
					         1.23667	-3.20000e+01	
					         1.23833	-2.50000e+01	
					         1.24000	-1.90000e+01	
					         1.24167	-1.30000e+01	
					         1.24333	-8.00000e+00	
					         1.24500	-3.00000e+00	
					         1.24667	0.00000e+00	
					         1.24833	3.00000e+00	
					         1.25000	6.00000e+00	
					         1.25167	8.00000e+00	
					         1.25333	9.00000e+00	
					         1.25500	1.00000e+01	
					         1.25667	1.00000e+01	
					         1.25833	1.00000e+01	
					         1.26000	1.00000e+01	
					         1.26167	1.00000e+01	
					         1.26333	1.00000e+01	
					         1.26500	9.00000e+00	
					         1.26667	9.00000e+00	
					         1.26833	9.00000e+00	
					         1.27000	9.00000e+00	
					         1.27167	1.00000e+01	
					         1.27333	1.00000e+01	
					         1.27500	1.00000e+01	
					         1.27667	1.10000e+01	
					         1.27833	1.10000e+01	
					         1.28000	1.20000e+01	
					         1.28167	1.20000e+01	
					         1.28333	1.30000e+01	
					         1.28500	1.40000e+01	
					         1.28667	1.40000e+01	
					         1.28833	1.50000e+01	
					         1.29000	1.50000e+01	
					         1.29167	1.50000e+01	
					         1.29333	1.60000e+01	
					         1.29500	1.60000e+01	
					         1.29667	1.70000e+01	
					         1.29833	1.70000e+01	
					         1.30000	1.70000e+01	
					         1.30167	1.80000e+01	
					         1.30333	1.80000e+01	
					         1.30500	1.80000e+01	
					         1.30667	1.90000e+01	
					         1.30833	1.90000e+01	
					         1.31000	1.90000e+01	
					         1.31167	1.90000e+01	
					         1.31333	2.00000e+01	
					         1.31500	2.00000e+01	
					         1.31667	2.00000e+01	
					         1.31833	2.00000e+01	
					         1.32000	2.10000e+01	
					         1.32167	2.10000e+01	
					         1.32333	2.20000e+01	
					         1.32500	2.20000e+01	
					         1.32667	2.30000e+01	
					         1.32833	2.30000e+01	
					         1.33000	2.40000e+01	
					         1.33167	2.40000e+01	
					         1.33333	2.50000e+01	
					         1.33500	2.50000e+01	
					         1.33667	2.60000e+01	
					         1.33833	2.60000e+01	
					         1.34000	2.70000e+01	
					         1.34167	2.80000e+01	
					         1.34333	2.80000e+01	
					         1.34500	2.90000e+01	
					         1.34667	3.00000e+01	
					         1.34833	3.10000e+01	
					         1.35000	3.20000e+01	
					         1.35167	3.30000e+01	
					         1.35333	3.30000e+01	
					         1.35500	3.40000e+01	
					         1.35667	3.50000e+01	
					         1.35833	3.60000e+01	
					         1.36000	3.60000e+01	
					         1.36167	3.70000e+01	
					         1.36333	3.70000e+01	
					         1.36500	3.80000e+01	
					         1.36667	3.80000e+01	
					         1.36833	3.90000e+01	
					         1.37000	3.90000e+01	
					         1.37167	3.90000e+01	
					         1.37333	4.00000e+01	
					         1.37500	4.00000e+01	
					         1.37667	4.10000e+01	
					         1.37833	4.20000e+01	
					         1.38000	4.20000e+01	
					         1.38167	4.30000e+01	
					         1.38333	4.30000e+01	
					         1.38500	4.40000e+01	
					         1.38667	4.40000e+01	
					         1.38833	4.40000e+01	
					         1.39000	4.40000e+01	
					         1.39167	4.40000e+01	
					         1.39333	4.40000e+01	
					         1.39500	4.40000e+01	
					         1.39667	4.40000e+01	
					         1.39833	4.50000e+01	
					         1.40000	4.50000e+01	
					         1.40167	4.60000e+01	
					         1.40333	4.70000e+01	
					         1.40500	4.80000e+01	
					         1.40667	5.00000e+01	
					         1.40833	5.10000e+01	
					         1.41000	5.30000e+01	
					         1.41167	5.50000e+01	
					         1.41333	5.70000e+01	
					         1.41500	5.90000e+01	
					         1.41667	6.10000e+01	
					         1.41833	6.30000e+01	
					         1.42000	6.50000e+01	
					         1.42167	6.60000e+01	
					         1.42333	6.80000e+01	
					         1.42500	6.90000e+01	
					         1.42667	7.00000e+01	
					         1.42833	7.00000e+01	
					         1.43000	7.10000e+01	
					         1.43167	7.20000e+01	
					         1.43333	7.20000e+01	
					         1.43500	7.30000e+01	
					         1.43667	7.30000e+01	
					         1.43833	7.40000e+01	
					         1.44000	7.50000e+01	
					         1.44167	7.50000e+01	
					         1.44333	7.60000e+01	
					         1.44500	7.60000e+01	
					         1.44667	7.70000e+01	
					         1.44833	7.70000e+01	
					         1.45000	7.70000e+01	
					         1.45167	7.70000e+01	
					         1.45333	7.70000e+01	
					         1.45500	7.60000e+01	
					         1.45667	7.60000e+01	
					         1.45833	7.50000e+01	
					         1.46000	7.40000e+01	
					         1.46167	7.30000e+01	
					         1.46333	7.20000e+01	
					         1.46500	7.10000e+01	
					         1.46667	6.90000e+01	
					         1.46833	6.80000e+01	
					         1.47000	6.60000e+01	
					         1.47167	6.40000e+01	
					         1.47333	6.10000e+01	
					         1.47500	5.80000e+01	
					         1.47667	5.50000e+01	
					         1.47833	5.20000e+01	
					         1.48000	4.80000e+01	
					         1.48167	4.40000e+01	
					         1.48333	4.00000e+01	
					         1.48500	3.60000e+01	
					         1.48667	3.10000e+01	
					         1.48833	2.70000e+01	
					         1.49000	2.20000e+01	
					         1.49167	1.80000e+01	
					         1.49333	1.40000e+01	
					         1.49500	9.00000e+00	
					         1.49667	5.00000e+00	
					         1.49833	1.00000e+00	
					         1.50000	-2.00000e+00	
					         1.50167	-6.00000e+00	
					         1.50333	-9.00000e+00	
					         1.50500	-1.30000e+01	
					         1.50667	-1.60000e+01	
					         1.50833	-1.90000e+01	
					         1.51000	-2.10000e+01	
					         1.51167	-2.40000e+01	
					         1.51333	-2.60000e+01	
					         1.51500	-2.90000e+01	
					         1.51667	-3.10000e+01	
					         1.51833	-3.20000e+01	
					         1.52000	-3.40000e+01	
					         1.52167	-3.50000e+01	
					         1.52333	-3.60000e+01	
					         1.52500	-3.70000e+01	
					         1.52667	-3.80000e+01	
					         1.52833	-3.80000e+01	
					         1.53000	-3.90000e+01	
					         1.53167	-3.90000e+01	
					         1.53333	-3.90000e+01	
					         1.53500	-3.90000e+01	
					         1.53667	-3.90000e+01	
					         1.53833	-3.90000e+01	
					         1.54000	-3.90000e+01	
					         1.54167	-3.90000e+01	
					         1.54333	-3.80000e+01	
					         1.54500	-3.80000e+01	
					         1.54667	-3.80000e+01	
					         1.54833	-3.80000e+01	
					         1.55000	-3.80000e+01	
					         1.55167	-3.80000e+01	
					         1.55333	-3.80000e+01	
					         1.55500	-3.90000e+01	
					         1.55667	-3.90000e+01	
					         1.55833	-3.90000e+01	
					         1.56000	-3.90000e+01	
					         1.56167	-3.90000e+01	
					         1.56333	-3.90000e+01	
					         1.56500	-3.80000e+01	
					         1.56667	-3.80000e+01	
					         1.56833	-3.70000e+01	
					         1.57000	-3.60000e+01	
					         1.57167	-3.50000e+01	
					         1.57333	-3.40000e+01	
					         1.57500	-3.30000e+01	
					         1.57667	-3.10000e+01	
					         1.57833	-3.00000e+01	
					         1.58000	-2.90000e+01	
					         1.58167	-2.90000e+01	
					         1.58333	-2.80000e+01	
					         1.58500	-2.70000e+01	
					         1.58667	-2.60000e+01	
					         1.58833	-2.50000e+01	
					         1.59000	-2.40000e+01	
					         1.59167	-2.40000e+01	
					         1.59333	-2.30000e+01	
					         1.59500	-2.20000e+01	
					         1.59667	-2.20000e+01	
					         1.59833	-2.10000e+01	
					         1.60000	-2.00000e+01	
					         1.60167	-2.00000e+01	
					         1.60333	-2.00000e+01	
					         1.60500	-2.00000e+01	
					         1.60667	-2.00000e+01	
					         1.60833	-2.00000e+01	
					         1.61000	-2.00000e+01	
					         1.61167	-2.00000e+01	
					         1.61333	-2.10000e+01	
					         1.61500	-2.10000e+01	
					         1.61667	-2.10000e+01	
					         1.61833	-2.10000e+01	
					         1.62000	-2.10000e+01	
					         1.62167	-2.10000e+01	
					         1.62333	-2.10000e+01	
					         1.62500	-2.00000e+01	
					         1.62667	-2.00000e+01	
					         1.62833	-1.90000e+01	
					         1.63000	-1.80000e+01	
					         1.63167	-1.80000e+01	
					         1.63333	-1.70000e+01	
					         1.63500	-1.70000e+01	
					         1.63667	-1.60000e+01	
					         1.63833	-1.50000e+01	
					         1.64000	-1.50000e+01	
					         1.64167	-1.40000e+01	
					         1.64333	-1.30000e+01	
					         1.64500	-1.30000e+01	
					         1.64667	-1.20000e+01	
					         1.64833	-1.20000e+01	
					         1.65000	-1.10000e+01	
					         1.65167	-1.10000e+01	
					         1.65333	-1.10000e+01	
					         1.65500	-1.00000e+01	
					         1.65667	-1.00000e+01	
					         1.65833	-9.00000e+00	
					         1.66000	-9.00000e+00	
					         1.66167	-9.00000e+00	
					         1.66333	-9.00000e+00	
					         1.66500	-9.00000e+00	
					         1.66667	-9.00000e+00	
					         1.66833	-1.00000e+01	
					         1.67000	-1.00000e+01	
					         1.67167	-1.10000e+01	
					         1.67333	-1.10000e+01	
					         1.67500	-1.10000e+01	
					         1.67667	-1.20000e+01	
					         1.67833	-1.20000e+01	
					         1.68000	-1.20000e+01	
					         1.68167	-1.10000e+01	
					         1.68333	-1.10000e+01	
					         1.68500	-1.10000e+01	
					         1.68667	-1.00000e+01	
					         1.68833	-1.00000e+01	
					         1.69000	-9.00000e+00	
					         1.69167	-9.00000e+00	
					         1.69333	-8.00000e+00	
					         1.69500	-8.00000e+00	
					         1.69667	-7.00000e+00	
					         1.69833	-7.00000e+00	
					         1.70000	-7.00000e+00	
					         1.70167	-7.00000e+00	
					         1.70333	-8.00000e+00	
					         1.70500	-8.00000e+00	
					         1.70667	-9.00000e+00	
					         1.70833	-1.00000e+01	
					         1.71000	-1.00000e+01	
					         1.71167	-1.10000e+01	
					         1.71333	-1.20000e+01	
					         1.71500	-1.20000e+01	
					         1.71667	-1.30000e+01	
					         1.71833	-1.30000e+01	
					         1.72000	-1.30000e+01	
					         1.72167	-1.30000e+01	
					         1.72333	-1.30000e+01	
					         1.72500	-1.30000e+01	
					         1.72667	-1.20000e+01	
					         1.72833	-1.20000e+01	
					         1.73000	-1.10000e+01	
					         1.73167	-1.10000e+01	
					         1.73333	-1.00000e+01	
					         1.73500	-1.00000e+01	
					         1.73667	-1.00000e+01	
					         1.73833	-1.00000e+01	
					         1.74000	-9.00000e+00	
					         1.74167	-9.00000e+00	
					         1.74333	-9.00000e+00	
					         1.74500	-9.00000e+00	
					         1.74667	-9.00000e+00	
					         1.74833	-9.00000e+00	
					         1.75000	-9.00000e+00	
					         1.75167	-9.00000e+00	
					         1.75333	-1.00000e+01	
					         1.75500	-1.00000e+01	
					         1.75667	-1.00000e+01	
					         1.75833	-1.00000e+01	
					         1.76000	-1.00000e+01	
					         1.76167	-1.00000e+01	
					         1.76333	-1.10000e+01	
					         1.76500	-1.10000e+01	
					         1.76667	-1.10000e+01	
					         1.76833	-1.10000e+01	
					         1.77000	-1.20000e+01	
					         1.77167	-1.20000e+01	
					         1.77333	-1.20000e+01	
					         1.77500	-1.20000e+01	
					         1.77667	-1.20000e+01	
					         1.77833	-1.10000e+01	
					         1.78000	-1.10000e+01	
					         1.78167	-1.00000e+01	
					         1.78333	-1.00000e+01	
					         1.78500	-9.00000e+00	
					         1.78667	-9.00000e+00	
					         1.78833	-9.00000e+00	
					         1.79000	-8.00000e+00	
					         1.79167	-8.00000e+00	
					         1.79333	-7.00000e+00	
					         1.79500	-7.00000e+00	
					         1.79667	-7.00000e+00	
					         1.79833	-6.00000e+00	
					         1.80000	-6.00000e+00	
					         1.80167	-6.00000e+00	
					         1.80333	-6.00000e+00	
					         1.80500	-5.00000e+00	
					         1.80667	-5.00000e+00	
					         1.80833	-5.00000e+00	
					         1.81000	-5.00000e+00	
					         1.81167	-4.00000e+00	
					         1.81333	-4.00000e+00	
					         1.81500	-4.00000e+00	
					         1.81667	-4.00000e+00	
					         1.81833	-4.00000e+00	
					         1.82000	-4.00000e+00	
					         1.82167	-3.00000e+00	
					         1.82333	-3.00000e+00	
					         1.82500	-3.00000e+00	
					         1.82667	-3.00000e+00	
					         1.82833	-3.00000e+00	
					         1.83000	-2.00000e+00	
					         1.83167	-2.00000e+00	
					         1.83333	-2.00000e+00	
					         1.83500	-2.00000e+00	
					         1.83667	-2.00000e+00	
					         1.83833	-2.00000e+00	
					         1.84000	-2.00000e+00	
					         1.84167	-2.00000e+00	
					         1.84333	-2.00000e+00	
					         1.84500	-2.00000e+00	
					         1.84667	-2.00000e+00	
					         1.84833	-2.00000e+00	
					         1.85000	-2.00000e+00	
					         1.85167	-3.00000e+00	
					         1.85333	-3.00000e+00	
					         1.85500	-4.00000e+00	
					         1.85667	-4.00000e+00	
					         1.85833	-5.00000e+00	
					         1.86000	-5.00000e+00	
					         1.86167	-6.00000e+00	
					         1.86333	-6.00000e+00	
					         1.86500	-6.00000e+00	
					         1.86667	-7.00000e+00	
					         1.86833	-6.00000e+00	
					         1.87000	-6.00000e+00	
					         1.87167	-6.00000e+00	
					         1.87333	-5.00000e+00	
					         1.87500	-5.00000e+00	
					         1.87667	-4.00000e+00	
					         1.87833	-4.00000e+00	
					         1.88000	-3.00000e+00	
					         1.88167	-3.00000e+00	
					         1.88333	-2.00000e+00	
					         1.88500	-2.00000e+00	
					         1.88667	-2.00000e+00	
					         1.88833	-2.00000e+00	
					         1.89000	-3.00000e+00	
					         1.89167	-3.00000e+00	
					         1.89333	-4.00000e+00	
					         1.89500	-4.00000e+00	
					         1.89667	-4.00000e+00	
					         1.89833	-5.00000e+00	
					         1.90000	-5.00000e+00	
					         1.90167	-5.00000e+00	
					         1.90333	-6.00000e+00	
					         1.90500	-6.00000e+00	
					         1.90667	-6.00000e+00	
					         1.90833	-6.00000e+00	
					         1.91000	-6.00000e+00	
					         1.91167	-6.00000e+00	
					         1.91333	-6.00000e+00	
					         1.91500	-7.00000e+00	
					         1.91667	-7.00000e+00	
					         1.91833	-8.00000e+00	
					         1.92000	-8.00000e+00	
					         1.92167	-8.00000e+00	
					         1.92333	-9.00000e+00	
					         1.92500	-9.00000e+00	
					         1.92667	-1.00000e+01	
					         1.92833	-1.00000e+01	
					         1.93000	-1.00000e+01	
					         1.93167	-1.10000e+01	
					         1.93333	-1.10000e+01	
					         1.93500	-1.10000e+01	
					         1.93667	-1.00000e+01	
					         1.93833	-1.00000e+01	
					         1.94000	-1.00000e+01	
					         1.94167	-9.00000e+00	
					         1.94333	-9.00000e+00	
					         1.94500	-8.00000e+00	
					         1.94667	-8.00000e+00	
					         1.94833	-8.00000e+00	
					         1.95000	-8.00000e+00	
					         1.95167	-8.00000e+00	
					         1.95333	-9.00000e+00	
					         1.95500	-9.00000e+00	
					         1.95667	-9.00000e+00	
					         1.95833	-9.00000e+00	
					         1.96000	-1.00000e+01	
					         1.96167	-1.00000e+01	
					         1.96333	-1.10000e+01	
					         1.96500	-1.10000e+01	
					         1.96667	-1.10000e+01	
					         1.96833	-1.10000e+01	
					         1.97000	-1.10000e+01	
					         1.97167	-1.10000e+01	
					         1.97333	-1.10000e+01	
					         1.97500	-1.10000e+01	
					         1.97667	-1.10000e+01	
					         1.97833	-1.10000e+01	
					         1.98000	-1.20000e+01	
					         1.98167	-1.20000e+01	
					         1.98333	-1.20000e+01	
					         1.98500	-1.20000e+01	
					         1.98667	-1.20000e+01	
					         1.98833	-1.30000e+01	
					         1.99000	-1.30000e+01	
					         1.99167	-1.40000e+01	
					         1.99333	-1.40000e+01	
					         1.99500	-1.40000e+01	
					         1.99667	-1.40000e+01	
					         1.99833	-1.40000e+01	
					         2.00000	-1.40000e+01	
					         2.00167	-1.40000e+01	
					         2.00333	-1.40000e+01	
					         2.00500	-1.40000e+01	
					         2.00667	-1.30000e+01	
					         2.00833	-1.30000e+01	
					         2.01000	-1.30000e+01	
					         2.01167	-1.30000e+01	
					         2.01333	-1.30000e+01	
					         2.01500	-1.40000e+01	
					         2.01667	-1.40000e+01	
					         2.01833	-1.40000e+01	
					         2.02000	-1.40000e+01	
					         2.02167	-1.40000e+01	
					         2.02333	-1.40000e+01	
					         2.02500	-1.30000e+01	
					         2.02667	-1.30000e+01	
					         2.02833	-1.30000e+01	
					         2.03000	-1.20000e+01	
					         2.03167	-1.20000e+01	
					         2.03333	-1.10000e+01	
					         2.03500	-1.10000e+01	
					         2.03667	-1.10000e+01	
					         2.03833	-1.00000e+01	
					         2.04000	-1.00000e+01	
					         2.04167	-1.10000e+01	
					         2.04333	-1.10000e+01	
					         2.04500	-1.10000e+01	
					         2.04667	-1.20000e+01	
					         2.04833	-1.20000e+01	
					         2.05000	-1.20000e+01	
					         2.05167	-1.30000e+01	
					         2.05333	-1.30000e+01	
					         2.05500	-1.30000e+01	
					         2.05667	-1.30000e+01	
					         2.05833	-1.20000e+01	
					         2.06000	-1.20000e+01	
					         2.06167	-1.20000e+01	
					         2.06333	-1.10000e+01	
					         2.06500	-1.10000e+01	
					         2.06667	-1.00000e+01	
					         2.06833	-1.00000e+01	
					         2.07000	-1.00000e+01	
					         2.07167	-1.10000e+01	
					         2.07333	-1.10000e+01	
					         2.07500	-1.20000e+01	
					         2.07667	-1.20000e+01	
					         2.07833	-1.30000e+01	
					         2.08000	-1.40000e+01	
					         2.08167	-1.60000e+01	
					         2.08333	-1.70000e+01	
					         2.08500	-1.80000e+01	
					         2.08667	-2.00000e+01	
					         2.08833	-2.10000e+01	
					         2.09000	-2.30000e+01	
					         2.09167	-2.40000e+01	
					         2.09333	-2.50000e+01	
					         2.09500	-2.60000e+01	
					         2.09667	-2.70000e+01	
					         2.09833	-2.70000e+01	
					         2.10000	-2.80000e+01	
					         2.10167	-2.80000e+01	
					         2.10333	-2.90000e+01	
					         2.10500	-2.90000e+01	
					         2.10667	-3.00000e+01	
					         2.10833	-3.00000e+01	
					         2.11000	-3.00000e+01	
					         2.11167	-3.10000e+01	
					         2.11333	-3.10000e+01	
					         2.11500	-3.10000e+01	
					         2.11667	-3.20000e+01	
					         2.11833	-3.20000e+01	
					         2.12000	-3.20000e+01	
					         2.12167	-3.20000e+01	
					         2.12333	-3.20000e+01	
					         2.12500	-3.10000e+01	
					         2.12667	-3.10000e+01	
					         2.12833	-3.10000e+01	
					         2.13000	-3.10000e+01	
					         2.13167	-3.00000e+01	
					         2.13333	-3.00000e+01	
					         2.13500	-3.00000e+01	
					         2.13667	-2.90000e+01	
					         2.13833	-2.90000e+01	
					         2.14000	-2.80000e+01	
					         2.14167	-2.80000e+01	
					         2.14333	-2.70000e+01	
					         2.14500	-2.70000e+01	
					         2.14667	-2.70000e+01	
					         2.14833	-2.60000e+01	
					         2.15000	-2.60000e+01	
					         2.15167	-2.60000e+01	
					         2.15333	-2.70000e+01	
					         2.15500	-2.70000e+01	
					         2.15667	-2.70000e+01	
					         2.15833	-2.80000e+01	
					         2.16000	-2.80000e+01	
					         2.16167	-2.80000e+01	
					         2.16333	-2.90000e+01	
					         2.16500	-2.90000e+01	
					         2.16667	-2.90000e+01	
					         2.16833	-2.90000e+01	
					         2.17000	-2.90000e+01	
					         2.17167	-2.80000e+01	
					         2.17333	-2.80000e+01	
					         2.17500	-2.80000e+01	
					         2.17667	-2.80000e+01	
					         2.17833	-2.80000e+01	
					         2.18000	-2.80000e+01	
					         2.18167	-2.90000e+01	
					         2.18333	-2.90000e+01	
					         2.18500	-2.90000e+01	
					         2.18667	-3.00000e+01	
					         2.18833	-3.00000e+01	
					         2.19000	-3.10000e+01	
					         2.19167	-3.10000e+01	
					         2.19333	-3.10000e+01	
					         2.19500	-3.10000e+01	
					         2.19667	-3.10000e+01	
					         2.19833	-3.10000e+01	
					         2.20000	-3.10000e+01	
					         2.20167	-3.00000e+01	
					         2.20333	-3.00000e+01	
					         2.20500	-3.00000e+01	
					         2.20667	-3.00000e+01	
					         2.20833	-2.90000e+01	
					         2.21000	-2.90000e+01	
					         2.21167	-3.00000e+01	
					         2.21333	-3.00000e+01	
					         2.21500	-3.00000e+01	
					         2.21667	-3.10000e+01	
					         2.21833	-3.10000e+01	
					         2.22000	-3.10000e+01	
					         2.22167	-3.10000e+01	
					         2.22333	-3.10000e+01	
					         2.22500	-3.10000e+01	
					         2.22667	-3.10000e+01	
					         2.22833	-3.10000e+01	
					         2.23000	-3.10000e+01	
					         2.23167	-3.00000e+01	
					         2.23333	-3.00000e+01	
					         2.23500	-2.90000e+01	
					         2.23667	-2.90000e+01	
					         2.23833	-2.80000e+01	
					         2.24000	-2.70000e+01	
					         2.24167	-2.70000e+01	
					         2.24333	-2.60000e+01	
					         2.24500	-2.60000e+01	
					         2.24667	-2.50000e+01	
					         2.24833	-2.50000e+01	
					         2.25000	-2.50000e+01	
					         2.25167	-2.40000e+01	
					         2.25333	-2.40000e+01	
					         2.25500	-2.40000e+01	
					         2.25667	-2.40000e+01	
					         2.25833	-2.40000e+01	
					         2.26000	-2.40000e+01	
					         2.26167	-2.40000e+01	
					         2.26333	-2.40000e+01	
					         2.26500	-2.40000e+01	
					         2.26667	-2.40000e+01	
					         2.26833	-2.40000e+01	
					         2.27000	-2.40000e+01	
					         2.27167	-2.40000e+01	
					         2.27333	-2.40000e+01	
					         2.27500	-2.30000e+01	
					         2.27667	-2.30000e+01	
					         2.27833	-2.20000e+01	
					         2.28000	-2.20000e+01	
					         2.28167	-2.10000e+01	
					         2.28333	-2.10000e+01	
					         2.28500	-2.00000e+01	
					         2.28667	-1.90000e+01	
					         2.28833	-1.80000e+01	
					         2.29000	-1.80000e+01	
					         2.29167	-1.70000e+01	
					         2.29333	-1.60000e+01	
					         2.29500	-1.50000e+01	
					         2.29667	-1.40000e+01	
					         2.29833	-1.20000e+01	
					         2.30000	-1.10000e+01	
					         2.30167	-1.00000e+01	
					         2.30333	-9.00000e+00	
					         2.30500	-8.00000e+00	
					         2.30667	-7.00000e+00	
					         2.30833	-7.00000e+00	
					         2.31000	-6.00000e+00	
					         2.31167	-6.00000e+00	
					         2.31333	-6.00000e+00	
					         2.31500	-6.00000e+00	
					         2.31667	-6.00000e+00	
					         2.31833	-7.00000e+00	
					         2.32000	-7.00000e+00	
					         2.32167	-7.00000e+00	
					         2.32333	-8.00000e+00	
					         2.32500	-8.00000e+00	
					         2.32667	-9.00000e+00	
					         2.32833	-1.00000e+01	
					         2.33000	-1.10000e+01	
					         2.33167	-1.20000e+01	
					         2.33333	-1.20000e+01	
					         2.33500	-1.30000e+01	
					         2.33667	-1.40000e+01	
					         2.33833	-1.50000e+01	
					         2.34000	-1.50000e+01	
					         2.34167	-1.60000e+01	
					         2.34333	-1.70000e+01	
					         2.34500	-1.80000e+01	
					         2.34667	-1.90000e+01	
					         2.34833	-1.90000e+01	
					         2.35000	-2.00000e+01	
					         2.35167	-2.10000e+01	
					         2.35333	-2.10000e+01	
					         2.35500	-2.20000e+01	
					         2.35667	-2.30000e+01	
					         2.35833	-2.30000e+01	
					         2.36000	-2.40000e+01	
					         2.36167	-2.50000e+01	
					         2.36333	-2.60000e+01	
					         2.36500	-2.70000e+01	
					         2.36667	-2.80000e+01	
					         2.36833	-2.90000e+01	
					         2.37000	-3.00000e+01	
					         2.37167	-3.10000e+01	
					         2.37333	-3.20000e+01	
					         2.37500	-3.30000e+01	
					         2.37667	-3.40000e+01	
					         2.37833	-3.50000e+01	
					         2.38000	-3.50000e+01	
					         2.38167	-3.60000e+01	
					         2.38333	-3.60000e+01	
					         2.38500	-3.60000e+01	
					         2.38667	-3.50000e+01	
					         2.38833	-3.50000e+01	
					         2.39000	-3.40000e+01	
					         2.39167	-3.40000e+01	
					         2.39333	-3.30000e+01	
					         2.39500	-3.30000e+01	
					         2.39667	-3.20000e+01	
					         2.39833	-3.20000e+01	
					         2.40000	-3.10000e+01	
					         2.40167	-3.00000e+01	
					         2.40333	-2.90000e+01	
					         2.40500	-2.90000e+01	
					         2.40667	-2.80000e+01	
					         2.40833	-2.70000e+01	
					         2.41000	-2.60000e+01	
					         2.41167	-2.40000e+01	
					         2.41333	-2.30000e+01	
					         2.41500	-2.10000e+01	
					         2.41667	-1.90000e+01	
					         2.41833	-1.70000e+01	
					         2.42000	-1.40000e+01	
					         2.42167	-1.20000e+01	
					         2.42333	-9.00000e+00	
					         2.42500	-5.00000e+00	
					         2.42667	-2.00000e+00	
					         2.42833	2.00000e+00	
					         2.43000	6.00000e+00	
					         2.43167	1.10000e+01	
					         2.43333	1.70000e+01	
					         2.43500	2.40000e+01	
					         2.43667	3.20000e+01	
					         2.43833	4.00000e+01	
					         2.44000	4.90000e+01	
					         2.44167	5.90000e+01	
					         2.44333	6.80000e+01	
					         2.44500	7.80000e+01	
					         2.44667	8.70000e+01	
					         2.44833	9.40000e+01	
					         2.45000	1.00000e+02	
					         2.45167	1.02000e+02	
					         2.45333	1.02000e+02	
					         2.45500	9.80000e+01	
					         2.45667	9.10000e+01	
					         2.45833	8.00000e+01	
					         2.46000	6.60000e+01	
					         2.46167	4.90000e+01	
					         2.46333	3.00000e+01	
					         2.46500	1.00000e+01	
					         2.46667	-1.10000e+01	
					         2.46833	-3.20000e+01	
					         2.47000	-5.20000e+01	
					         2.47167	-7.00000e+01	
					         2.47333	-8.50000e+01	
					         2.47500	-9.70000e+01	
					         2.47667	-1.07000e+02	
					         2.47833	-1.13000e+02	
					         2.48000	-1.16000e+02	
					         2.48167	-1.16000e+02	
					         2.48333	-1.14000e+02	
					         2.48500	-1.09000e+02	
					         2.48667	-1.03000e+02	
					         2.48833	-9.50000e+01	
					         2.49000	-8.70000e+01	
					         2.49167	-7.90000e+01	
					         2.49333	-7.00000e+01	
					         2.49500	-6.10000e+01	
					         2.49667	-5.30000e+01	
					         2.49833	-4.60000e+01	
					         2.50000	-3.90000e+01	
					         2.50167	-3.30000e+01	
					         2.50333	-2.90000e+01	
					         2.50500	-2.50000e+01	
					         2.50667	-2.10000e+01	
					         2.50833	-1.90000e+01	
					         2.51000	-1.70000e+01	
					         2.51167	-1.60000e+01	
					         2.51333	-1.60000e+01	
					         2.51500	-1.50000e+01	
					         2.51667	-1.50000e+01	
					         2.51833	-1.50000e+01	
					         2.52000	-1.50000e+01	
					         2.52167	-1.60000e+01	
					         2.52333	-1.60000e+01	
					         2.52500	-1.60000e+01	
					         2.52667	-1.60000e+01	
					         2.52833	-1.60000e+01	
					         2.53000	-1.60000e+01	
					         2.53167	-1.60000e+01	
					         2.53333	-1.60000e+01	
					         2.53500	-1.60000e+01	
					         2.53667	-1.60000e+01	
					         2.53833	-1.50000e+01	
					         2.54000	-1.50000e+01	
					         2.54167	-1.50000e+01	
					         2.54333	-1.40000e+01	
					         2.54500	-1.40000e+01	
					         2.54667	-1.30000e+01	
					         2.54833	-1.30000e+01	
					         2.55000	-1.30000e+01	
					         2.55167	-1.20000e+01	
					         2.55333	-1.20000e+01	
					         2.55500	-1.20000e+01	
					         2.55667	-1.20000e+01	
					         2.55833	-1.20000e+01	
					         2.56000	-1.20000e+01	
					         2.56167	-1.20000e+01	
					         2.56333	-1.20000e+01	
					         2.56500	-1.20000e+01	
					         2.56667	-1.20000e+01	
					         2.56833	-1.10000e+01	
					         2.57000	-1.10000e+01	
					         2.57167	-1.10000e+01	
					         2.57333	-1.00000e+01	
					         2.57500	-9.00000e+00	
					         2.57667	-9.00000e+00	
					         2.57833	-8.00000e+00	
					         2.58000	-7.00000e+00	
					         2.58167	-7.00000e+00	
					         2.58333	-6.00000e+00	
					         2.58500	-5.00000e+00	
					         2.58667	-4.00000e+00	
					         2.58833	-3.00000e+00	
					         2.59000	-3.00000e+00	
					         2.59167	-2.00000e+00	
					         2.59333	-2.00000e+00	
					         2.59500	-2.00000e+00	
					         2.59667	-2.00000e+00	
					         2.59833	-1.00000e+00	
					         2.60000	-1.00000e+00	
					         2.60167	-1.00000e+00	
					         2.60333	-1.00000e+00	
					         2.60500	-1.00000e+00	
					         2.60667	-1.00000e+00	
					         2.60833	-1.00000e+00	
					         2.61000	-1.00000e+00	
					         2.61167	0.00000e+00	
					         2.61333	0.00000e+00	
					         2.61500	1.00000e+00	
					         2.61667	2.00000e+00	
					         2.61833	3.00000e+00	
					         2.62000	4.00000e+00	
					         2.62167	5.00000e+00	
					         2.62333	7.00000e+00	
					         2.62500	8.00000e+00	
					         2.62667	1.00000e+01	
					         2.62833	1.10000e+01	
					         2.63000	1.20000e+01	
					         2.63167	1.30000e+01	
					         2.63333	1.40000e+01	
					         2.63500	1.50000e+01	
					         2.63667	1.60000e+01	
					         2.63833	1.70000e+01	
					         2.64000	1.90000e+01	
					         2.64167	2.00000e+01	
					         2.64333	2.10000e+01	
					         2.64500	2.20000e+01	
					         2.64667	2.30000e+01	
					         2.64833	2.50000e+01	
					         2.65000	2.60000e+01	
					         2.65167	2.80000e+01	
					         2.65333	3.00000e+01	
					         2.65500	3.10000e+01	
					         2.65667	3.30000e+01	
					         2.65833	3.40000e+01	
					         2.66000	3.50000e+01	
					         2.66167	3.60000e+01	
					         2.66333	3.70000e+01	
					         2.66500	3.80000e+01	
					         2.66667	3.90000e+01	
					         2.66833	4.00000e+01	
					         2.67000	4.10000e+01	
					         2.67167	4.20000e+01	
					         2.67333	4.30000e+01	
					         2.67500	4.40000e+01	
					         2.67667	4.50000e+01	
					         2.67833	4.70000e+01	
					         2.68000	4.80000e+01	
					         2.68167	5.00000e+01	
					         2.68333	5.10000e+01	
					         2.68500	5.30000e+01	
					         2.68667	5.40000e+01	
					         2.68833	5.50000e+01	
					         2.69000	5.60000e+01	
					         2.69167	5.70000e+01	
					         2.69333	5.80000e+01	
					         2.69500	5.80000e+01	
					         2.69667	5.80000e+01	
					         2.69833	5.80000e+01	
					         2.70000	5.80000e+01	
					         2.70167	5.80000e+01	
					         2.70333	5.80000e+01	
					         2.70500	5.90000e+01	
					         2.70667	5.90000e+01	
					         2.70833	6.00000e+01	
					         2.71000	6.00000e+01	
					         2.71167	6.10000e+01	
					         2.71333	6.10000e+01	
					         2.71500	6.00000e+01	
					         2.71667	6.00000e+01	
					         2.71833	5.90000e+01	
					         2.72000	5.80000e+01	
					         2.72167	5.70000e+01	
					         2.72333	5.50000e+01	
					         2.72500	5.30000e+01	
					         2.72667	5.10000e+01	
					         2.72833	4.80000e+01	
					         2.73000	4.50000e+01	
					         2.73167	4.20000e+01	
					         2.73333	3.90000e+01	
					         2.73500	3.60000e+01	
					         2.73667	3.30000e+01	
					         2.73833	3.00000e+01	
					         2.74000	2.60000e+01	
					         2.74167	2.30000e+01	
					         2.74333	1.90000e+01	
					         2.74500	1.50000e+01	
					         2.74667	1.10000e+01	
					         2.74833	8.00000e+00	
					         2.75000	4.00000e+00	
					         2.75167	0.00000e+00	
					         2.75333	-4.00000e+00	
					         2.75500	-8.00000e+00	
					         2.75667	-1.20000e+01	
					         2.75833	-1.50000e+01	
					         2.76000	-1.90000e+01	
					         2.76167	-2.20000e+01	
					         2.76333	-2.60000e+01	
					         2.76500	-2.90000e+01	
					         2.76667	-3.20000e+01	
					         2.76833	-3.50000e+01	
					         2.77000	-3.80000e+01	
					         2.77167	-4.10000e+01	
					         2.77333	-4.40000e+01	
					         2.77500	-4.70000e+01	
					         2.77667	-5.00000e+01	
					         2.77833	-5.20000e+01	
					         2.78000	-5.40000e+01	
					         2.78167	-5.60000e+01	
					         2.78333	-5.80000e+01	
					         2.78500	-6.00000e+01	
					         2.78667	-6.10000e+01	
					         2.78833	-6.30000e+01	
					         2.79000	-6.40000e+01	
					         2.79167	-6.50000e+01	
					         2.79333	-6.60000e+01	
					         2.79500	-6.60000e+01	
					         2.79667	-6.70000e+01	
					         2.79833	-6.70000e+01	
					         2.80000	-6.70000e+01	
					         2.80167	-6.80000e+01	
					         2.80333	-6.70000e+01	
					         2.80500	-6.70000e+01	
					         2.80667	-6.70000e+01	
					         2.80833	-6.60000e+01	
					         2.81000	-6.60000e+01	
					         2.81167	-6.60000e+01	
					         2.81333	-6.50000e+01	
					         2.81500	-6.50000e+01	
					         2.81667	-6.50000e+01	
					         2.81833	-6.40000e+01	
					         2.82000	-6.40000e+01	
					         2.82167	-6.30000e+01	
					         2.82333	-6.30000e+01	
					         2.82500	-6.20000e+01	
					         2.82667	-6.20000e+01	
					         2.82833	-6.10000e+01	
					         2.83000	-6.00000e+01	
					         2.83167	-5.90000e+01	
					         2.83333	-5.90000e+01	
					         2.83500	-5.80000e+01	
					         2.83667	-5.70000e+01	
					         2.83833	-5.60000e+01	
					         2.84000	-5.50000e+01	
					         2.84167	-5.40000e+01	
					         2.84333	-5.30000e+01	
					         2.84500	-5.20000e+01	
					         2.84667	-5.20000e+01	
					         2.84833	-5.10000e+01	
					         2.85000	-5.00000e+01	
					         2.85167	-5.00000e+01	
					         2.85333	-4.90000e+01	
					         2.85500	-4.80000e+01	
					         2.85667	-4.70000e+01	
					         2.85833	-4.60000e+01	
					         2.86000	-4.40000e+01	
					         2.86167	-4.30000e+01	
					         2.86333	-4.10000e+01	
					         2.86500	-4.00000e+01	
					         2.86667	-3.90000e+01	
					         2.86833	-3.70000e+01	
					         2.87000	-3.60000e+01	
					         2.87167	-3.60000e+01	
					         2.87333	-3.50000e+01	
					         2.87500	-3.50000e+01	
					         2.87667	-3.40000e+01	
					         2.87833	-3.40000e+01	
					         2.88000	-3.50000e+01	
					         2.88167	-3.50000e+01	
					         2.88333	-3.50000e+01	
					         2.88500	-3.50000e+01	
					         2.88667	-3.40000e+01	
					         2.88833	-3.30000e+01	
					         2.89000	-3.30000e+01	
					         2.89167	-3.10000e+01	
					         2.89333	-3.00000e+01	
					         2.89500	-2.90000e+01	
					         2.89667	-2.70000e+01	
					         2.89833	-2.60000e+01	
					         2.90000	-2.40000e+01	
					         2.90167	-2.20000e+01	
					         2.90333	-2.10000e+01	
					         2.90500	-2.00000e+01	
					         2.90667	-2.00000e+01	
					         2.90833	-1.90000e+01	
					         2.91000	-1.90000e+01	
					         2.91167	-2.00000e+01	
					         2.91333	-2.00000e+01	
					         2.91500	-2.10000e+01	
					         2.91667	-2.10000e+01	
					         2.91833	-2.10000e+01	
					         2.92000	-2.20000e+01	
					         2.92167	-2.20000e+01	
					         2.92333	-2.20000e+01	
					         2.92500	-2.30000e+01	
					         2.92667	-2.30000e+01	
					         2.92833	-2.30000e+01	
					         2.93000	-2.30000e+01	
					         2.93167	-2.20000e+01	
					         2.93333	-2.20000e+01	
					         2.93500	-2.20000e+01	
					         2.93667	-2.20000e+01	
					         2.93833	-2.10000e+01	
					         2.94000	-2.00000e+01	
					         2.94167	-1.90000e+01	
					         2.94333	-1.90000e+01	
					         2.94500	-1.80000e+01	
					         2.94667	-1.70000e+01	
					         2.94833	-1.60000e+01	
					         2.95000	-1.50000e+01	
					         2.95167	-1.40000e+01	
					         2.95333	-1.40000e+01	
					         2.95500	-1.30000e+01	
					         2.95667	-1.30000e+01	
					         2.95833	-1.30000e+01	
					         2.96000	-1.30000e+01	
					         2.96167	-1.30000e+01	
					         2.96333	-1.30000e+01	
					         2.96500	-1.40000e+01	
					         2.96667	-1.40000e+01	
					         2.96833	-1.50000e+01	
					         2.97000	-1.50000e+01	
					         2.97167	-1.50000e+01	
					         2.97333	-1.50000e+01	
					         2.97500	-1.50000e+01	
					         2.97667	-1.50000e+01	
					         2.97833	-1.50000e+01	
					         2.98000	-1.50000e+01	
					         2.98167	-1.40000e+01	
					         2.98333	-1.40000e+01	
					         2.98500	-1.40000e+01	
					         2.98667	-1.40000e+01	
					         2.98833	-1.40000e+01	
					         2.99000	-1.40000e+01	
					         2.99167	-1.40000e+01	
					         2.99333	-1.50000e+01	
					         2.99500	-1.50000e+01	
					         2.99667	-1.60000e+01	
					         2.99833	-1.60000e+01	
					         3.00000	-1.70000e+01	
					         3.00167	-1.70000e+01	
					         3.00333	-1.80000e+01	
					         3.00500	-1.80000e+01	
					         3.00667	-1.80000e+01	
					         3.00833	-1.80000e+01	
					         3.01000	-1.80000e+01	
					         3.01167	-1.80000e+01	
					         3.01333	-1.80000e+01	
					         3.01500	-1.80000e+01	
					         3.01667	-1.80000e+01	
					         3.01833	-1.80000e+01	
					         3.02000	-1.70000e+01	
					         3.02167	-1.70000e+01	
					         3.02333	-1.70000e+01	
					         3.02500	-1.70000e+01	
					         3.02667	-1.60000e+01	
					         3.02833	-1.60000e+01	
					         3.03000	-1.60000e+01	
					         3.03167	-1.60000e+01	
					         3.03333	-1.50000e+01	
					         3.03500	-1.50000e+01	
					         3.03667	-1.50000e+01	
					         3.03833	-1.50000e+01	
					         3.04000	-1.50000e+01	
					         3.04167	-1.50000e+01	
					         3.04333	-1.60000e+01	
					         3.04500	-1.60000e+01	
					         3.04667	-1.60000e+01	
					         3.04833	-1.60000e+01	
					         3.05000	-1.60000e+01	
					         3.05167	-1.60000e+01	
					         3.05333	-1.60000e+01	
					         3.05500	-1.60000e+01	
					         3.05667	-1.50000e+01	
					         3.05833	-1.50000e+01	
					         3.06000	-1.50000e+01	
					         3.06167	-1.50000e+01	
					         3.06333	-1.50000e+01	
					         3.06500	-1.50000e+01	
					         3.06667	-1.50000e+01	
					         3.06833	-1.50000e+01	
					         3.07000	-1.60000e+01	
					         3.07167	-1.60000e+01	
					         3.07333	-1.60000e+01	
					         3.07500	-1.50000e+01	
					         3.07667	-1.50000e+01	
					         3.07833	-1.50000e+01	
					         3.08000	-1.40000e+01	
					         3.08167	-1.40000e+01	
					         3.08333	-1.30000e+01	
					         3.08500	-1.30000e+01	
					         3.08667	-1.30000e+01	
					         3.08833	-1.20000e+01	
					         3.09000	-1.20000e+01	
					         3.09167	-1.20000e+01	
					         3.09333	-1.20000e+01	
					         3.09500	-1.20000e+01	
					         3.09667	-1.20000e+01	
					         3.09833	-1.20000e+01	
					         3.10000	-1.20000e+01	
					         3.10167	-1.30000e+01	
					         3.10333	-1.30000e+01	
					         3.10500	-1.30000e+01	
					         3.10667	-1.40000e+01	
					         3.10833	-1.40000e+01	
					         3.11000	-1.40000e+01	
					         3.11167	-1.50000e+01	
					         3.11333	-1.50000e+01	
					         3.11500	-1.60000e+01	
					         3.11667	-1.60000e+01	
					         3.11833	-1.60000e+01	
					         3.12000	-1.70000e+01	
					         3.12167	-1.70000e+01	
					         3.12333	-1.70000e+01	
					         3.12500	-1.70000e+01	
					         3.12667	-1.70000e+01	
					         3.12833	-1.70000e+01	
					         3.13000	-1.60000e+01	
					         3.13167	-1.60000e+01	
					         3.13333	-1.50000e+01	
					         3.13500	-1.40000e+01	
					         3.13667	-1.40000e+01	
					         3.13833	-1.30000e+01	
					         3.14000	-1.30000e+01	
					         3.14167	-1.30000e+01	
					         3.14333	-1.20000e+01	
					         3.14500	-1.20000e+01	
					         3.14667	-1.20000e+01	
					         3.14833	-1.20000e+01	
					         3.15000	-1.30000e+01	
					         3.15167	-1.30000e+01	
					         3.15333	-1.40000e+01	
					         3.15500	-1.50000e+01	
					         3.15667	-1.50000e+01	
					         3.15833	-1.60000e+01	
					         3.16000	-1.70000e+01	
					         3.16167	-1.80000e+01	
					         3.16333	-1.80000e+01	
					         3.16500	-1.90000e+01	
					         3.16667	-1.90000e+01	
					         3.16833	-2.00000e+01	
					         3.17000	-2.00000e+01	
					         3.17167	-2.10000e+01	
					         3.17333	-2.10000e+01	
					         3.17500	-2.20000e+01	
					         3.17667	-2.30000e+01	
					         3.17833	-2.30000e+01	
					         3.18000	-2.40000e+01	
					         3.18167	-2.50000e+01	
					         3.18333	-2.50000e+01	
					         3.18500	-2.60000e+01	
					         3.18667	-2.60000e+01	
					         3.18833	-2.70000e+01	
					         3.19000	-2.70000e+01	
					         3.19167	-2.80000e+01	
					         3.19333	-2.80000e+01	
					         3.19500	-2.80000e+01	
					         3.19667	-2.80000e+01	
					         3.19833	-2.80000e+01	
					         3.20000	-2.80000e+01	
					         3.20167	-2.80000e+01	
					         3.20333	-2.80000e+01	
					         3.20500	-2.80000e+01	
					         3.20667	-2.80000e+01	
					         3.20833	-2.80000e+01	
					         3.21000	-2.80000e+01	
					         3.21167	-2.90000e+01	
					         3.21333	-2.90000e+01	
					         3.21500	-2.90000e+01	
					         3.21667	-2.90000e+01	
					         3.21833	-2.80000e+01	
					         3.22000	-2.80000e+01	
					         3.22167	-2.80000e+01	
					         3.22333	-2.70000e+01	
					         3.22500	-2.70000e+01	
					         3.22667	-2.70000e+01	
					         3.22833	-2.70000e+01	
					         3.23000	-2.70000e+01	
					         3.23167	-2.70000e+01	
					         3.23333	-2.80000e+01	
					         3.23500	-2.80000e+01	
					         3.23667	-2.80000e+01	
					         3.23833	-2.90000e+01	
					         3.24000	-2.90000e+01	
					         3.24167	-3.00000e+01	
					         3.24333	-3.10000e+01	
					         3.24500	-3.10000e+01	
					         3.24667	-3.10000e+01	
					         3.24833	-3.20000e+01	
					         3.25000	-3.20000e+01	
					         3.25167	-3.20000e+01	
					         3.25333	-3.20000e+01	
					         3.25500	-3.30000e+01	
					         3.25667	-3.30000e+01	
					         3.25833	-3.30000e+01	
					         3.26000	-3.30000e+01	
					         3.26167	-3.30000e+01	
					         3.26333	-3.20000e+01	
					         3.26500	-3.20000e+01	
					         3.26667	-3.20000e+01	
					         3.26833	-3.10000e+01	
					         3.27000	-3.10000e+01	
					         3.27167	-3.10000e+01	
					         3.27333	-3.10000e+01	
					         3.27500	-3.00000e+01	
					         3.27667	-3.00000e+01	
					         3.27833	-3.00000e+01	
					         3.28000	-3.00000e+01	
					         3.28167	-3.00000e+01	
					         3.28333	-3.00000e+01	
					         3.28500	-3.00000e+01	
					         3.28667	-3.00000e+01	
					         3.28833	-3.00000e+01	
					         3.29000	-3.00000e+01	
					         3.29167	-3.00000e+01	
					         3.29333	-3.00000e+01	
					         3.29500	-3.00000e+01	
					         3.29667	-3.00000e+01	
					         3.29833	-2.90000e+01	
					         3.30000	-2.90000e+01	
					         3.30167	-2.90000e+01	
					         3.30333	-2.90000e+01	
					         3.30500	-2.90000e+01	
					         3.30667	-3.00000e+01	
					         3.30833	-3.00000e+01	
					         3.31000	-3.10000e+01	
					         3.31167	-3.10000e+01	
					         3.31333	-3.20000e+01	
					         3.31500	-3.20000e+01	
					         3.31667	-3.30000e+01	
					         3.31833	-3.40000e+01	
					         3.32000	-3.40000e+01	
					         3.32167	-3.40000e+01	
					         3.32333	-3.40000e+01	
					         3.32500	-3.40000e+01	
					         3.32667	-3.40000e+01	
					         3.32833	-3.40000e+01	
					         3.33000	-3.30000e+01	
					         3.33167	-3.30000e+01	
					         3.33333	-3.30000e+01	
					         3.33500	-3.20000e+01	
					         3.33667	-3.20000e+01	
					         3.33833	-3.10000e+01	
					         3.34000	-3.10000e+01	
					         3.34167	-3.00000e+01	
					         3.34333	-3.00000e+01	
					         3.34500	-2.90000e+01	
					         3.34667	-2.90000e+01	
					         3.34833	-2.80000e+01	
					         3.35000	-2.80000e+01	
					         3.35167	-2.70000e+01	
					         3.35333	-2.70000e+01	
					         3.35500	-2.70000e+01	
					         3.35667	-2.60000e+01	
					         3.35833	-2.60000e+01	
					         3.36000	-2.60000e+01	
					         3.36167	-2.50000e+01	
					         3.36333	-2.50000e+01	
					         3.36500	-2.50000e+01	
					         3.36667	-2.50000e+01	
					         3.36833	-2.50000e+01	
					         3.37000	-2.50000e+01	
					         3.37167	-2.50000e+01	
					         3.37333	-2.50000e+01	
					         3.37500	-2.50000e+01	
					         3.37667	-2.40000e+01	
					         3.37833	-2.40000e+01	
					         3.38000	-2.40000e+01	
					         3.38167	-2.30000e+01	
					         3.38333	-2.30000e+01	
					         3.38500	-2.20000e+01	
					         3.38667	-2.10000e+01	
					         3.38833	-2.10000e+01	
					         3.39000	-2.00000e+01	
					         3.39167	-2.00000e+01	
					         3.39333	-1.90000e+01	
					         3.39500	-1.90000e+01	
					         3.39667	-1.90000e+01	
					         3.39833	-1.80000e+01	
					         3.40000	-1.80000e+01	
					         3.40167	-1.80000e+01	
					         3.40333	-1.80000e+01	
					         3.40500	-1.80000e+01	
					         3.40667	-1.80000e+01	
					         3.40833	-1.80000e+01	
					         3.41000	-1.80000e+01	
					         3.41167	-1.80000e+01	
					         3.41333	-1.80000e+01	
					         3.41500	-1.80000e+01	
					         3.41667	-1.80000e+01	
					         3.41833	-1.80000e+01	
					         3.42000	-1.80000e+01	
					         3.42167	-1.80000e+01	
					         3.42333	-1.70000e+01	
					         3.42500	-1.70000e+01	
					         3.42667	-1.60000e+01	
					         3.42833	-1.50000e+01	
					         3.43000	-1.50000e+01	
					         3.43167	-1.40000e+01	
					         3.43333	-1.40000e+01	
					         3.43500	-1.30000e+01	
					         3.43667	-1.30000e+01	
					         3.43833	-1.30000e+01	
					         3.44000	-1.30000e+01	
					         3.44167	-1.30000e+01	
					         3.44333	-1.30000e+01	
					         3.44500	-1.40000e+01	
					         3.44667	-1.40000e+01	
					         3.44833	-1.40000e+01	
					         3.45000	-1.40000e+01	
					         3.45167	-1.40000e+01	
					         3.45333	-1.40000e+01	
					         3.45500	-1.30000e+01	
					         3.45667	-1.20000e+01	
					         3.45833	-1.10000e+01	
					         3.46000	-1.00000e+01	
					         3.46167	-9.00000e+00	
					         3.46333	-7.00000e+00	
					         3.46500	-5.00000e+00	
					         3.46667	-2.00000e+00	
					         3.46833	0.00000e+00	
					         3.47000	2.00000e+00	
					         3.47167	4.00000e+00	
					         3.47333	5.00000e+00	
					         3.47500	7.00000e+00	
					         3.47667	8.00000e+00	
					         3.47833	1.00000e+01	
					         3.48000	1.10000e+01	
					         3.48167	1.10000e+01	
					         3.48333	1.10000e+01	
					         3.48500	1.10000e+01	
					         3.48667	1.00000e+01	
					         3.48833	9.00000e+00	
					         3.49000	8.00000e+00	
					         3.49167	7.00000e+00	
					         3.49333	5.00000e+00	
					         3.49500	3.00000e+00	
					         3.49667	1.00000e+00	
					         3.49833	0.00000e+00	
					         3.50000	-2.00000e+00	
					         3.50167	-4.00000e+00	
					         3.50333	-5.00000e+00	
					         3.50500	-7.00000e+00	
					         3.50667	-7.00000e+00	
					         3.50833	-8.00000e+00	
					         3.51000	-8.00000e+00	
					         3.51167	-9.00000e+00	
					         3.51333	-8.00000e+00	
					         3.51500	-8.00000e+00	
					         3.51667	-8.00000e+00	
					         3.51833	-7.00000e+00	
					         3.52000	-7.00000e+00	
					         3.52167	-6.00000e+00	
					         3.52333	-6.00000e+00	
					         3.52500	-5.00000e+00	
					         3.52667	-5.00000e+00	
					         3.52833	-5.00000e+00	
					         3.53000	-4.00000e+00	
					         3.53167	-5.00000e+00	
					         3.53333	-5.00000e+00	
					         3.53500	-5.00000e+00	
					         3.53667	-6.00000e+00	
					         3.53833	-6.00000e+00	
					         3.54000	-7.00000e+00	
					         3.54167	-8.00000e+00	
					         3.54333	-8.00000e+00	
					         3.54500	-9.00000e+00	
					         3.54667	-1.00000e+01	
					         3.54833	-1.00000e+01	
					         3.55000	-1.10000e+01	
					         3.55167	-1.10000e+01	
					         3.55333	-1.10000e+01	
					         3.55500	-1.20000e+01	
					         3.55667	-1.20000e+01	
					         3.55833	-1.20000e+01	
					         3.56000	-1.10000e+01	
					         3.56167	-1.10000e+01	
					         3.56333	-1.10000e+01	
					         3.56500	-1.00000e+01	
					         3.56667	-9.00000e+00	
					         3.56833	-8.00000e+00	
					         3.57000	-7.00000e+00	
					         3.57167	-6.00000e+00	
					         3.57333	-5.00000e+00	
					         3.57500	-3.00000e+00	
					         3.57667	-1.00000e+00	
					         3.57833	1.00000e+00	
					         3.58000	3.00000e+00	
					         3.58167	5.00000e+00	
					         3.58333	8.00000e+00	
					         3.58500	1.10000e+01	
					         3.58667	1.50000e+01	
					         3.58833	1.90000e+01	
					         3.59000	2.30000e+01	
					         3.59167	2.80000e+01	
					         3.59333	3.40000e+01	
					         3.59500	4.10000e+01	
					         3.59667	4.90000e+01	
					         3.59833	5.70000e+01	
					         3.60000	6.60000e+01	
					         3.60167	7.60000e+01	
					         3.60333	8.60000e+01	
					         3.60500	9.60000e+01	
					         3.60667	1.05000e+02	
					         3.60833	1.13000e+02	
					         3.61000	1.19000e+02	
					         3.61167	1.22000e+02	
					         3.61333	1.22000e+02	
					         3.61500	1.19000e+02	
					         3.61667	1.12000e+02	
					         3.61833	1.02000e+02	
					         3.62000	8.80000e+01	
					         3.62167	7.10000e+01	
					         3.62333	5.20000e+01	
					         3.62500	3.20000e+01	
					         3.62667	1.00000e+01	
					         3.62833	-1.10000e+01	
					         3.63000	-3.10000e+01	
					         3.63167	-4.90000e+01	
					         3.63333	-6.50000e+01	
					         3.63500	-7.80000e+01	
					         3.63667	-8.80000e+01	
					         3.63833	-9.50000e+01	
					         3.64000	-9.80000e+01	
					         3.64167	-9.90000e+01	
					         3.64333	-9.80000e+01	
					         3.64500	-9.50000e+01	
					         3.64667	-9.00000e+01	
					         3.64833	-8.30000e+01	
					         3.65000	-7.60000e+01	
					         3.65167	-6.90000e+01	
					         3.65333	-6.10000e+01	
					         3.65500	-5.40000e+01	
					         3.65667	-4.60000e+01	
					         3.65833	-4.00000e+01	
					         3.66000	-3.30000e+01	
					         3.66167	-2.80000e+01	
					         3.66333	-2.30000e+01	
					         3.66500	-1.90000e+01	
					         3.66667	-1.50000e+01	
					         3.66833	-1.30000e+01	
					         3.67000	-1.10000e+01	
					         3.67167	-9.00000e+00	
					         3.67333	-8.00000e+00	
					         3.67500	-7.00000e+00	
					         3.67667	-7.00000e+00	
					         3.67833	-7.00000e+00	
					         3.68000	-7.00000e+00	
					         3.68167	-7.00000e+00	
					         3.68333	-7.00000e+00	
