Grayscale intensity, in dB

Time (s) :	Trace 1 : 	Trace 2 : 	Trace 3 : 		Ecg : 		
0.00112   	-3.25708e+01	-4.40896e+01	-3.94246e+01		         0.00000	1.97000e+02	
0.01810   	-3.19465e+01	-4.39183e+01	-3.84652e+01		         0.00167	2.08000e+02	
0.03508   	-3.14686e+01	-4.27170e+01	-3.85803e+01		         0.00333	2.15000e+02	
0.05206   	-3.08880e+01	-4.39745e+01	-3.80334e+01		         0.00500	2.18000e+02	
0.06903   	-3.23013e+01	-4.43824e+01	-3.74410e+01		         0.00667	2.16000e+02	
0.08601   	-3.49806e+01	-4.78927e+01	-3.85935e+01		         0.00833	2.07000e+02	
0.10299   	-3.65097e+01	-4.89571e+01	-3.90959e+01		         0.01000	1.91000e+02	
0.11998   	-3.70862e+01	-4.64419e+01	-3.70430e+01		         0.01167	1.70000e+02	
0.13695   	-3.84045e+01	-4.34140e+01	-3.42119e+01		         0.01333	1.42000e+02	
0.15393   	-3.88781e+01	-4.15122e+01	-3.42023e+01		         0.01500	1.08000e+02	
0.17120   	-3.97760e+01	-4.10041e+01	-3.17980e+01		         0.01667	7.10000e+01	
0.18789   	-4.06309e+01	-4.06659e+01	-3.12279e+01		         0.01833	2.90000e+01	
0.20487   	-4.11519e+01	-3.98925e+01	-3.06787e+01		         0.02000	-1.50000e+01	
0.22185   	-4.18038e+01	-3.94903e+01	-3.16443e+01		         0.02167	-5.90000e+01	
0.23884   	-4.20751e+01	-4.06196e+01	-3.10885e+01		         0.02333	-1.02000e+02	
0.25582   	-4.23231e+01	-4.16613e+01	-3.18243e+01		         0.02500	-1.41000e+02	
0.27280   	-4.30397e+01	-4.36521e+01	-3.28794e+01		         0.02667	-1.76000e+02	
0.28978   	-4.30541e+01	-4.55308e+01	-3.36596e+01		         0.02833	-2.05000e+02	
0.30676   	-4.26906e+01	-4.72221e+01	-3.44067e+01		         0.03000	-2.27000e+02	
0.32374   	-4.29198e+01	-4.89313e+01	-3.65946e+01		         0.03167	-2.42000e+02	
0.34072   	-4.30688e+01	-4.96027e+01	-3.78285e+01		         0.03333	-2.52000e+02	
0.35770   	-4.33607e+01	-5.12891e+01	-4.05027e+01		         0.03500	-2.55000e+02	
0.37468   	-4.35491e+01	-5.22842e+01	-4.24830e+01		         0.03667	-2.53000e+02	
0.39166   	-4.35717e+01	-5.07907e+01	-4.24622e+01		         0.03833	-2.46000e+02	
0.40864   	-4.26884e+01	-5.16829e+01	-4.18077e+01		         0.04000	-2.36000e+02	
0.42562   	-4.09184e+01	-5.19693e+01	-4.21434e+01		         0.04167	-2.22000e+02	
0.44260   	-4.02207e+01	-5.19245e+01	-4.17873e+01		         0.04333	-2.06000e+02	
0.45958   	-4.16470e+01	-4.88761e+01	-4.21863e+01		         0.04500	-1.89000e+02	
0.47656   	-4.28064e+01	-4.73520e+01	-4.18837e+01		         0.04667	-1.70000e+02	
0.49354   	-4.32449e+01	-4.78445e+01	-3.97984e+01		         0.04833	-1.52000e+02	
0.51052   	-4.44645e+01	-4.49872e+01	-4.11098e+01		         0.05000	-1.33000e+02	
0.52750   	-4.59619e+01	-4.35205e+01	-3.97474e+01		         0.05167	-1.15000e+02	
0.54448   	-4.64934e+01	-4.27124e+01	-3.94726e+01		         0.05333	-9.80000e+01	
0.56146   	-4.70031e+01	-3.83941e+01	-3.98807e+01		         0.05500	-8.20000e+01	
0.57844   	-4.66069e+01	-3.70229e+01	-3.90797e+01		         0.05667	-6.70000e+01	
0.59542   	-4.67487e+01	-3.69207e+01	-3.73090e+01		         0.05833	-5.30000e+01	
0.61240   	-4.27163e+01	-3.73472e+01	-3.62635e+01		         0.06000	-4.10000e+01	
0.62938   	-3.99248e+01	-3.81001e+01	-3.61163e+01		         0.06167	-3.00000e+01	
0.64636   	-3.81370e+01	-3.71536e+01	-3.61621e+01		         0.06333	-2.00000e+01	
0.66334   	-3.75521e+01	-3.75420e+01	-3.67799e+01		         0.06500	-1.20000e+01	
0.68032   	-3.75836e+01	-3.68396e+01	-3.61338e+01		         0.06667	-4.00000e+00	
0.69730   	-3.76733e+01	-3.77458e+01	-3.60217e+01		         0.06833	2.00000e+00	
0.71428   	-3.76909e+01	-3.87555e+01	-3.64255e+01		         0.07000	8.00000e+00	
0.73126   	-3.74034e+01	-3.83240e+01	-3.65135e+01		         0.07167	1.20000e+01	
0.74824   	-3.69506e+01	-3.75611e+01	-3.68903e+01		         0.07333	1.40000e+01	
0.76522   	-3.65686e+01	-3.69267e+01	-3.68693e+01		         0.07500	1.60000e+01	
0.78220   	-3.66736e+01	-3.64924e+01	-3.66155e+01		         0.07667	1.70000e+01	
0.79918   	-3.67850e+01	-3.69119e+01	-3.65057e+01		         0.07833	1.80000e+01	
0.81616   	-3.67548e+01	-3.76076e+01	-3.68636e+01		         0.08000	1.70000e+01	
0.83314   	-3.66309e+01	-3.75872e+01	-3.73986e+01		         0.08167	1.60000e+01	
0.85012   	-3.65856e+01	-3.75525e+01	-3.71203e+01		         0.08333	1.50000e+01	
0.86710   	-3.65275e+01	-3.78570e+01	-3.67358e+01		         0.08500	1.30000e+01	
0.88408   	-3.64147e+01	-3.85500e+01	-3.67123e+01		         0.08667	1.10000e+01	
0.90106   	-3.83610e+01	-4.06823e+01	-3.89050e+01		         0.08833	1.00000e+01	
0.91831   	-3.83786e+01	-4.09392e+01	-3.89675e+01		         0.09000	9.00000e+00	
0.93502   	-3.84433e+01	-4.13263e+01	-3.87922e+01		         0.09167	8.00000e+00	
0.95200   	-3.86758e+01	-3.96787e+01	-3.84357e+01		         0.09333	8.00000e+00	
0.96898   	-3.92446e+01	-4.34296e+01	-3.80301e+01		         0.09500	7.00000e+00	
0.98596   	-4.00636e+01	-4.91520e+01	-3.69357e+01		         0.09667	7.00000e+00	
1.00294   	-4.03919e+01	-5.00253e+01	-3.80936e+01		         0.09833	6.00000e+00	
1.01992   	-4.02479e+01	-4.83847e+01	-3.85729e+01		         0.10000	6.00000e+00	
1.03690   	-4.01051e+01	-4.99612e+01	-3.90938e+01		         0.10167	6.00000e+00	
1.05388   	-3.96199e+01	-4.88721e+01	-3.99033e+01		         0.10333	5.00000e+00	
1.07086   	-3.83328e+01	-4.86819e+01	-4.15122e+01		         0.10500	5.00000e+00	
1.08784   	-3.76007e+01	-4.81027e+01	-4.06629e+01		         0.10667	4.00000e+00	
1.10482   	-3.75570e+01	-4.82605e+01	-3.96107e+01		         0.10833	3.00000e+00	
1.12180   	-3.75829e+01	-4.96581e+01	-3.95125e+01		         0.11000	2.00000e+00	
1.13878   	-3.82154e+01	-5.07957e+01	-3.89418e+01		         0.11167	1.00000e+00	
1.15576   	-3.87188e+01	-5.28535e+01	-3.86902e+01		         0.11333	0.00000e+00	
1.17274   	-3.99040e+01	-5.09396e+01	-3.84644e+01		         0.11500	0.00000e+00	
1.18972   	-4.03181e+01	-4.85443e+01	-3.67245e+01		         0.11667	0.00000e+00	
1.20670   	-4.15501e+01	-4.47889e+01	-3.52081e+01		         0.11833	0.00000e+00	
1.22368   	-4.16243e+01	-4.41091e+01	-3.54484e+01		         0.12000	1.00000e+00	
1.24066   	-4.15651e+01	-4.33966e+01	-3.53111e+01		         0.12167	2.00000e+00	
1.25764   	-4.18692e+01	-4.16102e+01	-3.53111e+01		         0.12333	2.00000e+00	
1.27462   	-4.21749e+01	-4.09620e+01	-3.39425e+01		         0.12500	3.00000e+00	
1.29160   	-4.29149e+01	-4.05551e+01	-3.45537e+01		         0.12667	4.00000e+00	
1.30858   	-4.32761e+01	-4.15222e+01	-3.44878e+01		         0.12833	6.00000e+00	
1.32556   	-4.40114e+01	-4.24000e+01	-3.36153e+01		         0.13000	7.00000e+00	
1.34254   	-4.46933e+01	-4.55932e+01	-3.61640e+01		         0.13167	8.00000e+00	
1.35952   	-4.43181e+01	-4.68097e+01	-3.74086e+01		         0.13333	9.00000e+00	
1.37650   	-4.39019e+01	-4.88230e+01	-3.94494e+01		         0.13500	1.00000e+01	
1.39348   	-4.41510e+01	-4.87983e+01	-4.34441e+01		         0.13667	1.10000e+01	
1.41046   	-4.44037e+01	-5.26881e+01	-4.64245e+01		         0.13833	1.10000e+01	
1.42744   	-4.47150e+01	-5.33629e+01	-4.54578e+01		         0.14000	1.20000e+01	
1.44442   	-4.49728e+01	-5.01302e+01	-4.71925e+01		         0.14167	1.20000e+01	
1.46140   	-4.48693e+01	-5.37922e+01	-4.50652e+01		         0.14333	1.30000e+01	
1.47838   	-4.48288e+01	-5.30363e+01	-4.56072e+01		         0.14500	1.30000e+01	
1.49536   	-4.43786e+01	-5.26525e+01	-4.43476e+01		         0.14667	1.40000e+01	
1.51234   	-4.38341e+01	-5.40501e+01	-4.43954e+01		         0.14833	1.40000e+01	
1.52932   	-4.38586e+01	-5.65038e+01	-4.37230e+01		         0.15000	1.50000e+01	
1.54630   	-4.34573e+01	-5.57650e+01	-4.46725e+01		         0.15167	1.60000e+01	
1.56328   	-4.36229e+01	-5.69098e+01	-4.34905e+01		         0.15333	1.70000e+01	
1.58026   	-4.31553e+01	-5.57936e+01	-3.81860e+01		         0.15500	1.70000e+01	
1.59724   	-4.26935e+01	-5.32696e+01	-3.99778e+01		         0.15667	1.80000e+01	
1.61422   	-4.34642e+01	-5.00776e+01	-3.96495e+01		         0.15833	1.90000e+01	
1.63120   	-4.21101e+01	-4.73399e+01	-4.10132e+01		         0.16000	1.90000e+01	
1.64818   	-4.21426e+01	-4.20912e+01	-3.80008e+01		         0.16167	2.00000e+01	
1.66524   	-4.04381e+01	-4.17779e+01	-3.70171e+01		         0.16333	2.00000e+01	
1.68214   	-3.83225e+01	-4.36998e+01	-3.54321e+01		         0.16500	2.00000e+01	
1.69912   	-3.81916e+01	-4.37781e+01	-3.49430e+01		         0.16667	2.00000e+01	
1.71610   	-3.87884e+01	-4.39439e+01	-3.60487e+01		         0.16833	1.90000e+01	
1.73308   	-3.93298e+01	-4.43790e+01	-3.53800e+01		         0.17000	1.80000e+01	
1.75006   	-3.91168e+01	-4.39016e+01	-3.63790e+01		         0.17167	1.60000e+01	
1.76704   	-3.88270e+01	-4.37010e+01	-3.59813e+01		         0.17333	1.50000e+01	
1.78402   	-3.87330e+01	-4.39820e+01	-3.59878e+01		         0.17500	1.30000e+01	
1.80100   	-3.88730e+01	-4.30305e+01	-3.59905e+01		         0.17667	1.20000e+01	
1.81798   	-3.89337e+01	-4.15215e+01	-3.56082e+01		         0.17833	1.20000e+01	
1.83496   	-3.88962e+01	-4.11332e+01	-3.51505e+01		         0.18000	1.10000e+01	
1.85194   	-3.87129e+01	-4.10483e+01	-3.52420e+01		         0.18167	1.10000e+01	
1.86892   	-3.85251e+01	-4.07236e+01	-3.59299e+01		         0.18333	1.10000e+01	
1.88590   	-3.85752e+01	-3.99751e+01	-3.56000e+01		         0.18500	1.10000e+01	
1.90288   	-3.87014e+01	-3.99968e+01	-3.60045e+01		         0.18667	1.10000e+01	
1.91986   	-3.88298e+01	-3.97221e+01	-3.57074e+01		         0.18833	1.20000e+01	
1.93684   	-3.89834e+01	-3.98811e+01	-3.55535e+01		         0.19000	1.20000e+01	
1.95382   	-3.90448e+01	-4.00510e+01	-3.52165e+01		         0.19167	1.20000e+01	
1.97080   	-3.90106e+01	-4.01495e+01	-3.50142e+01		         0.19333	1.20000e+01	
1.98778   	-3.89064e+01	-3.99870e+01	-3.51235e+01		         0.19500	1.20000e+01	
2.00476   	-3.89738e+01	-4.13452e+01	-3.51820e+01		         0.19667	1.10000e+01	
2.02174   	-3.93542e+01	-4.67099e+01	-3.47079e+01		         0.19833	1.00000e+01	
2.03872   	-3.90913e+01	-4.83138e+01	-3.59940e+01		         0.20000	1.00000e+01	
2.05570   	-3.91354e+01	-4.95904e+01	-3.55222e+01		         0.20167	9.00000e+00	
2.07268   	-3.96307e+01	-5.33937e+01	-3.56499e+01		         0.20333	8.00000e+00	
2.08966   	-4.07581e+01	-5.28782e+01	-3.58959e+01		         0.20500	8.00000e+00	
2.10664   	-3.95945e+01	-5.17166e+01	-3.74575e+01		         0.20667	7.00000e+00	
2.12362   	-3.94834e+01	-5.03528e+01	-3.67551e+01		         0.20833	6.00000e+00	
2.14060   	-3.87185e+01	-4.93598e+01	-3.72273e+01		         0.21000	5.00000e+00	
2.15758   	-3.80692e+01	-4.83187e+01	-3.71998e+01		         0.21167	5.00000e+00	
2.17456   	-3.72678e+01	-4.68444e+01	-3.65801e+01		         0.21333	4.00000e+00	
2.19154   	-3.73483e+01	-4.86466e+01	-3.68287e+01		         0.21500	3.00000e+00	
2.20852   	-3.83485e+01	-5.17427e+01	-3.69937e+01		         0.21667	2.00000e+00	
2.22550   	-3.89407e+01	-5.25744e+01	-3.75503e+01		         0.21833	2.00000e+00	
2.24248   	-3.92167e+01	-4.66034e+01	-3.52566e+01		         0.22000	1.00000e+00	
2.25946   	-3.89745e+01	-4.61342e+01	-3.33329e+01		         0.22167	1.00000e+00	
2.27644   	-4.04024e+01	-4.43743e+01	-3.19397e+01		         0.22333	1.00000e+00	
2.29342   	-4.08032e+01	-4.11745e+01	-3.10933e+01		         0.22500	2.00000e+00	
2.31040   	-4.08896e+01	-3.95235e+01	-3.20136e+01		         0.22667	2.00000e+00	
2.32738   	-4.14854e+01	-3.99750e+01	-3.15858e+01		         0.22833	3.00000e+00	
2.34436   	-4.21145e+01	-4.01507e+01	-3.22967e+01		         0.23000	4.00000e+00	
2.36134   	-4.30918e+01	-4.02953e+01	-3.21462e+01		         0.23167	6.00000e+00	
2.37832   	-4.27312e+01	-4.11730e+01	-3.30614e+01		         0.23333	8.00000e+00	
2.39530   	-4.39764e+01	-4.23396e+01	-3.34699e+01		         0.23500	1.00000e+01	
2.41233   	-4.38119e+01	-4.46907e+01	-3.31752e+01		         0.23667	1.30000e+01	
2.42926   	-4.37956e+01	-4.71263e+01	-3.52210e+01		         0.23833	1.50000e+01	
2.44624   	-4.41238e+01	-4.73593e+01	-3.68832e+01		         0.24000	1.70000e+01	
2.46322   	-4.47206e+01	-4.92628e+01	-3.71519e+01		         0.24167	1.80000e+01	
2.48020   	-4.49570e+01	-5.06157e+01	-4.05702e+01		         0.24333	1.90000e+01	
2.49718   	-4.50153e+01	-5.27970e+01	-4.07213e+01		         0.24500	2.00000e+01	
2.51416   	-4.47815e+01	-5.40525e+01	-4.31517e+01		         0.24667	2.00000e+01	
2.53114   	-4.46233e+01	-5.20267e+01	-4.24179e+01		         0.24833	2.00000e+01	
2.54813   	-4.29318e+01	-5.09582e+01	-4.22747e+01		         0.25000	1.90000e+01	
2.56510   	-4.24690e+01	-5.17759e+01	-4.04419e+01		         0.25167	1.90000e+01	
2.58208   	-4.36412e+01	-4.84255e+01	-4.15431e+01		         0.25333	1.70000e+01	
2.59907   	-4.43515e+01	-4.70526e+01	-3.88486e+01		         0.25500	1.60000e+01	
2.61604   	-4.52487e+01	-4.78016e+01	-3.78245e+01		         0.25667	1.40000e+01	
2.63302   	-4.55240e+01	-4.52870e+01	-3.56797e+01		         0.25833	1.30000e+01	
2.65000   	-4.62238e+01	-4.58457e+01	-3.74900e+01		         0.26000	1.20000e+01	
2.66698   	-4.69374e+01	-4.36695e+01	-3.91326e+01		         0.26167	1.20000e+01	
2.68396   	-4.73930e+01	-3.96621e+01	-3.83534e+01		         0.26333	1.20000e+01	
2.70094   	-4.70008e+01	-3.93401e+01	-3.85075e+01		         0.26500	1.20000e+01	
2.71792   	-4.52433e+01	-3.91090e+01	-3.41739e+01		         0.26667	1.40000e+01	
2.73490   	-4.21434e+01	-3.80899e+01	-3.64490e+01		         0.26833	1.50000e+01	
2.75188   	-3.93795e+01	-3.94526e+01	-3.53310e+01		         0.27000	1.80000e+01	
2.76886   	-3.93804e+01	-3.87600e+01	-3.54339e+01		         0.27167	2.00000e+01	
2.78585   	-3.93587e+01	-3.87163e+01	-3.48060e+01		         0.27333	2.20000e+01	
2.80282   	-3.93393e+01	-3.84974e+01	-3.65439e+01		         0.27500	2.50000e+01	
2.81980   	-3.88235e+01	-3.95516e+01	-3.62089e+01		         0.27667	2.70000e+01	
2.83678   	-3.85242e+01	-4.08683e+01	-3.58474e+01		         0.27833	2.90000e+01	
2.85376   	-3.80696e+01	-4.07376e+01	-3.57455e+01		         0.28000	3.00000e+01	
2.87074   	-3.78378e+01	-4.00804e+01	-3.59182e+01		         0.28167	3.10000e+01	
2.88772   	-3.75390e+01	-3.91727e+01	-3.59625e+01		         0.28333	3.10000e+01	
2.90470   	-3.75934e+01	-3.92933e+01	-3.59281e+01		         0.28500	3.00000e+01	
2.92168   	-3.77891e+01	-3.91142e+01	-3.58228e+01		         0.28667	2.90000e+01	
2.93866   	-3.78258e+01	-3.84860e+01	-3.62402e+01		         0.28833	2.70000e+01	
2.95565   	-3.77625e+01	-3.82486e+01	-3.64843e+01		         0.29000	2.40000e+01	
2.97262   	-3.75242e+01	-3.82270e+01	-3.66157e+01		         0.29167	2.20000e+01	
2.98960   	-3.72593e+01	-3.86821e+01	-3.66872e+01		         0.29333	1.90000e+01	
3.00658   	-3.71172e+01	-3.94241e+01	-3.67544e+01		         0.29500	1.60000e+01	
3.02356   	-3.69940e+01	-4.00417e+01	-3.67449e+01		         0.29667	1.30000e+01	
3.04054   	-3.68321e+01	-4.12539e+01	-3.67830e+01		         0.29833	1.00000e+01	
3.05752   	-3.68020e+01	-4.13742e+01	-3.68581e+01		         0.30000	7.00000e+00	
3.07450   	-3.69036e+01	-4.05404e+01	-3.68183e+01		         0.30167	4.00000e+00	
3.09148   	-3.74068e+01	-4.51838e+01	-3.58886e+01		         0.30333	1.00000e+00	
3.10846   	-3.82709e+01	-4.69749e+01	-3.60268e+01		         0.30500	-2.00000e+00	
3.12544   	-3.77004e+01	-5.09328e+01	-3.61073e+01		         0.30667	-3.00000e+00	
3.14274   	-3.71680e+01	-4.79703e+01	-3.75008e+01		         0.30833	-5.00000e+00	
3.15964   	-3.70071e+01	-4.74441e+01	-3.67326e+01		         0.31000	-5.00000e+00	
3.17638   	-3.53079e+01	-4.64234e+01	-3.83212e+01		         0.31167	-5.00000e+00	
3.19336   	-3.41120e+01	-4.56653e+01	-3.99908e+01		         0.31333	-5.00000e+00	
3.21034   	-3.37267e+01	-4.64073e+01	-3.98357e+01		         0.31500	-5.00000e+00	
3.22732   	-3.28487e+01	-4.58075e+01	-3.85735e+01		         0.31667	-5.00000e+00	
3.24430   	-3.31866e+01	-4.67796e+01	-3.82863e+01		         0.31833	-4.00000e+00	
					         0.32000	-2.00000e+00	
					         0.32167	-1.00000e+00	
					         0.32333	1.00000e+00	
					         0.32500	3.00000e+00	
					         0.32667	4.00000e+00	
					         0.32833	6.00000e+00	
					         0.33000	7.00000e+00	
					         0.33167	8.00000e+00	
					         0.33333	8.00000e+00	
					         0.33500	9.00000e+00	
					         0.33667	9.00000e+00	
					         0.33833	9.00000e+00	
					         0.34000	9.00000e+00	
					         0.34167	8.00000e+00	
					         0.34333	7.00000e+00	
					         0.34500	6.00000e+00	
					         0.34667	5.00000e+00	
					         0.34833	4.00000e+00	
					         0.35000	2.00000e+00	
					         0.35167	1.00000e+00	
					         0.35333	-1.00000e+00	
					         0.35500	-3.00000e+00	
					         0.35667	-5.00000e+00	
					         0.35833	-6.00000e+00	
					         0.36000	-7.00000e+00	
					         0.36167	-8.00000e+00	
					         0.36333	-8.00000e+00	
					         0.36500	-8.00000e+00	
					         0.36667	-8.00000e+00	
					         0.36833	-8.00000e+00	
					         0.37000	-7.00000e+00	
					         0.37167	-8.00000e+00	
					         0.37333	-8.00000e+00	
					         0.37500	-8.00000e+00	
					         0.37667	-8.00000e+00	
					         0.37833	-9.00000e+00	
					         0.38000	-1.00000e+01	
					         0.38167	-1.10000e+01	
					         0.38333	-1.20000e+01	
					         0.38500	-1.30000e+01	
					         0.38667	-1.40000e+01	
					         0.38833	-1.60000e+01	
					         0.39000	-1.70000e+01	
					         0.39167	-1.80000e+01	
					         0.39333	-1.80000e+01	
					         0.39500	-1.90000e+01	
					         0.39667	-1.90000e+01	
					         0.39833	-2.00000e+01	
					         0.40000	-2.00000e+01	
					         0.40167	-2.10000e+01	
					         0.40333	-2.10000e+01	
					         0.40500	-2.20000e+01	
					         0.40667	-2.20000e+01	
					         0.40833	-2.20000e+01	
					         0.41000	-2.20000e+01	
					         0.41167	-2.10000e+01	
					         0.41333	-2.10000e+01	
					         0.41500	-2.00000e+01	
					         0.41667	-2.00000e+01	
					         0.41833	-1.90000e+01	
					         0.42000	-1.80000e+01	
					         0.42167	-1.70000e+01	
					         0.42333	-1.50000e+01	
					         0.42500	-1.40000e+01	
					         0.42667	-1.40000e+01	
					         0.42833	-1.30000e+01	
					         0.43000	-1.20000e+01	
					         0.43167	-1.10000e+01	
					         0.43333	-1.00000e+01	
					         0.43500	-9.00000e+00	
					         0.43667	-9.00000e+00	
					         0.43833	-8.00000e+00	
					         0.44000	-7.00000e+00	
					         0.44167	-6.00000e+00	
					         0.44333	-6.00000e+00	
					         0.44500	-5.00000e+00	
					         0.44667	-4.00000e+00	
					         0.44833	-3.00000e+00	
					         0.45000	-3.00000e+00	
					         0.45167	-2.00000e+00	
					         0.45333	-2.00000e+00	
					         0.45500	-1.00000e+00	
					         0.45667	-1.00000e+00	
					         0.45833	-1.00000e+00	
					         0.46000	-2.00000e+00	
					         0.46167	-2.00000e+00	
					         0.46333	-3.00000e+00	
					         0.46500	-3.00000e+00	
					         0.46667	-4.00000e+00	
					         0.46833	-6.00000e+00	
					         0.47000	-7.00000e+00	
					         0.47167	-7.00000e+00	
					         0.47333	-8.00000e+00	
					         0.47500	-8.00000e+00	
					         0.47667	-7.00000e+00	
					         0.47833	-6.00000e+00	
					         0.48000	-5.00000e+00	
					         0.48167	-3.00000e+00	
					         0.48333	-1.00000e+00	
					         0.48500	2.00000e+00	
					         0.48667	4.00000e+00	
					         0.48833	6.00000e+00	
					         0.49000	8.00000e+00	
					         0.49167	1.00000e+01	
					         0.49333	1.10000e+01	
					         0.49500	1.10000e+01	
					         0.49667	1.00000e+01	
					         0.49833	9.00000e+00	
					         0.50000	8.00000e+00	
					         0.50167	6.00000e+00	
					         0.50333	3.00000e+00	
					         0.50500	1.00000e+00	
					         0.50667	-1.00000e+00	
					         0.50833	-3.00000e+00	
					         0.51000	-4.00000e+00	
					         0.51167	-5.00000e+00	
					         0.51333	-5.00000e+00	
					         0.51500	-4.00000e+00	
					         0.51667	-3.00000e+00	
					         0.51833	-2.00000e+00	
					         0.52000	0.00000e+00	
					         0.52167	2.00000e+00	
					         0.52333	5.00000e+00	
					         0.52500	7.00000e+00	
					         0.52667	9.00000e+00	
					         0.52833	1.10000e+01	
					         0.53000	1.30000e+01	
					         0.53167	1.40000e+01	
					         0.53333	1.60000e+01	
					         0.53500	1.70000e+01	
					         0.53667	1.70000e+01	
					         0.53833	1.70000e+01	
					         0.54000	1.70000e+01	
					         0.54167	1.70000e+01	
					         0.54333	1.70000e+01	
					         0.54500	1.60000e+01	
					         0.54667	1.60000e+01	
					         0.54833	1.60000e+01	
					         0.55000	1.50000e+01	
					         0.55167	1.40000e+01	
					         0.55333	1.30000e+01	
					         0.55500	1.30000e+01	
					         0.55667	1.20000e+01	
					         0.55833	1.20000e+01	
					         0.56000	1.10000e+01	
					         0.56167	1.10000e+01	
					         0.56333	1.00000e+01	
					         0.56500	1.00000e+01	
					         0.56667	1.00000e+01	
					         0.56833	1.00000e+01	
					         0.57000	1.00000e+01	
					         0.57167	1.00000e+01	
					         0.57333	9.00000e+00	
					         0.57500	9.00000e+00	
					         0.57667	8.00000e+00	
					         0.57833	7.00000e+00	
					         0.58000	5.00000e+00	
					         0.58167	4.00000e+00	
					         0.58333	2.00000e+00	
					         0.58500	1.00000e+00	
					         0.58667	-1.00000e+00	
					         0.58833	-3.00000e+00	
					         0.59000	-4.00000e+00	
					         0.59167	-6.00000e+00	
					         0.59333	-8.00000e+00	
					         0.59500	-9.00000e+00	
					         0.59667	-1.10000e+01	
					         0.59833	-1.20000e+01	
					         0.60000	-1.30000e+01	
					         0.60167	-1.30000e+01	
					         0.60333	-1.40000e+01	
					         0.60500	-1.40000e+01	
					         0.60667	-1.40000e+01	
					         0.60833	-1.40000e+01	
					         0.61000	-1.50000e+01	
					         0.61167	-1.50000e+01	
					         0.61333	-1.40000e+01	
					         0.61500	-1.40000e+01	
					         0.61667	-1.30000e+01	
					         0.61833	-1.30000e+01	
					         0.62000	-1.20000e+01	
					         0.62167	-1.20000e+01	
					         0.62333	-1.10000e+01	
					         0.62500	-1.10000e+01	
					         0.62667	-1.20000e+01	
					         0.62833	-1.20000e+01	
					         0.63000	-1.20000e+01	
					         0.63167	-1.20000e+01	
					         0.63333	-1.30000e+01	
					         0.63500	-1.40000e+01	
					         0.63667	-1.40000e+01	
					         0.63833	-1.50000e+01	
					         0.64000	-1.60000e+01	
					         0.64167	-1.60000e+01	
					         0.64333	-1.70000e+01	
					         0.64500	-1.70000e+01	
					         0.64667	-1.60000e+01	
					         0.64833	-1.60000e+01	
					         0.65000	-1.40000e+01	
					         0.65167	-1.30000e+01	
					         0.65333	-1.10000e+01	
					         0.65500	-9.00000e+00	
					         0.65667	-7.00000e+00	
					         0.65833	-5.00000e+00	
					         0.66000	-4.00000e+00	
					         0.66167	-2.00000e+00	
					         0.66333	-1.00000e+00	
					         0.66500	0.00000e+00	
					         0.66667	0.00000e+00	
					         0.66833	-1.00000e+00	
					         0.67000	-2.00000e+00	
					         0.67167	-3.00000e+00	
					         0.67333	-4.00000e+00	
					         0.67500	-6.00000e+00	
					         0.67667	-8.00000e+00	
					         0.67833	-1.00000e+01	
					         0.68000	-1.10000e+01	
					         0.68167	-1.20000e+01	
					         0.68333	-1.20000e+01	
					         0.68500	-1.20000e+01	
					         0.68667	-1.10000e+01	
					         0.68833	-1.00000e+01	
					         0.69000	-9.00000e+00	
					         0.69167	-8.00000e+00	
					         0.69333	-6.00000e+00	
					         0.69500	-5.00000e+00	
					         0.69667	-5.00000e+00	
					         0.69833	-4.00000e+00	
					         0.70000	-4.00000e+00	
					         0.70167	-4.00000e+00	
					         0.70333	-4.00000e+00	
					         0.70500	-5.00000e+00	
					         0.70667	-6.00000e+00	
					         0.70833	-6.00000e+00	
					         0.71000	-7.00000e+00	
					         0.71167	-8.00000e+00	
					         0.71333	-8.00000e+00	
					         0.71500	-9.00000e+00	
					         0.71667	-9.00000e+00	
					         0.71833	-9.00000e+00	
					         0.72000	-9.00000e+00	
					         0.72167	-9.00000e+00	
					         0.72333	-9.00000e+00	
					         0.72500	-9.00000e+00	
					         0.72667	-8.00000e+00	
					         0.72833	-9.00000e+00	
					         0.73000	-9.00000e+00	
					         0.73167	-9.00000e+00	
					         0.73333	-9.00000e+00	
					         0.73500	-9.00000e+00	
					         0.73667	-9.00000e+00	
					         0.73833	-9.00000e+00	
					         0.74000	-9.00000e+00	
					         0.74167	-9.00000e+00	
					         0.74333	-8.00000e+00	
					         0.74500	-7.00000e+00	
					         0.74667	-6.00000e+00	
					         0.74833	-6.00000e+00	
					         0.75000	-5.00000e+00	
					         0.75167	-4.00000e+00	
					         0.75333	-3.00000e+00	
					         0.75500	-2.00000e+00	
					         0.75667	-2.00000e+00	
					         0.75833	-1.00000e+00	
					         0.76000	-1.00000e+00	
					         0.76167	-1.00000e+00	
					         0.76333	-1.00000e+00	
					         0.76500	-2.00000e+00	
					         0.76667	-4.00000e+00	
					         0.76833	-5.00000e+00	
					         0.77000	-6.00000e+00	
					         0.77167	-7.00000e+00	
					         0.77333	-8.00000e+00	
					         0.77500	-8.00000e+00	
					         0.77667	-9.00000e+00	
					         0.77833	-9.00000e+00	
					         0.78000	-9.00000e+00	
					         0.78167	-9.00000e+00	
					         0.78333	-8.00000e+00	
					         0.78500	-7.00000e+00	
					         0.78667	-6.00000e+00	
					         0.78833	-4.00000e+00	
					         0.79000	-3.00000e+00	
					         0.79167	-1.00000e+00	
					         0.79333	0.00000e+00	
					         0.79500	1.00000e+00	
					         0.79667	2.00000e+00	
					         0.79833	3.00000e+00	
					         0.80000	3.00000e+00	
					         0.80167	3.00000e+00	
					         0.80333	3.00000e+00	
					         0.80500	3.00000e+00	
					         0.80667	2.00000e+00	
					         0.80833	1.00000e+00	
					         0.81000	0.00000e+00	
					         0.81167	-1.00000e+00	
					         0.81333	-1.00000e+00	
					         0.81500	-2.00000e+00	
					         0.81667	-3.00000e+00	
					         0.81833	-3.00000e+00	
					         0.82000	-3.00000e+00	
					         0.82167	-3.00000e+00	
					         0.82333	-3.00000e+00	
					         0.82500	-2.00000e+00	
					         0.82667	-2.00000e+00	
					         0.82833	-1.00000e+00	
					         0.83000	-1.00000e+00	
					         0.83167	-2.00000e+00	
					         0.83333	-2.00000e+00	
					         0.83500	-2.00000e+00	
					         0.83667	-3.00000e+00	
					         0.83833	-3.00000e+00	
					         0.84000	-3.00000e+00	
					         0.84167	-3.00000e+00	
					         0.84333	-2.00000e+00	
					         0.84500	-2.00000e+00	
					         0.84667	-1.00000e+00	
					         0.84833	0.00000e+00	
					         0.85000	1.00000e+00	
					         0.85167	2.00000e+00	
					         0.85333	3.00000e+00	
					         0.85500	5.00000e+00	
					         0.85667	6.00000e+00	
					         0.85833	7.00000e+00	
					         0.86000	7.00000e+00	
					         0.86167	8.00000e+00	
					         0.86333	8.00000e+00	
					         0.86500	7.00000e+00	
					         0.86667	7.00000e+00	
					         0.86833	6.00000e+00	
					         0.87000	5.00000e+00	
					         0.87167	5.00000e+00	
					         0.87333	4.00000e+00	
					         0.87500	4.00000e+00	
					         0.87667	4.00000e+00	
					         0.87833	5.00000e+00	
					         0.88000	6.00000e+00	
					         0.88167	6.00000e+00	
					         0.88333	8.00000e+00	
					         0.88500	9.00000e+00	
					         0.88667	1.10000e+01	
					         0.88833	1.30000e+01	
					         0.89000	1.50000e+01	
					         0.89167	1.70000e+01	
					         0.89333	1.90000e+01	
					         0.89500	2.00000e+01	
					         0.89667	2.20000e+01	
					         0.89833	2.30000e+01	
					         0.90000	2.40000e+01	
					         0.90167	2.50000e+01	
					         0.90333	2.70000e+01	
					         0.90500	2.90000e+01	
					         0.90667	3.10000e+01	
					         0.90833	3.30000e+01	
					         0.91000	3.60000e+01	
					         0.91167	3.70000e+01	
					         0.91333	3.90000e+01	
					         0.91500	4.00000e+01	
					         0.91667	4.10000e+01	
					         0.91833	4.20000e+01	
					         0.92000	4.20000e+01	
					         0.92167	4.10000e+01	
					         0.92333	3.90000e+01	
					         0.92500	3.70000e+01	
					         0.92667	3.30000e+01	
					         0.92833	2.90000e+01	
					         0.93000	2.50000e+01	
					         0.93167	2.10000e+01	
					         0.93333	1.60000e+01	
					         0.93500	1.20000e+01	
					         0.93667	8.00000e+00	
					         0.93833	4.00000e+00	
					         0.94000	1.00000e+00	
					         0.94167	-1.00000e+00	
					         0.94333	-3.00000e+00	
					         0.94500	-5.00000e+00	
					         0.94667	-6.00000e+00	
					         0.94833	-7.00000e+00	
					         0.95000	-7.00000e+00	
					         0.95167	-7.00000e+00	
					         0.95333	-6.00000e+00	
					         0.95500	-6.00000e+00	
					         0.95667	-6.00000e+00	
					         0.95833	-6.00000e+00	
					         0.96000	-6.00000e+00	
					         0.96167	-6.00000e+00	
					         0.96333	-6.00000e+00	
					         0.96500	-5.00000e+00	
					         0.96667	-5.00000e+00	
					         0.96833	-5.00000e+00	
					         0.97000	-5.00000e+00	
					         0.97167	-6.00000e+00	
					         0.97333	-6.00000e+00	
					         0.97500	-7.00000e+00	
					         0.97667	-8.00000e+00	
					         0.97833	-9.00000e+00	
					         0.98000	-1.00000e+01	
					         0.98167	-1.00000e+01	
					         0.98333	-1.10000e+01	
					         0.98500	-1.20000e+01	
					         0.98667	-1.20000e+01	
					         0.98833	-1.20000e+01	
					         0.99000	-1.10000e+01	
					         0.99167	-1.10000e+01	
					         0.99333	-1.00000e+01	
					         0.99500	-9.00000e+00	
					         0.99667	-8.00000e+00	
					         0.99833	-7.00000e+00	
					         1.00000	-6.00000e+00	
					         1.00167	-5.00000e+00	
					         1.00333	-5.00000e+00	
					         1.00500	-5.00000e+00	
					         1.00667	-5.00000e+00	
					         1.00833	-6.00000e+00	
					         1.01000	-7.00000e+00	
					         1.01167	-8.00000e+00	
					         1.01333	-1.00000e+01	
					         1.01500	-1.10000e+01	
					         1.01667	-1.30000e+01	
					         1.01833	-1.50000e+01	
					         1.02000	-1.70000e+01	
					         1.02167	-1.90000e+01	
					         1.02333	-2.10000e+01	
					         1.02500	-2.20000e+01	
					         1.02667	-2.30000e+01	
					         1.02833	-2.30000e+01	
					         1.03000	-2.30000e+01	
					         1.03167	-2.20000e+01	
					         1.03333	-2.00000e+01	
					         1.03500	-1.60000e+01	
					         1.03667	-1.20000e+01	
					         1.03833	-8.00000e+00	
					         1.04000	-2.00000e+00	
					         1.04167	4.00000e+00	
					         1.04333	1.10000e+01	
					         1.04500	1.80000e+01	
					         1.04667	2.60000e+01	
					         1.04833	3.50000e+01	
					         1.05000	4.40000e+01	
					         1.05167	5.40000e+01	
					         1.05333	6.40000e+01	
					         1.05500	7.50000e+01	
					         1.05667	8.60000e+01	
					         1.05833	9.80000e+01	
					         1.06000	1.10000e+02	
					         1.06167	1.23000e+02	
					         1.06333	1.37000e+02	
					         1.06500	1.51000e+02	
					         1.06667	1.65000e+02	
					         1.06833	1.80000e+02	
					         1.07000	1.94000e+02	
					         1.07167	2.07000e+02	
					         1.07333	2.16000e+02	
					         1.07500	2.21000e+02	
					         1.07667	2.21000e+02	
					         1.07833	2.14000e+02	
					         1.08000	2.00000e+02	
					         1.08167	1.80000e+02	
					         1.08333	1.54000e+02	
					         1.08500	1.21000e+02	
					         1.08667	8.40000e+01	
					         1.08833	4.30000e+01	
					         1.09000	-1.00000e+00	
					         1.09167	-4.60000e+01	
					         1.09333	-9.00000e+01	
					         1.09500	-1.30000e+02	
					         1.09667	-1.66000e+02	
					         1.09833	-1.95000e+02	
					         1.10000	-2.17000e+02	
					         1.10167	-2.33000e+02	
					         1.10333	-2.42000e+02	
					         1.10500	-2.45000e+02	
					         1.10667	-2.43000e+02	
					         1.10833	-2.36000e+02	
					         1.11000	-2.25000e+02	
					         1.11167	-2.11000e+02	
					         1.11333	-1.95000e+02	
					         1.11500	-1.78000e+02	
					         1.11667	-1.60000e+02	
					         1.11833	-1.43000e+02	
					         1.12000	-1.25000e+02	
					         1.12167	-1.09000e+02	
					         1.12333	-9.40000e+01	
					         1.12500	-8.00000e+01	
					         1.12667	-6.70000e+01	
					         1.12833	-5.60000e+01	
					         1.13000	-4.60000e+01	
					         1.13167	-3.80000e+01	
					         1.13333	-3.00000e+01	
					         1.13500	-2.40000e+01	
					         1.13667	-1.80000e+01	
					         1.13833	-1.30000e+01	
					         1.14000	-8.00000e+00	
					         1.14167	-4.00000e+00	
					         1.14333	0.00000e+00	
					         1.14500	3.00000e+00	
					         1.14667	6.00000e+00	
					         1.14833	8.00000e+00	
					         1.15000	1.00000e+01	
					         1.15167	1.20000e+01	
					         1.15333	1.30000e+01	
					         1.15500	1.40000e+01	
					         1.15667	1.50000e+01	
					         1.15833	1.50000e+01	
					         1.16000	1.50000e+01	
					         1.16167	1.40000e+01	
					         1.16333	1.30000e+01	
					         1.16500	1.20000e+01	
					         1.16667	1.10000e+01	
					         1.16833	1.00000e+01	
					         1.17000	9.00000e+00	
					         1.17167	9.00000e+00	
					         1.17333	8.00000e+00	
					         1.17500	8.00000e+00	
					         1.17667	7.00000e+00	
					         1.17833	7.00000e+00	
					         1.18000	7.00000e+00	
					         1.18167	7.00000e+00	
					         1.18333	7.00000e+00	
					         1.18500	7.00000e+00	
					         1.18667	7.00000e+00	
					         1.18833	7.00000e+00	
					         1.19000	7.00000e+00	
					         1.19167	7.00000e+00	
					         1.19333	7.00000e+00	
					         1.19500	7.00000e+00	
					         1.19667	7.00000e+00	
					         1.19833	8.00000e+00	
					         1.20000	8.00000e+00	
					         1.20167	8.00000e+00	
					         1.20333	8.00000e+00	
					         1.20500	9.00000e+00	
					         1.20667	9.00000e+00	
					         1.20833	9.00000e+00	
					         1.21000	8.00000e+00	
					         1.21167	7.00000e+00	
					         1.21333	6.00000e+00	
					         1.21500	4.00000e+00	
					         1.21667	3.00000e+00	
					         1.21833	1.00000e+00	
					         1.22000	-1.00000e+00	
					         1.22167	-2.00000e+00	
					         1.22333	-4.00000e+00	
					         1.22500	-5.00000e+00	
					         1.22667	-5.00000e+00	
					         1.22833	-6.00000e+00	
					         1.23000	-6.00000e+00	
					         1.23167	-6.00000e+00	
					         1.23333	-5.00000e+00	
					         1.23500	-5.00000e+00	
					         1.23667	-4.00000e+00	
					         1.23833	-4.00000e+00	
					         1.24000	-4.00000e+00	
					         1.24167	-3.00000e+00	
					         1.24333	-3.00000e+00	
					         1.24500	-2.00000e+00	
					         1.24667	-2.00000e+00	
					         1.24833	-2.00000e+00	
					         1.25000	-1.00000e+00	
					         1.25167	-1.00000e+00	
					         1.25333	-1.00000e+00	
					         1.25500	0.00000e+00	
					         1.25667	0.00000e+00	
					         1.25833	1.00000e+00	
					         1.26000	2.00000e+00	
					         1.26167	3.00000e+00	
					         1.26333	4.00000e+00	
					         1.26500	4.00000e+00	
					         1.26667	5.00000e+00	
					         1.26833	5.00000e+00	
					         1.27000	6.00000e+00	
					         1.27167	7.00000e+00	
					         1.27333	8.00000e+00	
					         1.27500	9.00000e+00	
					         1.27667	1.00000e+01	
					         1.27833	1.10000e+01	
					         1.28000	1.20000e+01	
					         1.28167	1.30000e+01	
					         1.28333	1.50000e+01	
					         1.28500	1.60000e+01	
					         1.28667	1.70000e+01	
					         1.28833	1.90000e+01	
					         1.29000	2.00000e+01	
					         1.29167	2.10000e+01	
					         1.29333	2.20000e+01	
					         1.29500	2.40000e+01	
					         1.29667	2.50000e+01	
					         1.29833	2.70000e+01	
					         1.30000	2.80000e+01	
					         1.30167	2.80000e+01	
					         1.30333	2.90000e+01	
					         1.30500	2.90000e+01	
					         1.30667	2.80000e+01	
					         1.30833	2.80000e+01	
					         1.31000	2.60000e+01	
					         1.31167	2.50000e+01	
					         1.31333	2.30000e+01	
					         1.31500	2.10000e+01	
					         1.31667	1.90000e+01	
					         1.31833	1.60000e+01	
					         1.32000	1.40000e+01	
					         1.32167	1.20000e+01	
					         1.32333	1.10000e+01	
					         1.32500	1.00000e+01	
					         1.32667	9.00000e+00	
					         1.32833	9.00000e+00	
					         1.33000	9.00000e+00	
					         1.33167	1.00000e+01	
					         1.33333	1.10000e+01	
					         1.33500	1.20000e+01	
					         1.33667	1.30000e+01	
					         1.33833	1.50000e+01	
					         1.34000	1.60000e+01	
					         1.34167	1.70000e+01	
					         1.34333	1.80000e+01	
					         1.34500	1.90000e+01	
					         1.34667	2.00000e+01	
					         1.34833	2.00000e+01	
					         1.35000	2.10000e+01	
					         1.35167	2.00000e+01	
					         1.35333	2.00000e+01	
					         1.35500	2.00000e+01	
					         1.35667	1.90000e+01	
					         1.35833	1.90000e+01	
					         1.36000	1.90000e+01	
					         1.36167	1.90000e+01	
					         1.36333	1.80000e+01	
					         1.36500	1.80000e+01	
					         1.36667	1.80000e+01	
					         1.36833	1.70000e+01	
					         1.37000	1.70000e+01	
					         1.37167	1.70000e+01	
					         1.37333	1.70000e+01	
					         1.37500	1.60000e+01	
					         1.37667	1.50000e+01	
					         1.37833	1.40000e+01	
					         1.38000	1.30000e+01	
					         1.38167	1.20000e+01	
					         1.38333	1.00000e+01	
					         1.38500	9.00000e+00	
					         1.38667	8.00000e+00	
					         1.38833	7.00000e+00	
					         1.39000	6.00000e+00	
					         1.39167	5.00000e+00	
					         1.39333	5.00000e+00	
					         1.39500	5.00000e+00	
					         1.39667	5.00000e+00	
					         1.39833	6.00000e+00	
					         1.40000	6.00000e+00	
					         1.40167	7.00000e+00	
					         1.40333	7.00000e+00	
					         1.40500	8.00000e+00	
					         1.40667	9.00000e+00	
					         1.40833	9.00000e+00	
					         1.41000	1.00000e+01	
					         1.41167	1.10000e+01	
					         1.41333	1.20000e+01	
					         1.41500	1.30000e+01	
					         1.41667	1.30000e+01	
					         1.41833	1.40000e+01	
					         1.42000	1.30000e+01	
					         1.42167	1.30000e+01	
					         1.42333	1.20000e+01	
					         1.42500	1.10000e+01	
					         1.42667	1.00000e+01	
					         1.42833	8.00000e+00	
					         1.43000	6.00000e+00	
					         1.43167	3.00000e+00	
					         1.43333	1.00000e+00	
					         1.43500	-1.00000e+00	
					         1.43667	-4.00000e+00	
					         1.43833	-6.00000e+00	
					         1.44000	-7.00000e+00	
					         1.44167	-9.00000e+00	
					         1.44333	-1.00000e+01	
					         1.44500	-1.00000e+01	
					         1.44667	-1.00000e+01	
					         1.44833	-1.00000e+01	
					         1.45000	-1.10000e+01	
					         1.45167	-1.10000e+01	
					         1.45333	-1.10000e+01	
					         1.45500	-1.10000e+01	
					         1.45667	-1.10000e+01	
					         1.45833	-1.20000e+01	
					         1.46000	-1.20000e+01	
					         1.46167	-1.20000e+01	
					         1.46333	-1.10000e+01	
					         1.46500	-1.00000e+01	
					         1.46667	-1.00000e+01	
					         1.46833	-8.00000e+00	
					         1.47000	-7.00000e+00	
					         1.47167	-5.00000e+00	
					         1.47333	-4.00000e+00	
					         1.47500	-2.00000e+00	
					         1.47667	-1.00000e+00	
					         1.47833	0.00000e+00	
					         1.48000	1.00000e+00	
					         1.48167	1.00000e+00	
					         1.48333	0.00000e+00	
					         1.48500	-1.00000e+00	
					         1.48667	-2.00000e+00	
					         1.48833	-4.00000e+00	
					         1.49000	-6.00000e+00	
					         1.49167	-9.00000e+00	
					         1.49333	-1.10000e+01	
					         1.49500	-1.20000e+01	
					         1.49667	-1.40000e+01	
					         1.49833	-1.50000e+01	
					         1.50000	-1.50000e+01	
					         1.50167	-1.60000e+01	
					         1.50333	-1.60000e+01	
					         1.50500	-1.60000e+01	
					         1.50667	-1.70000e+01	
					         1.50833	-1.60000e+01	
					         1.51000	-1.60000e+01	
					         1.51167	-1.50000e+01	
					         1.51333	-1.40000e+01	
					         1.51500	-1.40000e+01	
					         1.51667	-1.30000e+01	
					         1.51833	-1.30000e+01	
					         1.52000	-1.30000e+01	
					         1.52167	-1.20000e+01	
					         1.52333	-1.20000e+01	
					         1.52500	-1.10000e+01	
					         1.52667	-1.00000e+01	
					         1.52833	-9.00000e+00	
					         1.53000	-9.00000e+00	
					         1.53167	-8.00000e+00	
					         1.53333	-7.00000e+00	
					         1.53500	-7.00000e+00	
					         1.53667	-7.00000e+00	
					         1.53833	-6.00000e+00	
					         1.54000	-6.00000e+00	
					         1.54167	-6.00000e+00	
					         1.54333	-5.00000e+00	
					         1.54500	-5.00000e+00	
					         1.54667	-5.00000e+00	
					         1.54833	-5.00000e+00	
					         1.55000	-4.00000e+00	
					         1.55167	-4.00000e+00	
					         1.55333	-3.00000e+00	
					         1.55500	-2.00000e+00	
					         1.55667	-2.00000e+00	
					         1.55833	-1.00000e+00	
					         1.56000	-1.00000e+00	
					         1.56167	0.00000e+00	
					         1.56333	0.00000e+00	
					         1.56500	1.00000e+00	
					         1.56667	2.00000e+00	
					         1.56833	2.00000e+00	
					         1.57000	3.00000e+00	
					         1.57167	3.00000e+00	
					         1.57333	4.00000e+00	
					         1.57500	5.00000e+00	
					         1.57667	6.00000e+00	
					         1.57833	8.00000e+00	
					         1.58000	1.00000e+01	
					         1.58167	1.10000e+01	
					         1.58333	1.30000e+01	
					         1.58500	1.40000e+01	
					         1.58667	1.60000e+01	
					         1.58833	1.70000e+01	
					         1.59000	1.80000e+01	
					         1.59167	1.80000e+01	
					         1.59333	1.90000e+01	
					         1.59500	1.90000e+01	
					         1.59667	1.90000e+01	
					         1.59833	1.90000e+01	
					         1.60000	2.00000e+01	
					         1.60167	2.00000e+01	
					         1.60333	2.10000e+01	
					         1.60500	2.10000e+01	
					         1.60667	2.20000e+01	
					         1.60833	2.30000e+01	
					         1.61000	2.30000e+01	
					         1.61167	2.30000e+01	
					         1.61333	2.40000e+01	
					         1.61500	2.40000e+01	
					         1.61667	2.40000e+01	
					         1.61833	2.30000e+01	
					         1.62000	2.30000e+01	
					         1.62167	2.10000e+01	
					         1.62333	2.00000e+01	
					         1.62500	1.90000e+01	
					         1.62667	1.70000e+01	
					         1.62833	1.60000e+01	
					         1.63000	1.40000e+01	
					         1.63167	1.30000e+01	
					         1.63333	1.10000e+01	
					         1.63500	9.00000e+00	
					         1.63667	7.00000e+00	
					         1.63833	5.00000e+00	
					         1.64000	3.00000e+00	
					         1.64167	1.00000e+00	
					         1.64333	-1.00000e+00	
					         1.64500	-3.00000e+00	
					         1.64667	-5.00000e+00	
					         1.64833	-7.00000e+00	
					         1.65000	-8.00000e+00	
					         1.65167	-9.00000e+00	
					         1.65333	-1.00000e+01	
					         1.65500	-1.10000e+01	
					         1.65667	-1.10000e+01	
					         1.65833	-1.10000e+01	
					         1.66000	-1.10000e+01	
					         1.66167	-1.10000e+01	
					         1.66333	-1.10000e+01	
					         1.66500	-1.10000e+01	
					         1.66667	-1.10000e+01	
					         1.66833	-1.10000e+01	
					         1.67000	-1.10000e+01	
					         1.67167	-1.20000e+01	
					         1.67333	-1.20000e+01	
					         1.67500	-1.20000e+01	
					         1.67667	-1.20000e+01	
					         1.67833	-1.20000e+01	
					         1.68000	-1.20000e+01	
					         1.68167	-1.10000e+01	
					         1.68333	-1.10000e+01	
					         1.68500	-1.00000e+01	
					         1.68667	-1.00000e+01	
					         1.68833	-1.00000e+01	
					         1.69000	-9.00000e+00	
					         1.69167	-9.00000e+00	
					         1.69333	-8.00000e+00	
					         1.69500	-8.00000e+00	
					         1.69667	-8.00000e+00	
					         1.69833	-8.00000e+00	
					         1.70000	-8.00000e+00	
					         1.70167	-8.00000e+00	
					         1.70333	-8.00000e+00	
					         1.70500	-8.00000e+00	
					         1.70667	-9.00000e+00	
					         1.70833	-9.00000e+00	
					         1.71000	-8.00000e+00	
					         1.71167	-8.00000e+00	
					         1.71333	-8.00000e+00	
					         1.71500	-9.00000e+00	
					         1.71667	-9.00000e+00	
					         1.71833	-1.00000e+01	
					         1.72000	-1.10000e+01	
					         1.72167	-1.10000e+01	
					         1.72333	-1.20000e+01	
					         1.72500	-1.20000e+01	
					         1.72667	-1.20000e+01	
					         1.72833	-1.20000e+01	
					         1.73000	-1.20000e+01	
					         1.73167	-1.20000e+01	
					         1.73333	-1.10000e+01	
					         1.73500	-1.00000e+01	
					         1.73667	-8.00000e+00	
					         1.73833	-7.00000e+00	
					         1.74000	-5.00000e+00	
					         1.74167	-3.00000e+00	
					         1.74333	-1.00000e+00	
					         1.74500	0.00000e+00	
					         1.74667	0.00000e+00	
					         1.74833	1.00000e+00	
					         1.75000	0.00000e+00	
					         1.75167	0.00000e+00	
					         1.75333	-1.00000e+00	
					         1.75500	-3.00000e+00	
					         1.75667	-4.00000e+00	
					         1.75833	-5.00000e+00	
					         1.76000	-6.00000e+00	
					         1.76167	-6.00000e+00	
					         1.76333	-7.00000e+00	
					         1.76500	-8.00000e+00	
					         1.76667	-9.00000e+00	
					         1.76833	-9.00000e+00	
					         1.77000	-1.00000e+01	
					         1.77167	-1.00000e+01	
					         1.77333	-1.00000e+01	
					         1.77500	-1.10000e+01	
					         1.77667	-1.10000e+01	
					         1.77833	-1.20000e+01	
					         1.78000	-1.20000e+01	
					         1.78167	-1.30000e+01	
					         1.78333	-1.30000e+01	
					         1.78500	-1.30000e+01	
					         1.78667	-1.20000e+01	
					         1.78833	-1.10000e+01	
					         1.79000	-1.00000e+01	
					         1.79167	-9.00000e+00	
					         1.79333	-8.00000e+00	
					         1.79500	-7.00000e+00	
					         1.79667	-6.00000e+00	
					         1.79833	-5.00000e+00	
					         1.80000	-5.00000e+00	
					         1.80167	-5.00000e+00	
					         1.80333	-5.00000e+00	
					         1.80500	-5.00000e+00	
					         1.80667	-6.00000e+00	
					         1.80833	-7.00000e+00	
					         1.81000	-7.00000e+00	
					         1.81167	-8.00000e+00	
					         1.81333	-8.00000e+00	
					         1.81500	-9.00000e+00	
					         1.81667	-9.00000e+00	
					         1.81833	-9.00000e+00	
					         1.82000	-9.00000e+00	
					         1.82167	-8.00000e+00	
					         1.82333	-8.00000e+00	
					         1.82500	-7.00000e+00	
					         1.82667	-6.00000e+00	
					         1.82833	-5.00000e+00	
					         1.83000	-5.00000e+00	
					         1.83167	-4.00000e+00	
					         1.83333	-3.00000e+00	
					         1.83500	-3.00000e+00	
					         1.83667	-2.00000e+00	
					         1.83833	-2.00000e+00	
					         1.84000	-2.00000e+00	
					         1.84167	-1.00000e+00	
					         1.84333	-1.00000e+00	
					         1.84500	0.00000e+00	
					         1.84667	0.00000e+00	
					         1.84833	1.00000e+00	
					         1.85000	1.00000e+00	
					         1.85167	2.00000e+00	
					         1.85333	3.00000e+00	
					         1.85500	4.00000e+00	
					         1.85667	5.00000e+00	
					         1.85833	7.00000e+00	
					         1.86000	8.00000e+00	
					         1.86167	9.00000e+00	
					         1.86333	1.00000e+01	
					         1.86500	1.10000e+01	
					         1.86667	1.20000e+01	
					         1.86833	1.20000e+01	
					         1.87000	1.10000e+01	
					         1.87167	1.10000e+01	
					         1.87333	1.00000e+01	
					         1.87500	9.00000e+00	
					         1.87667	8.00000e+00	
					         1.87833	6.00000e+00	
					         1.88000	5.00000e+00	
					         1.88167	3.00000e+00	
					         1.88333	2.00000e+00	
					         1.88500	1.00000e+00	
					         1.88667	0.00000e+00	
					         1.88833	-1.00000e+00	
					         1.89000	-1.00000e+00	
					         1.89167	-1.00000e+00	
					         1.89333	-1.00000e+00	
					         1.89500	-1.00000e+00	
					         1.89667	-1.00000e+00	
					         1.89833	0.00000e+00	
					         1.90000	0.00000e+00	
					         1.90167	1.00000e+00	
					         1.90333	1.00000e+00	
					         1.90500	2.00000e+00	
					         1.90667	2.00000e+00	
					         1.90833	2.00000e+00	
					         1.91000	2.00000e+00	
					         1.91167	3.00000e+00	
					         1.91333	4.00000e+00	
					         1.91500	5.00000e+00	
					         1.91667	6.00000e+00	
					         1.91833	6.00000e+00	
					         1.92000	7.00000e+00	
					         1.92167	8.00000e+00	
					         1.92333	9.00000e+00	
					         1.92500	1.00000e+01	
					         1.92667	1.10000e+01	
					         1.92833	1.20000e+01	
					         1.93000	1.30000e+01	
					         1.93167	1.30000e+01	
					         1.93333	1.40000e+01	
					         1.93500	1.40000e+01	
					         1.93667	1.40000e+01	
					         1.93833	1.50000e+01	
					         1.94000	1.60000e+01	
					         1.94167	1.70000e+01	
					         1.94333	1.80000e+01	
					         1.94500	2.00000e+01	
					         1.94667	2.10000e+01	
					         1.94833	2.30000e+01	
					         1.95000	2.50000e+01	
					         1.95167	2.80000e+01	
					         1.95333	3.00000e+01	
					         1.95500	3.20000e+01	
					         1.95667	3.40000e+01	
					         1.95833	3.60000e+01	
					         1.96000	3.70000e+01	
					         1.96167	3.80000e+01	
					         1.96333	3.80000e+01	
					         1.96500	3.80000e+01	
					         1.96667	3.80000e+01	
					         1.96833	3.90000e+01	
					         1.97000	3.80000e+01	
					         1.97167	3.80000e+01	
					         1.97333	3.80000e+01	
					         1.97500	3.80000e+01	
					         1.97667	3.70000e+01	
					         1.97833	3.70000e+01	
					         1.98000	3.60000e+01	
					         1.98167	3.60000e+01	
					         1.98333	3.50000e+01	
					         1.98500	3.30000e+01	
					         1.98667	3.20000e+01	
					         1.98833	2.90000e+01	
					         1.99000	2.60000e+01	
					         1.99167	2.30000e+01	
					         1.99333	1.90000e+01	
					         1.99500	1.60000e+01	
					         1.99667	1.20000e+01	
					         1.99833	8.00000e+00	
					         2.00000	5.00000e+00	
					         2.00167	2.00000e+00	
					         2.00333	-1.00000e+00	
					         2.00500	-3.00000e+00	
					         2.00667	-5.00000e+00	
					         2.00833	-6.00000e+00	
					         2.01000	-7.00000e+00	
					         2.01167	-8.00000e+00	
					         2.01333	-8.00000e+00	
					         2.01500	-7.00000e+00	
					         2.01667	-7.00000e+00	
					         2.01833	-6.00000e+00	
					         2.02000	-5.00000e+00	
					         2.02167	-4.00000e+00	
					         2.02333	-3.00000e+00	
					         2.02500	-2.00000e+00	
					         2.02667	-1.00000e+00	
					         2.02833	0.00000e+00	
					         2.03000	0.00000e+00	
					         2.03167	0.00000e+00	
					         2.03333	0.00000e+00	
					         2.03500	-1.00000e+00	
					         2.03667	-2.00000e+00	
					         2.03833	-3.00000e+00	
					         2.04000	-5.00000e+00	
					         2.04167	-6.00000e+00	
					         2.04333	-8.00000e+00	
					         2.04500	-9.00000e+00	
					         2.04667	-1.00000e+01	
					         2.04833	-1.10000e+01	
					         2.05000	-1.10000e+01	
					         2.05167	-1.10000e+01	
					         2.05333	-1.20000e+01	
					         2.05500	-1.20000e+01	
					         2.05667	-1.30000e+01	
					         2.05833	-1.40000e+01	
					         2.06000	-1.60000e+01	
					         2.06167	-1.70000e+01	
					         2.06333	-1.80000e+01	
					         2.06500	-2.00000e+01	
					         2.06667	-2.20000e+01	
					         2.06833	-2.30000e+01	
					         2.07000	-2.40000e+01	
					         2.07167	-2.50000e+01	
					         2.07333	-2.50000e+01	
					         2.07500	-2.50000e+01	
					         2.07667	-2.40000e+01	
					         2.07833	-2.20000e+01	
					         2.08000	-2.00000e+01	
					         2.08167	-1.70000e+01	
					         2.08333	-1.50000e+01	
					         2.08500	-1.30000e+01	
					         2.08667	-1.10000e+01	
					         2.08833	-9.00000e+00	
					         2.09000	-6.00000e+00	
					         2.09167	-4.00000e+00	
					         2.09333	-1.00000e+00	
					         2.09500	2.00000e+00	
					         2.09667	6.00000e+00	
					         2.09833	1.10000e+01	
					         2.10000	1.70000e+01	
					         2.10167	2.40000e+01	
					         2.10333	3.20000e+01	
					         2.10500	4.10000e+01	
					         2.10667	5.20000e+01	
					         2.10833	6.30000e+01	
					         2.11000	7.50000e+01	
					         2.11167	8.80000e+01	
					         2.11333	1.01000e+02	
					         2.11500	1.15000e+02	
					         2.11667	1.30000e+02	
					         2.11833	1.45000e+02	
					         2.12000	1.60000e+02	
					         2.12167	1.76000e+02	
					         2.12333	1.91000e+02	
					         2.12500	2.05000e+02	
					         2.12667	2.18000e+02	
					         2.12833	2.27000e+02	
					         2.13000	2.31000e+02	
					         2.13167	2.30000e+02	
					         2.13333	2.22000e+02	
					         2.13500	2.07000e+02	
					         2.13667	1.85000e+02	
					         2.13833	1.57000e+02	
					         2.14000	1.24000e+02	
					         2.14167	8.60000e+01	
					         2.14333	4.40000e+01	
					         2.14500	0.00000e+00	
					         2.14667	-4.40000e+01	
					         2.14833	-8.70000e+01	
					         2.15000	-1.27000e+02	
					         2.15167	-1.62000e+02	
					         2.15333	-1.92000e+02	
					         2.15500	-2.15000e+02	
					         2.15667	-2.31000e+02	
					         2.15833	-2.40000e+02	
					         2.16000	-2.44000e+02	
					         2.16167	-2.42000e+02	
					         2.16333	-2.36000e+02	
					         2.16500	-2.27000e+02	
					         2.16667	-2.15000e+02	
					         2.16833	-2.00000e+02	
					         2.17000	-1.84000e+02	
					         2.17167	-1.67000e+02	
					         2.17333	-1.50000e+02	
					         2.17500	-1.32000e+02	
					         2.17667	-1.16000e+02	
					         2.17833	-1.01000e+02	
					         2.18000	-8.70000e+01	
					         2.18167	-7.40000e+01	
					         2.18333	-6.20000e+01	
					         2.18500	-5.20000e+01	
					         2.18667	-4.20000e+01	
					         2.18833	-3.40000e+01	
					         2.19000	-2.60000e+01	
					         2.19167	-1.90000e+01	
					         2.19333	-1.40000e+01	
					         2.19500	-9.00000e+00	
					         2.19667	-5.00000e+00	
					         2.19833	-2.00000e+00	
					         2.20000	0.00000e+00	
					         2.20167	1.00000e+00	
					         2.20333	2.00000e+00	
					         2.20500	3.00000e+00	
					         2.20667	3.00000e+00	
					         2.20833	2.00000e+00	
					         2.21000	2.00000e+00	
					         2.21167	2.00000e+00	
					         2.21333	2.00000e+00	
					         2.21500	3.00000e+00	
					         2.21667	4.00000e+00	
					         2.21833	5.00000e+00	
					         2.22000	6.00000e+00	
					         2.22167	8.00000e+00	
					         2.22333	9.00000e+00	
					         2.22500	1.10000e+01	
					         2.22667	1.20000e+01	
					         2.22833	1.40000e+01	
					         2.23000	1.50000e+01	
					         2.23167	1.60000e+01	
					         2.23333	1.70000e+01	
					         2.23500	1.70000e+01	
					         2.23667	1.80000e+01	
					         2.23833	1.80000e+01	
					         2.24000	1.80000e+01	
					         2.24167	1.90000e+01	
					         2.24333	1.80000e+01	
					         2.24500	1.80000e+01	
					         2.24667	1.70000e+01	
					         2.24833	1.60000e+01	
					         2.25000	1.40000e+01	
					         2.25167	1.20000e+01	
					         2.25333	1.00000e+01	
					         2.25500	8.00000e+00	
					         2.25667	6.00000e+00	
					         2.25833	4.00000e+00	
					         2.26000	2.00000e+00	
					         2.26167	0.00000e+00	
					         2.26333	-1.00000e+00	
					         2.26500	-1.00000e+00	
					         2.26667	-1.00000e+00	
					         2.26833	-1.00000e+00	
					         2.27000	0.00000e+00	
					         2.27167	1.00000e+00	
					         2.27333	1.00000e+00	
					         2.27500	2.00000e+00	
					         2.27667	3.00000e+00	
					         2.27833	3.00000e+00	
					         2.28000	3.00000e+00	
					         2.28167	3.00000e+00	
					         2.28333	3.00000e+00	
					         2.28500	3.00000e+00	
					         2.28667	2.00000e+00	
					         2.28833	1.00000e+00	
					         2.29000	1.00000e+00	
					         2.29167	0.00000e+00	
					         2.29333	0.00000e+00	
					         2.29500	0.00000e+00	
					         2.29667	0.00000e+00	
					         2.29833	1.00000e+00	
					         2.30000	1.00000e+00	
					         2.30167	2.00000e+00	
					         2.30333	3.00000e+00	
					         2.30500	4.00000e+00	
					         2.30667	4.00000e+00	
					         2.30833	5.00000e+00	
					         2.31000	5.00000e+00	
					         2.31167	6.00000e+00	
					         2.31333	6.00000e+00	
					         2.31500	6.00000e+00	
					         2.31667	7.00000e+00	
					         2.31833	7.00000e+00	
					         2.32000	7.00000e+00	
					         2.32167	7.00000e+00	
					         2.32333	7.00000e+00	
					         2.32500	7.00000e+00	
					         2.32667	7.00000e+00	
					         2.32833	8.00000e+00	
					         2.33000	8.00000e+00	
					         2.33167	8.00000e+00	
					         2.33333	8.00000e+00	
					         2.33500	8.00000e+00	
					         2.33667	8.00000e+00	
					         2.33833	9.00000e+00	
					         2.34000	9.00000e+00	
					         2.34167	1.00000e+01	
					         2.34333	1.00000e+01	
					         2.34500	1.10000e+01	
					         2.34667	1.20000e+01	
					         2.34833	1.20000e+01	
					         2.35000	1.20000e+01	
					         2.35167	1.10000e+01	
					         2.35333	1.10000e+01	
					         2.35500	1.10000e+01	
					         2.35667	1.00000e+01	
					         2.35833	1.00000e+01	
					         2.36000	9.00000e+00	
					         2.36167	8.00000e+00	
					         2.36333	7.00000e+00	
					         2.36500	6.00000e+00	
					         2.36667	6.00000e+00	
					         2.36833	6.00000e+00	
					         2.37000	6.00000e+00	
					         2.37167	7.00000e+00	
					         2.37333	8.00000e+00	
					         2.37500	9.00000e+00	
					         2.37667	1.00000e+01	
					         2.37833	1.20000e+01	
					         2.38000	1.40000e+01	
					         2.38167	1.50000e+01	
					         2.38333	1.70000e+01	
					         2.38500	1.90000e+01	
					         2.38667	2.00000e+01	
					         2.38833	2.10000e+01	
					         2.39000	2.20000e+01	
					         2.39167	2.20000e+01	
					         2.39333	2.30000e+01	
					         2.39500	2.30000e+01	
					         2.39667	2.40000e+01	
					         2.39833	2.40000e+01	
					         2.40000	2.40000e+01	
					         2.40167	2.50000e+01	
					         2.40333	2.60000e+01	
					         2.40500	2.70000e+01	
					         2.40667	2.90000e+01	
					         2.40833	3.10000e+01	
					         2.41000	3.30000e+01	
					         2.41167	3.40000e+01	
					         2.41333	3.50000e+01	
					         2.41500	3.50000e+01	
					         2.41667	3.40000e+01	
					         2.41833	3.30000e+01	
					         2.42000	3.10000e+01	
					         2.42167	2.90000e+01	
					         2.42333	2.50000e+01	
					         2.42500	2.20000e+01	
					         2.42667	1.80000e+01	
					         2.42833	1.30000e+01	
					         2.43000	9.00000e+00	
					         2.43167	6.00000e+00	
					         2.43333	3.00000e+00	
					         2.43500	0.00000e+00	
					         2.43667	-1.00000e+00	
					         2.43833	-2.00000e+00	
					         2.44000	-2.00000e+00	
					         2.44167	-2.00000e+00	
					         2.44333	-2.00000e+00	
					         2.44500	-2.00000e+00	
					         2.44667	-1.00000e+00	
					         2.44833	-1.00000e+00	
					         2.45000	0.00000e+00	
					         2.45167	1.00000e+00	
					         2.45333	2.00000e+00	
					         2.45500	2.00000e+00	
					         2.45667	3.00000e+00	
					         2.45833	3.00000e+00	
					         2.46000	4.00000e+00	
					         2.46167	5.00000e+00	
					         2.46333	5.00000e+00	
					         2.46500	6.00000e+00	
					         2.46667	6.00000e+00	
					         2.46833	7.00000e+00	
					         2.47000	6.00000e+00	
					         2.47167	6.00000e+00	
					         2.47333	5.00000e+00	
					         2.47500	4.00000e+00	
					         2.47667	3.00000e+00	
					         2.47833	3.00000e+00	
					         2.48000	2.00000e+00	
					         2.48167	1.00000e+00	
					         2.48333	0.00000e+00	
					         2.48500	0.00000e+00	
					         2.48667	-1.00000e+00	
					         2.48833	-1.00000e+00	
					         2.49000	-1.00000e+00	
					         2.49167	-1.00000e+00	
					         2.49333	-1.00000e+00	
					         2.49500	-1.00000e+00	
					         2.49667	-2.00000e+00	
					         2.49833	-2.00000e+00	
					         2.50000	-2.00000e+00	
					         2.50167	-3.00000e+00	
					         2.50333	-3.00000e+00	
					         2.50500	-3.00000e+00	
					         2.50667	-3.00000e+00	
					         2.50833	-3.00000e+00	
					         2.51000	-3.00000e+00	
					         2.51167	-3.00000e+00	
					         2.51333	-2.00000e+00	
					         2.51500	-1.00000e+00	
					         2.51667	0.00000e+00	
					         2.51833	0.00000e+00	
					         2.52000	0.00000e+00	
					         2.52167	-1.00000e+00	
					         2.52333	-2.00000e+00	
					         2.52500	-4.00000e+00	
					         2.52667	-5.00000e+00	
					         2.52833	-7.00000e+00	
					         2.53000	-9.00000e+00	
					         2.53167	-1.00000e+01	
					         2.53333	-1.20000e+01	
					         2.53500	-1.30000e+01	
					         2.53667	-1.40000e+01	
					         2.53833	-1.40000e+01	
					         2.54000	-1.40000e+01	
					         2.54167	-1.30000e+01	
					         2.54333	-1.10000e+01	
					         2.54500	-9.00000e+00	
					         2.54667	-7.00000e+00	
					         2.54833	-5.00000e+00	
					         2.55000	-3.00000e+00	
					         2.55167	-1.00000e+00	
					         2.55333	0.00000e+00	
					         2.55500	0.00000e+00	
					         2.55667	0.00000e+00	
					         2.55833	0.00000e+00	
					         2.56000	-1.00000e+00	
					         2.56167	-2.00000e+00	
					         2.56333	-3.00000e+00	
					         2.56500	-5.00000e+00	
					         2.56667	-7.00000e+00	
					         2.56833	-8.00000e+00	
					         2.57000	-9.00000e+00	
					         2.57167	-1.00000e+01	
					         2.57333	-1.10000e+01	
					         2.57500	-1.10000e+01	
					         2.57667	-1.10000e+01	
					         2.57833	-1.00000e+01	
					         2.58000	-1.00000e+01	
					         2.58167	-9.00000e+00	
					         2.58333	-8.00000e+00	
					         2.58500	-8.00000e+00	
					         2.58667	-8.00000e+00	
					         2.58833	-7.00000e+00	
					         2.59000	-7.00000e+00	
					         2.59167	-6.00000e+00	
					         2.59333	-6.00000e+00	
					         2.59500	-5.00000e+00	
					         2.59667	-4.00000e+00	
					         2.59833	-3.00000e+00	
					         2.60000	-2.00000e+00	
					         2.60167	-1.00000e+00	
					         2.60333	1.00000e+00	
					         2.60500	3.00000e+00	
					         2.60667	5.00000e+00	
					         2.60833	6.00000e+00	
					         2.61000	7.00000e+00	
					         2.61167	8.00000e+00	
					         2.61333	9.00000e+00	
					         2.61500	9.00000e+00	
					         2.61667	1.00000e+01	
					         2.61833	1.00000e+01	
					         2.62000	1.00000e+01	
					         2.62167	1.00000e+01	
					         2.62333	1.00000e+01	
					         2.62500	1.00000e+01	
					         2.62667	1.00000e+01	
					         2.62833	1.10000e+01	
					         2.63000	1.20000e+01	
					         2.63167	1.30000e+01	
					         2.63333	1.50000e+01	
					         2.63500	1.60000e+01	
					         2.63667	1.80000e+01	
					         2.63833	1.90000e+01	
					         2.64000	2.10000e+01	
					         2.64167	2.20000e+01	
					         2.64333	2.30000e+01	
					         2.64500	2.40000e+01	
					         2.64667	2.50000e+01	
					         2.64833	2.60000e+01	
					         2.65000	2.60000e+01	
					         2.65167	2.60000e+01	
					         2.65333	2.60000e+01	
					         2.65500	2.60000e+01	
					         2.65667	2.50000e+01	
					         2.65833	2.40000e+01	
					         2.66000	2.30000e+01	
					         2.66167	2.10000e+01	
					         2.66333	1.90000e+01	
					         2.66500	1.70000e+01	
					         2.66667	1.50000e+01	
					         2.66833	1.20000e+01	
					         2.67000	1.00000e+01	
					         2.67167	7.00000e+00	
					         2.67333	4.00000e+00	
					         2.67500	2.00000e+00	
					         2.67667	0.00000e+00	
					         2.67833	-1.00000e+00	
					         2.68000	-2.00000e+00	
					         2.68167	-3.00000e+00	
					         2.68333	-3.00000e+00	
					         2.68500	-3.00000e+00	
					         2.68667	-2.00000e+00	
					         2.68833	-2.00000e+00	
					         2.69000	-1.00000e+00	
					         2.69167	-1.00000e+00	
					         2.69333	0.00000e+00	
					         2.69500	0.00000e+00	
					         2.69667	0.00000e+00	
					         2.69833	0.00000e+00	
					         2.70000	-1.00000e+00	
					         2.70167	-1.00000e+00	
					         2.70333	-2.00000e+00	
					         2.70500	-3.00000e+00	
					         2.70667	-4.00000e+00	
					         2.70833	-4.00000e+00	
					         2.71000	-5.00000e+00	
					         2.71167	-6.00000e+00	
					         2.71333	-6.00000e+00	
					         2.71500	-7.00000e+00	
					         2.71667	-7.00000e+00	
					         2.71833	-7.00000e+00	
					         2.72000	-6.00000e+00	
					         2.72167	-6.00000e+00	
					         2.72333	-5.00000e+00	
					         2.72500	-4.00000e+00	
					         2.72667	-3.00000e+00	
					         2.72833	-2.00000e+00	
					         2.73000	-1.00000e+00	
					         2.73167	0.00000e+00	
					         2.73333	1.00000e+00	
					         2.73500	2.00000e+00	
					         2.73667	3.00000e+00	
					         2.73833	3.00000e+00	
					         2.74000	3.00000e+00	
					         2.74167	2.00000e+00	
					         2.74333	2.00000e+00	
					         2.74500	1.00000e+00	
					         2.74667	0.00000e+00	
					         2.74833	-2.00000e+00	
					         2.75000	-3.00000e+00	
					         2.75167	-5.00000e+00	
					         2.75333	-7.00000e+00	
					         2.75500	-8.00000e+00	
					         2.75667	-9.00000e+00	
					         2.75833	-1.00000e+01	
					         2.76000	-1.10000e+01	
					         2.76167	-1.20000e+01	
					         2.76333	-1.30000e+01	
					         2.76500	-1.30000e+01	
					         2.76667	-1.40000e+01	
					         2.76833	-1.40000e+01	
					         2.77000	-1.30000e+01	
					         2.77167	-1.30000e+01	
					         2.77333	-1.30000e+01	
					         2.77500	-1.20000e+01	
					         2.77667	-1.20000e+01	
					         2.77833	-1.10000e+01	
					         2.78000	-1.10000e+01	
					         2.78167	-1.10000e+01	
					         2.78333	-1.10000e+01	
					         2.78500	-1.10000e+01	
					         2.78667	-1.10000e+01	
					         2.78833	-1.10000e+01	
					         2.79000	-1.10000e+01	
					         2.79167	-1.00000e+01	
					         2.79333	-1.00000e+01	
					         2.79500	-9.00000e+00	
					         2.79667	-8.00000e+00	
					         2.79833	-7.00000e+00	
					         2.80000	-6.00000e+00	
					         2.80167	-4.00000e+00	
					         2.80333	-3.00000e+00	
					         2.80500	-2.00000e+00	
					         2.80667	-1.00000e+00	
					         2.80833	0.00000e+00	
					         2.81000	0.00000e+00	
					         2.81167	0.00000e+00	
					         2.81333	-1.00000e+00	
					         2.81500	-2.00000e+00	
					         2.81667	-3.00000e+00	
					         2.81833	-5.00000e+00	
					         2.82000	-6.00000e+00	
					         2.82167	-7.00000e+00	
					         2.82333	-8.00000e+00	
					         2.82500	-9.00000e+00	
					         2.82667	-9.00000e+00	
					         2.82833	-9.00000e+00	
					         2.83000	-9.00000e+00	
					         2.83167	-8.00000e+00	
					         2.83333	-7.00000e+00	
					         2.83500	-5.00000e+00	
					         2.83667	-3.00000e+00	
					         2.83833	-1.00000e+00	
					         2.84000	0.00000e+00	
					         2.84167	1.00000e+00	
					         2.84333	2.00000e+00	
					         2.84500	3.00000e+00	
					         2.84667	3.00000e+00	
					         2.84833	2.00000e+00	
					         2.85000	1.00000e+00	
					         2.85167	0.00000e+00	
					         2.85333	-1.00000e+00	
					         2.85500	-2.00000e+00	
					         2.85667	-4.00000e+00	
					         2.85833	-5.00000e+00	
					         2.86000	-6.00000e+00	
					         2.86167	-7.00000e+00	
					         2.86333	-8.00000e+00	
					         2.86500	-8.00000e+00	
					         2.86667	-9.00000e+00	
					         2.86833	-9.00000e+00	
					         2.87000	-1.00000e+01	
					         2.87167	-1.10000e+01	
					         2.87333	-1.10000e+01	
					         2.87500	-1.10000e+01	
					         2.87667	-1.20000e+01	
					         2.87833	-1.20000e+01	
					         2.88000	-1.20000e+01	
					         2.88167	-1.20000e+01	
					         2.88333	-1.20000e+01	
					         2.88500	-1.10000e+01	
					         2.88667	-1.00000e+01	
					         2.88833	-9.00000e+00	
					         2.89000	-8.00000e+00	
					         2.89167	-7.00000e+00	
					         2.89333	-6.00000e+00	
					         2.89500	-6.00000e+00	
					         2.89667	-5.00000e+00	
					         2.89833	-5.00000e+00	
					         2.90000	-5.00000e+00	
					         2.90167	-5.00000e+00	
					         2.90333	-5.00000e+00	
					         2.90500	-5.00000e+00	
					         2.90667	-6.00000e+00	
					         2.90833	-6.00000e+00	
					         2.91000	-7.00000e+00	
					         2.91167	-7.00000e+00	
					         2.91333	-7.00000e+00	
					         2.91500	-7.00000e+00	
					         2.91667	-7.00000e+00	
					         2.91833	-7.00000e+00	
					         2.92000	-6.00000e+00	
					         2.92167	-6.00000e+00	
					         2.92333	-5.00000e+00	
					         2.92500	-5.00000e+00	
					         2.92667	-4.00000e+00	
					         2.92833	-4.00000e+00	
					         2.93000	-4.00000e+00	
					         2.93167	-3.00000e+00	
					         2.93333	-3.00000e+00	
					         2.93500	-2.00000e+00	
					         2.93667	0.00000e+00	
					         2.93833	1.00000e+00	
					         2.94000	2.00000e+00	
					         2.94167	4.00000e+00	
					         2.94333	5.00000e+00	
					         2.94500	5.00000e+00	
					         2.94667	6.00000e+00	
					         2.94833	6.00000e+00	
					         2.95000	6.00000e+00	
					         2.95167	6.00000e+00	
					         2.95333	5.00000e+00	
					         2.95500	3.00000e+00	
					         2.95667	1.00000e+00	
					         2.95833	-1.00000e+00	
					         2.96000	-3.00000e+00	
					         2.96167	-4.00000e+00	
					         2.96333	-6.00000e+00	
					         2.96500	-6.00000e+00	
					         2.96667	-6.00000e+00	
					         2.96833	-6.00000e+00	
					         2.97000	-6.00000e+00	
					         2.97167	-6.00000e+00	
					         2.97333	-5.00000e+00	
					         2.97500	-5.00000e+00	
					         2.97667	-4.00000e+00	
					         2.97833	-4.00000e+00	
					         2.98000	-4.00000e+00	
					         2.98167	-4.00000e+00	
					         2.98333	-5.00000e+00	
					         2.98500	-5.00000e+00	
					         2.98667	-6.00000e+00	
					         2.98833	-7.00000e+00	
					         2.99000	-7.00000e+00	
					         2.99167	-8.00000e+00	
					         2.99333	-8.00000e+00	
					         2.99500	-7.00000e+00	
					         2.99667	-6.00000e+00	
					         2.99833	-4.00000e+00	
					         3.00000	-1.00000e+00	
					         3.00167	1.00000e+00	
					         3.00333	4.00000e+00	
					         3.00500	7.00000e+00	
					         3.00667	1.00000e+01	
					         3.00833	1.40000e+01	
					         3.01000	1.70000e+01	
					         3.01167	2.00000e+01	
					         3.01333	2.30000e+01	
					         3.01500	2.50000e+01	
					         3.01667	2.70000e+01	
					         3.01833	2.80000e+01	
					         3.02000	2.90000e+01	
					         3.02167	2.90000e+01	
					         3.02333	3.00000e+01	
					         3.02500	3.00000e+01	
					         3.02667	2.90000e+01	
					         3.02833	2.90000e+01	
					         3.03000	2.90000e+01	
					         3.03167	3.00000e+01	
					         3.03333	3.00000e+01	
					         3.03500	3.10000e+01	
					         3.03667	3.20000e+01	
					         3.03833	3.20000e+01	
					         3.04000	3.30000e+01	
					         3.04167	3.30000e+01	
					         3.04333	3.20000e+01	
					         3.04500	3.10000e+01	
					         3.04667	2.90000e+01	
					         3.04833	2.70000e+01	
					         3.05000	2.50000e+01	
					         3.05167	2.20000e+01	
					         3.05333	1.90000e+01	
					         3.05500	1.50000e+01	
					         3.05667	1.20000e+01	
					         3.05833	8.00000e+00	
					         3.06000	4.00000e+00	
					         3.06167	1.00000e+00	
					         3.06333	-2.00000e+00	
					         3.06500	-4.00000e+00	
					         3.06667	-7.00000e+00	
					         3.06833	-8.00000e+00	
					         3.07000	-1.00000e+01	
					         3.07167	-1.20000e+01	
					         3.07333	-1.30000e+01	
					         3.07500	-1.40000e+01	
					         3.07667	-1.50000e+01	
					         3.07833	-1.50000e+01	
					         3.08000	-1.50000e+01	
					         3.08167	-1.50000e+01	
					         3.08333	-1.40000e+01	
					         3.08500	-1.30000e+01	
					         3.08667	-1.20000e+01	
					         3.08833	-1.00000e+01	
					         3.09000	-8.00000e+00	
					         3.09167	-7.00000e+00	
					         3.09333	-5.00000e+00	
					         3.09500	-4.00000e+00	
					         3.09667	-4.00000e+00	
					         3.09833	-3.00000e+00	
					         3.10000	-4.00000e+00	
					         3.10167	-5.00000e+00	
					         3.10333	-6.00000e+00	
					         3.10500	-8.00000e+00	
					         3.10667	-1.00000e+01	
					         3.10833	-1.10000e+01	
					         3.11000	-1.30000e+01	
					         3.11167	-1.50000e+01	
					         3.11333	-1.60000e+01	
					         3.11500	-1.70000e+01	
					         3.11667	-1.80000e+01	
					         3.11833	-1.80000e+01	
					         3.12000	-1.80000e+01	
					         3.12167	-1.70000e+01	
					         3.12333	-1.60000e+01	
					         3.12500	-1.50000e+01	
					         3.12667	-1.30000e+01	
					         3.12833	-1.20000e+01	
					         3.13000	-1.10000e+01	
					         3.13167	-1.00000e+01	
					         3.13333	-9.00000e+00	
					         3.13500	-9.00000e+00	
					         3.13667	-8.00000e+00	
					         3.13833	-8.00000e+00	
					         3.14000	-7.00000e+00	
					         3.14167	-7.00000e+00	
					         3.14333	-7.00000e+00	
					         3.14500	-7.00000e+00	
					         3.14667	-7.00000e+00	
					         3.14833	-7.00000e+00	
					         3.15000	-7.00000e+00	
					         3.15167	-6.00000e+00	
					         3.15333	-4.00000e+00	
					         3.15500	-2.00000e+00	
					         3.15667	1.00000e+00	
					         3.15833	6.00000e+00	
					         3.16000	1.10000e+01	
					         3.16167	1.70000e+01	
					         3.16333	2.40000e+01	
					         3.16500	3.20000e+01	
					         3.16667	4.20000e+01	
					         3.16833	5.40000e+01	
					         3.17000	6.70000e+01	
					         3.17167	8.10000e+01	
					         3.17333	9.50000e+01	
					         3.17500	1.10000e+02	
					         3.17667	1.25000e+02	
					         3.17833	1.40000e+02	
					         3.18000	1.55000e+02	
					         3.18167	1.70000e+02	
					         3.18333	1.84000e+02	
					         3.18500	1.98000e+02	
					         3.18667	2.09000e+02	
					         3.18833	2.17000e+02	
					         3.19000	2.20000e+02	
					         3.19167	2.18000e+02	
					         3.19333	2.10000e+02	
					         3.19500	1.96000e+02	
					         3.19667	1.76000e+02	
					         3.19833	1.50000e+02	
					         3.20000	1.18000e+02	
					         3.20167	8.20000e+01	
					         3.20333	4.20000e+01	
					         3.20500	-1.00000e+00	
					         3.20667	-4.50000e+01	
					         3.20833	-8.70000e+01	
					         3.21000	-1.27000e+02	
					         3.21167	-1.62000e+02	
					         3.21333	-1.92000e+02	
					         3.21500	-2.15000e+02	
					         3.21667	-2.31000e+02	
					         3.21833	-2.42000e+02	
					         3.22000	-2.46000e+02	
					         3.22167	-2.45000e+02	
					         3.22333	-2.39000e+02	
					         3.22500	-2.30000e+02	
					         3.22667	-2.17000e+02	
					         3.22833	-2.02000e+02	
					         3.23000	-1.85000e+02	
					         3.23167	-1.68000e+02	
					         3.23333	-1.51000e+02	
					         3.23500	-1.34000e+02	
					         3.23667	-1.17000e+02	
					         3.23833	-1.01000e+02	
					         3.24000	-8.60000e+01	
					         3.24167	-7.20000e+01	
					         3.24333	-6.00000e+01	
					         3.24500	-4.90000e+01	
					         3.24667	-4.00000e+01	
					         3.24833	-3.20000e+01	
					         3.25000	-2.50000e+01	
					         3.25167	-2.00000e+01	
					         3.25333	-1.50000e+01	
					         3.25500	-1.10000e+01	
					         3.25667	-8.00000e+00	
					         3.25833	-6.00000e+00	
					         3.26000	-5.00000e+00	
					         3.26167	-4.00000e+00	
