Grayscale intensity, in dB

Time (s) :	Trace 1 : 	Trace 2 : 	Trace 3 : 		Ecg : 		
0.00141   	-4.06530e+01	-5.42451e+01	-2.45380e+01		         0.00000	-2.20000e+01	
0.01947   	-4.06274e+01	-5.37232e+01	-2.42653e+01		         0.00167	-1.90000e+01	
0.03753   	-4.02879e+01	-5.32909e+01	-2.41259e+01		         0.00333	-1.60000e+01	
0.05559   	-3.96184e+01	-5.29086e+01	-2.67755e+01		         0.00500	-1.10000e+01	
0.07364   	-3.95296e+01	-4.19745e+01	-2.88185e+01		         0.00667	-4.00000e+00	
0.09170   	-4.06785e+01	-4.36699e+01	-3.06565e+01		         0.00833	4.00000e+00	
0.10976   	-4.20450e+01	-4.24116e+01	-2.90030e+01		         0.01000	1.40000e+01	
0.12782   	-4.09119e+01	-4.32293e+01	-3.01576e+01		         0.01167	2.60000e+01	
0.14588   	-3.90885e+01	-4.27663e+01	-2.83582e+01		         0.01333	4.00000e+01	
0.16393   	-3.70743e+01	-4.29163e+01	-2.88577e+01		         0.01500	5.40000e+01	
0.18199   	-3.58064e+01	-4.46906e+01	-2.76473e+01		         0.01667	7.10000e+01	
0.20005   	-3.46789e+01	-4.43390e+01	-2.86454e+01		         0.01833	8.70000e+01	
0.21811   	-3.23738e+01	-4.66076e+01	-2.99578e+01		         0.02000	1.04000e+02	
0.23616   	-3.04463e+01	-4.89542e+01	-3.07959e+01		         0.02167	1.21000e+02	
0.25422   	-2.72912e+01	-4.73237e+01	-3.00954e+01		         0.02333	1.36000e+02	
0.27228   	-2.47080e+01	-4.76421e+01	-3.21434e+01		         0.02500	1.49000e+02	
0.29034   	-2.43768e+01	-4.96506e+01	-3.22439e+01		         0.02667	1.60000e+02	
0.30840   	-2.50562e+01	-5.14016e+01	-3.35208e+01		         0.02833	1.69000e+02	
0.32646   	-2.62503e+01	-5.11749e+01	-3.37663e+01		         0.03000	1.75000e+02	
0.34452   	-2.75655e+01	-4.83958e+01	-3.36250e+01		         0.03167	1.77000e+02	
0.36257   	-2.92360e+01	-4.90295e+01	-3.51338e+01		         0.03333	1.77000e+02	
0.38063   	-2.98268e+01	-4.79631e+01	-3.63844e+01		         0.03500	1.74000e+02	
0.39869   	-3.07989e+01	-4.95985e+01	-3.66349e+01		         0.03667	1.68000e+02	
0.41675   	-3.27245e+01	-5.06546e+01	-3.62690e+01		         0.03833	1.59000e+02	
0.43482   	-3.39974e+01	-4.92345e+01	-3.64725e+01		         0.04000	1.49000e+02	
0.45286   	-3.32984e+01	-4.68777e+01	-3.69602e+01		         0.04167	1.38000e+02	
0.47093   	-3.12317e+01	-4.82777e+01	-3.86444e+01		         0.04333	1.26000e+02	
0.48898   	-2.83688e+01	-4.49671e+01	-3.67446e+01		         0.04500	1.13000e+02	
0.50704   	-2.72537e+01	-4.51319e+01	-3.56652e+01		         0.04667	1.01000e+02	
0.52510   	-2.51522e+01	-4.67284e+01	-3.62654e+01		         0.04833	8.90000e+01	
0.54316   	-2.60421e+01	-4.01476e+01	-3.55185e+01		         0.05000	7.70000e+01	
0.56122   	-2.63168e+01	-3.99657e+01	-3.67090e+01		         0.05167	6.60000e+01	
0.57927   	-2.61097e+01	-4.26374e+01	-3.93654e+01		         0.05333	5.60000e+01	
0.59733   	-2.43410e+01	-4.39083e+01	-4.05240e+01		         0.05500	4.70000e+01	
0.61539   	-2.26354e+01	-4.56946e+01	-4.03492e+01		         0.05667	3.80000e+01	
0.63344   	-2.18967e+01	-4.69039e+01	-3.67903e+01		         0.05833	2.90000e+01	
0.65150   	-2.24305e+01	-4.68777e+01	-3.44980e+01		         0.06000	2.10000e+01	
0.66956   	-2.23962e+01	-4.83286e+01	-3.45026e+01		         0.06167	1.40000e+01	
0.68762   	-2.28701e+01	-4.57382e+01	-3.40104e+01		         0.06333	7.00000e+00	
0.70568   	-2.28983e+01	-4.62166e+01	-3.33647e+01		         0.06500	1.00000e+00	
0.72374   	-2.23301e+01	-4.76872e+01	-3.29888e+01		         0.06667	-5.00000e+00	
0.74179   	-2.20207e+01	-4.72150e+01	-3.25982e+01		         0.06833	-1.00000e+01	
0.75986   	-2.17473e+01	-4.65175e+01	-3.23113e+01		         0.07000	-1.50000e+01	
0.77791   	-2.13606e+01	-4.57727e+01	-3.18376e+01		         0.07167	-2.00000e+01	
0.79597   	-2.09864e+01	-4.64958e+01	-3.13629e+01		         0.07333	-2.40000e+01	
0.81403   	-2.07478e+01	-4.72315e+01	-3.11244e+01		         0.07500	-2.80000e+01	
0.83208   	-2.04588e+01	-4.53619e+01	-3.13145e+01		         0.07667	-3.20000e+01	
0.85014   	-2.02978e+01	-4.40869e+01	-3.13467e+01		         0.07833	-3.50000e+01	
0.86820   	-2.02131e+01	-4.37545e+01	-3.12035e+01		         0.08000	-3.80000e+01	
0.88626   	-2.03103e+01	-4.33677e+01	-3.13159e+01		         0.08167	-4.10000e+01	
0.90432   	-2.05741e+01	-4.24733e+01	-3.12819e+01		         0.08333	-4.30000e+01	
0.92238   	-2.09115e+01	-4.21546e+01	-3.09993e+01		         0.08500	-4.40000e+01	
0.94043   	-2.12859e+01	-4.21411e+01	-3.11806e+01		         0.08667	-4.50000e+01	
0.95849   	-2.16067e+01	-4.21753e+01	-3.11676e+01		         0.08833	-4.60000e+01	
0.97655   	-2.18559e+01	-4.31214e+01	-3.13475e+01		         0.09000	-4.70000e+01	
0.99461   	-2.20021e+01	-4.49919e+01	-3.13240e+01		         0.09167	-4.70000e+01	
1.01267   	-2.21127e+01	-4.50782e+01	-3.07836e+01		         0.09333	-4.70000e+01	
1.03072   	-2.16795e+01	-4.73703e+01	-2.98577e+01		         0.09500	-4.70000e+01	
1.04902   	-2.02568e+01	-4.72990e+01	-2.92173e+01		         0.09667	-4.70000e+01	
1.06684   	-2.25096e+01	-4.92770e+01	-2.88638e+01		         0.09833	-4.70000e+01	
1.08490   	-2.42064e+01	-4.91640e+01	-3.01045e+01		         0.10000	-4.70000e+01	
1.10296   	-2.52844e+01	-4.88622e+01	-2.94566e+01		         0.10167	-4.60000e+01	
1.12101   	-2.66971e+01	-4.82384e+01	-2.74650e+01		         0.10333	-4.50000e+01	
1.13907   	-2.63950e+01	-4.84847e+01	-2.39498e+01		         0.10500	-4.40000e+01	
1.15713   	-2.63750e+01	-4.70470e+01	-2.24527e+01		         0.10667	-4.30000e+01	
1.17519   	-2.68521e+01	-4.54710e+01	-2.38684e+01		         0.10833	-4.20000e+01	
1.19325   	-2.76418e+01	-4.44963e+01	-2.40437e+01		         0.11000	-4.20000e+01	
1.21131   	-2.78194e+01	-4.14788e+01	-2.02570e+01		         0.11167	-4.10000e+01	
1.22936   	-2.87156e+01	-3.63272e+01	-1.62572e+01		         0.11333	-4.00000e+01	
1.24742   	-2.77178e+01	-4.10609e+01	-1.71105e+01		         0.11500	-3.90000e+01	
1.26548   	-2.68990e+01	-4.00397e+01	-2.03527e+01		         0.11667	-3.80000e+01	
1.28354   	-2.67078e+01	-3.51445e+01	-2.00968e+01		         0.11833	-3.70000e+01	
1.30160   	-2.51875e+01	-3.39697e+01	-2.01959e+01		         0.12000	-3.60000e+01	
1.31966   	-2.45222e+01	-3.28532e+01	-2.20564e+01		         0.12167	-3.60000e+01	
1.33771   	-2.46907e+01	-3.20315e+01	-2.25538e+01		         0.12333	-3.50000e+01	
1.35577   	-2.52170e+01	-2.91053e+01	-2.44739e+01		         0.12500	-3.40000e+01	
1.37383   	-2.54247e+01	-2.87186e+01	-2.43704e+01		         0.12667	-3.40000e+01	
1.39189   	-2.69703e+01	-2.86319e+01	-2.30669e+01		         0.12833	-3.40000e+01	
1.40995   	-2.73544e+01	-2.98831e+01	-2.29602e+01		         0.13000	-3.30000e+01	
1.42800   	-2.83604e+01	-3.07806e+01	-2.25066e+01		         0.13167	-3.30000e+01	
1.44606   	-3.01879e+01	-3.47156e+01	-2.49985e+01		         0.13333	-3.20000e+01	
1.46419   	-3.05364e+01	-3.70483e+01	-2.47171e+01		         0.13500	-3.10000e+01	
1.48218   	-3.04532e+01	-3.73037e+01	-2.63778e+01		         0.13667	-3.00000e+01	
1.50024   	-3.14252e+01	-3.75697e+01	-3.09212e+01		         0.13833	-2.90000e+01	
1.51830   	-3.15311e+01	-3.73454e+01	-3.22621e+01		         0.14000	-2.80000e+01	
1.53635   	-3.07097e+01	-3.87607e+01	-3.24380e+01		         0.14167	-2.80000e+01	
1.55441   	-3.04954e+01	-4.00867e+01	-3.29786e+01		         0.14333	-2.70000e+01	
1.57247   	-3.17504e+01	-4.17143e+01	-3.21550e+01		         0.14500	-2.60000e+01	
1.59053   	-3.28456e+01	-4.35788e+01	-3.04661e+01		         0.14667	-2.60000e+01	
1.60858   	-3.46136e+01	-4.47000e+01	-2.96435e+01		         0.14833	-2.60000e+01	
1.62664   	-3.42342e+01	-4.18544e+01	-2.77961e+01		         0.15000	-2.50000e+01	
1.64470   	-3.31032e+01	-3.65015e+01	-2.70871e+01		         0.15167	-2.50000e+01	
1.66276   	-2.94742e+01	-3.55112e+01	-2.51492e+01		         0.15333	-2.40000e+01	
1.68082   	-2.91074e+01	-3.41437e+01	-2.46682e+01		         0.15500	-2.30000e+01	
1.69888   	-2.93938e+01	-3.56112e+01	-2.84464e+01		         0.15667	-2.30000e+01	
1.71694   	-3.07498e+01	-3.61440e+01	-3.13750e+01		         0.15833	-2.30000e+01	
1.73499   	-3.07781e+01	-3.40450e+01	-3.46681e+01		         0.16000	-2.20000e+01	
1.75305   	-2.97529e+01	-3.43154e+01	-3.30684e+01		         0.16167	-2.20000e+01	
1.77111   	-2.91889e+01	-3.27232e+01	-3.11388e+01		         0.16333	-2.20000e+01	
1.78917   	-2.88251e+01	-3.31183e+01	-3.00171e+01		         0.16500	-2.20000e+01	
1.80723   	-2.87990e+01	-3.51544e+01	-2.90178e+01		         0.16667	-2.20000e+01	
1.82528   	-2.93755e+01	-3.52097e+01	-2.84417e+01		         0.16833	-2.10000e+01	
1.84334   	-2.96927e+01	-3.48716e+01	-2.80017e+01		         0.17000	-2.10000e+01	
1.86140   	-2.96548e+01	-3.46712e+01	-2.83637e+01		         0.17167	-2.00000e+01	
1.87946   	-2.96903e+01	-3.43933e+01	-2.92002e+01		         0.17333	-2.00000e+01	
1.89751   	-2.95493e+01	-3.54693e+01	-2.96200e+01		         0.17500	-1.90000e+01	
1.91558   	-2.96417e+01	-3.48288e+01	-2.96053e+01		         0.17667	-1.80000e+01	
1.93363   	-2.96911e+01	-3.54289e+01	-2.85935e+01		         0.17833	-1.80000e+01	
1.95169   	-2.96195e+01	-3.56384e+01	-2.73256e+01		         0.18000	-1.70000e+01	
1.96975   	-2.97875e+01	-3.62075e+01	-2.60894e+01		         0.18167	-1.60000e+01	
1.98781   	-2.97566e+01	-3.71651e+01	-2.53541e+01		         0.18333	-1.50000e+01	
2.00587   	-2.95362e+01	-3.74762e+01	-2.54247e+01		         0.18500	-1.40000e+01	
2.02392   	-2.93488e+01	-3.85638e+01	-2.59946e+01		         0.18667	-1.30000e+01	
2.04198   	-2.91294e+01	-4.00263e+01	-2.62600e+01		         0.18833	-1.20000e+01	
2.06004   	-2.88535e+01	-4.11796e+01	-2.68073e+01		         0.19000	-1.10000e+01	
2.07847   	-2.88822e+01	-4.18214e+01	-2.74949e+01		         0.19167	-1.00000e+01	
2.09615   	-2.88669e+01	-4.17117e+01	-2.80422e+01		         0.19333	-9.00000e+00	
2.11422   	-2.88281e+01	-4.19853e+01	-2.83666e+01		         0.19500	-9.00000e+00	
2.13227   	-2.87140e+01	-4.20521e+01	-2.86983e+01		         0.19667	-9.00000e+00	
2.15033   	-2.87059e+01	-4.30612e+01	-2.87224e+01		         0.19833	-9.00000e+00	
2.16839   	-2.85198e+01	-4.26645e+01	-2.84280e+01		         0.20000	-9.00000e+00	
2.18645   	-2.82710e+01	-4.55526e+01	-2.84473e+01		         0.20167	-9.00000e+00	
2.20450   	-2.79627e+01	-4.50379e+01	-2.87958e+01		         0.20333	-9.00000e+00	
2.22256   	-2.97857e+01	-4.17932e+01	-3.06527e+01		         0.20500	-1.00000e+01	
2.24062   	-2.95063e+01	-4.15805e+01	-3.05762e+01		         0.20667	-1.00000e+01	
2.25868   	-2.94351e+01	-4.35955e+01	-2.59925e+01		         0.20833	-1.10000e+01	
2.27673   	-3.06808e+01	-4.68619e+01	-2.87240e+01		         0.21000	-1.10000e+01	
2.29479   	-3.21907e+01	-4.64209e+01	-2.60873e+01		         0.21167	-1.20000e+01	
2.31285   	-3.23700e+01	-4.57897e+01	-2.39378e+01		         0.21333	-1.30000e+01	
2.33091   	-3.30730e+01	-4.71184e+01	-2.37343e+01		         0.21500	-1.30000e+01	
2.34897   	-3.36734e+01	-4.54108e+01	-2.23845e+01		         0.21667	-1.40000e+01	
2.36703   	-3.18372e+01	-4.54774e+01	-2.31376e+01		         0.21833	-1.40000e+01	
2.38508   	-3.26555e+01	-4.60026e+01	-1.72639e+01		         0.22000	-1.40000e+01	
2.40314   	-3.25082e+01	-4.44935e+01	-1.75037e+01		         0.22167	-1.40000e+01	
2.42120   	-3.26774e+01	-4.41601e+01	-2.08415e+01		         0.22333	-1.40000e+01	
2.43926   	-3.26135e+01	-4.21994e+01	-2.56515e+01		         0.22500	-1.40000e+01	
2.45732   	-3.09077e+01	-4.12692e+01	-2.18805e+01		         0.22667	-1.40000e+01	
2.47537   	-2.94980e+01	-3.72197e+01	-2.30788e+01		         0.22833	-1.40000e+01	
2.49343   	-2.87104e+01	-3.43276e+01	-2.37483e+01		         0.23000	-1.30000e+01	
2.51149   	-2.90022e+01	-3.51197e+01	-2.62426e+01		         0.23167	-1.30000e+01	
2.52955   	-3.00060e+01	-3.37516e+01	-2.54835e+01		         0.23333	-1.30000e+01	
2.54761   	-3.07788e+01	-3.38046e+01	-2.41738e+01		         0.23500	-1.30000e+01	
2.56567   	-3.16869e+01	-3.40957e+01	-2.42618e+01		         0.23667	-1.30000e+01	
2.58373   	-3.26309e+01	-3.37404e+01	-2.54342e+01		         0.23833	-1.30000e+01	
2.60178   	-3.33727e+01	-3.65634e+01	-2.68177e+01		         0.24000	-1.20000e+01	
2.61984   	-3.29691e+01	-3.78205e+01	-2.69587e+01		         0.24167	-1.20000e+01	
2.63790   	-3.28467e+01	-3.92921e+01	-2.69432e+01		         0.24333	-1.20000e+01	
2.65596   	-3.34133e+01	-3.89991e+01	-3.32636e+01		         0.24500	-1.20000e+01	
2.67401   	-3.34354e+01	-3.94134e+01	-3.66499e+01		         0.24667	-1.10000e+01	
2.69207   	-3.32821e+01	-4.00991e+01	-3.58786e+01		         0.24833	-1.10000e+01	
2.71013   	-3.41798e+01	-4.07243e+01	-3.68541e+01		         0.25000	-1.00000e+01	
2.72819   	-3.49144e+01	-4.28063e+01	-3.70446e+01		         0.25167	-9.00000e+00	
2.74625   	-3.52284e+01	-4.55962e+01	-3.67093e+01		         0.25333	-8.00000e+00	
2.76431   	-3.68051e+01	-4.73744e+01	-3.43209e+01		         0.25500	-7.00000e+00	
2.78236   	-3.65111e+01	-4.48137e+01	-3.28208e+01		         0.25667	-6.00000e+00	
2.80042   	-3.51334e+01	-4.10033e+01	-3.09809e+01		         0.25833	-5.00000e+00	
2.81848   	-3.19233e+01	-3.94874e+01	-3.05034e+01		         0.26000	-4.00000e+00	
2.83654   	-3.04434e+01	-3.70193e+01	-3.19410e+01		         0.26167	-4.00000e+00	
2.85460   	-2.99756e+01	-3.63358e+01	-2.95772e+01		         0.26333	-3.00000e+00	
2.87266   	-3.09020e+01	-3.68372e+01	-3.44883e+01		         0.26500	-3.00000e+00	
2.89071   	-3.10416e+01	-3.59485e+01	-3.85139e+01		         0.26667	-3.00000e+00	
2.90877   	-3.19370e+01	-3.67090e+01	-3.82341e+01		         0.26833	-2.00000e+00	
2.92683   	-3.11462e+01	-3.75618e+01	-3.47781e+01		         0.27000	-2.00000e+00	
2.94489   	-3.01589e+01	-3.92420e+01	-3.47845e+01		         0.27167	-2.00000e+00	
2.96294   	-2.97370e+01	-3.95963e+01	-3.37707e+01		         0.27333	-1.00000e+00	
2.98100   	-3.00902e+01	-3.96147e+01	-3.23328e+01		         0.27500	-1.00000e+00	
2.99906   	-2.99679e+01	-3.91511e+01	-3.18538e+01		         0.27667	0.00000e+00	
3.01712   	-2.96229e+01	-3.82692e+01	-3.18407e+01		         0.27833	1.00000e+00	
3.03518   	-2.97125e+01	-3.73185e+01	-3.13692e+01		         0.28000	2.00000e+00	
3.05324   	-3.00867e+01	-3.82503e+01	-3.07922e+01		         0.28167	3.00000e+00	
3.07129   	-3.02101e+01	-3.87464e+01	-3.16334e+01		         0.28333	4.00000e+00	
3.08935   	-3.01286e+01	-3.92935e+01	-3.14425e+01		         0.28500	5.00000e+00	
3.10774   	-3.00679e+01	-3.82146e+01	-3.07391e+01		         0.28667	6.00000e+00	
3.12547   	-2.99704e+01	-3.83651e+01	-3.06039e+01		         0.28833	7.00000e+00	
3.14353   	-2.97046e+01	-3.82687e+01	-3.06260e+01		         0.29000	8.00000e+00	
3.16159   	-2.94631e+01	-3.85803e+01	-3.08796e+01		         0.29167	9.00000e+00	
3.17964   	-2.92237e+01	-3.83480e+01	-3.11103e+01		         0.29333	1.00000e+01	
3.19770   	-2.90425e+01	-3.80482e+01	-3.15441e+01		         0.29500	1.10000e+01	
3.21576   	-2.86972e+01	-3.81531e+01	-3.20132e+01		         0.29667	1.20000e+01	
3.23382   	-2.83320e+01	-3.84756e+01	-3.23222e+01		         0.29833	1.20000e+01	
3.25188   	-2.79019e+01	-3.93345e+01	-3.26501e+01		         0.30000	1.30000e+01	
3.26993   	-2.74717e+01	-4.00614e+01	-3.28182e+01		         0.30167	1.40000e+01	
3.28799   	-2.72036e+01	-4.09116e+01	-3.28662e+01		         0.30333	1.50000e+01	
3.30605   	-2.68673e+01	-4.17319e+01	-3.28228e+01		         0.30500	1.60000e+01	
3.32411   	-2.66334e+01	-4.48652e+01	-3.29096e+01		         0.30667	1.70000e+01	
3.34217   	-2.65403e+01	-4.42650e+01	-3.29151e+01		         0.30833	1.80000e+01	
3.36023   	-2.68659e+01	-4.80331e+01	-3.29897e+01		         0.31000	1.90000e+01	
3.37828   	-2.85503e+01	-4.74648e+01	-3.30747e+01		         0.31167	2.10000e+01	
3.39635   	-2.55300e+01	-4.87664e+01	-3.30312e+01		         0.31333	2.20000e+01	
3.41440   	-2.78673e+01	-4.90420e+01	-3.24661e+01		         0.31500	2.30000e+01	
3.43246   	-2.83888e+01	-5.03531e+01	-2.88601e+01		         0.31667	2.50000e+01	
3.45052   	-3.07801e+01	-5.27866e+01	-2.92268e+01		         0.31833	2.60000e+01	
3.46858   	-3.14828e+01	-5.35928e+01	-2.80599e+01		         0.32000	2.70000e+01	
3.48663   	-3.14430e+01	-5.24524e+01	-2.52975e+01		         0.32167	2.90000e+01	
3.50469   	-3.10520e+01	-5.35818e+01	-2.73257e+01		         0.32333	3.00000e+01	
3.52282   	-3.08528e+01	-5.29026e+01	-2.68689e+01		         0.32500	3.00000e+01	
3.54081   	-3.09474e+01	-4.65656e+01	-2.68893e+01		         0.32667	3.10000e+01	
					         0.32833	3.20000e+01	
					         0.33000	3.20000e+01	
					         0.33167	3.20000e+01	
					         0.33333	3.20000e+01	
					         0.33500	3.10000e+01	
					         0.33667	3.10000e+01	
					         0.33833	3.00000e+01	
					         0.34000	2.90000e+01	
					         0.34167	2.80000e+01	
					         0.34333	2.70000e+01	
					         0.34500	2.60000e+01	
					         0.34667	2.40000e+01	
					         0.34833	2.20000e+01	
					         0.35000	2.10000e+01	
					         0.35167	1.90000e+01	
					         0.35333	1.70000e+01	
					         0.35500	1.50000e+01	
					         0.35667	1.20000e+01	
					         0.35833	1.00000e+01	
					         0.36000	7.00000e+00	
					         0.36167	5.00000e+00	
					         0.36333	2.00000e+00	
					         0.36500	-1.00000e+00	
					         0.36667	-4.00000e+00	
					         0.36833	-7.00000e+00	
					         0.37000	-1.00000e+01	
					         0.37167	-1.30000e+01	
					         0.37333	-1.70000e+01	
					         0.37500	-2.10000e+01	
					         0.37667	-2.40000e+01	
					         0.37833	-2.80000e+01	
					         0.38000	-3.10000e+01	
					         0.38167	-3.40000e+01	
					         0.38333	-3.70000e+01	
					         0.38500	-3.90000e+01	
					         0.38667	-4.10000e+01	
					         0.38833	-4.30000e+01	
					         0.39000	-4.40000e+01	
					         0.39167	-4.40000e+01	
					         0.39333	-4.50000e+01	
					         0.39500	-4.50000e+01	
					         0.39667	-4.40000e+01	
					         0.39833	-4.40000e+01	
					         0.40000	-4.40000e+01	
					         0.40167	-4.40000e+01	
					         0.40333	-4.40000e+01	
					         0.40500	-4.50000e+01	
					         0.40667	-4.50000e+01	
					         0.40833	-4.60000e+01	
					         0.41000	-4.70000e+01	
					         0.41167	-4.70000e+01	
					         0.41333	-4.80000e+01	
					         0.41500	-4.90000e+01	
					         0.41667	-5.00000e+01	
					         0.41833	-5.00000e+01	
					         0.42000	-5.00000e+01	
					         0.42167	-5.00000e+01	
					         0.42333	-5.00000e+01	
					         0.42500	-5.00000e+01	
					         0.42667	-4.90000e+01	
					         0.42833	-4.80000e+01	
					         0.43000	-4.80000e+01	
					         0.43167	-4.70000e+01	
					         0.43333	-4.60000e+01	
					         0.43500	-4.50000e+01	
					         0.43667	-4.40000e+01	
					         0.43833	-4.30000e+01	
					         0.44000	-4.20000e+01	
					         0.44167	-4.10000e+01	
					         0.44333	-4.00000e+01	
					         0.44500	-3.90000e+01	
					         0.44667	-3.80000e+01	
					         0.44833	-3.70000e+01	
					         0.45000	-3.60000e+01	
					         0.45167	-3.50000e+01	
					         0.45333	-3.40000e+01	
					         0.45500	-3.30000e+01	
					         0.45667	-3.30000e+01	
					         0.45833	-3.30000e+01	
					         0.46000	-3.30000e+01	
					         0.46167	-3.20000e+01	
					         0.46333	-3.20000e+01	
					         0.46500	-3.30000e+01	
					         0.46667	-3.30000e+01	
					         0.46833	-3.30000e+01	
					         0.47000	-3.30000e+01	
					         0.47167	-3.30000e+01	
					         0.47333	-3.30000e+01	
					         0.47500	-3.20000e+01	
					         0.47667	-3.20000e+01	
					         0.47833	-3.10000e+01	
					         0.48000	-3.10000e+01	
					         0.48167	-3.00000e+01	
					         0.48333	-2.90000e+01	
					         0.48500	-2.80000e+01	
					         0.48667	-2.70000e+01	
					         0.48833	-2.60000e+01	
					         0.49000	-2.60000e+01	
					         0.49167	-2.50000e+01	
					         0.49333	-2.50000e+01	
					         0.49500	-2.50000e+01	
					         0.49667	-2.60000e+01	
					         0.49833	-2.60000e+01	
					         0.50000	-2.70000e+01	
					         0.50167	-2.70000e+01	
					         0.50333	-2.70000e+01	
					         0.50500	-2.80000e+01	
					         0.50667	-2.80000e+01	
					         0.50833	-2.90000e+01	
					         0.51000	-2.90000e+01	
					         0.51167	-3.00000e+01	
					         0.51333	-3.00000e+01	
					         0.51500	-3.00000e+01	
					         0.51667	-2.90000e+01	
					         0.51833	-2.90000e+01	
					         0.52000	-2.80000e+01	
					         0.52167	-2.80000e+01	
					         0.52333	-2.70000e+01	
					         0.52500	-2.60000e+01	
					         0.52667	-2.50000e+01	
					         0.52833	-2.50000e+01	
					         0.53000	-2.40000e+01	
					         0.53167	-2.30000e+01	
					         0.53333	-2.20000e+01	
					         0.53500	-2.10000e+01	
					         0.53667	-2.00000e+01	
					         0.53833	-2.00000e+01	
					         0.54000	-2.00000e+01	
					         0.54167	-1.90000e+01	
					         0.54333	-1.90000e+01	
					         0.54500	-1.90000e+01	
					         0.54667	-1.90000e+01	
					         0.54833	-1.80000e+01	
					         0.55000	-1.80000e+01	
					         0.55167	-1.80000e+01	
					         0.55333	-1.80000e+01	
					         0.55500	-1.70000e+01	
					         0.55667	-1.70000e+01	
					         0.55833	-1.70000e+01	
					         0.56000	-1.60000e+01	
					         0.56167	-1.60000e+01	
					         0.56333	-1.60000e+01	
					         0.56500	-1.60000e+01	
					         0.56667	-1.50000e+01	
					         0.56833	-1.50000e+01	
					         0.57000	-1.50000e+01	
					         0.57167	-1.50000e+01	
					         0.57333	-1.40000e+01	
					         0.57500	-1.40000e+01	
					         0.57667	-1.40000e+01	
					         0.57833	-1.40000e+01	
					         0.58000	-1.40000e+01	
					         0.58167	-1.40000e+01	
					         0.58333	-1.40000e+01	
					         0.58500	-1.40000e+01	
					         0.58667	-1.40000e+01	
					         0.58833	-1.50000e+01	
					         0.59000	-1.60000e+01	
					         0.59167	-1.60000e+01	
					         0.59333	-1.70000e+01	
					         0.59500	-1.80000e+01	
					         0.59667	-1.80000e+01	
					         0.59833	-1.80000e+01	
					         0.60000	-1.80000e+01	
					         0.60167	-1.80000e+01	
					         0.60333	-1.80000e+01	
					         0.60500	-1.70000e+01	
					         0.60667	-1.60000e+01	
					         0.60833	-1.50000e+01	
					         0.61000	-1.50000e+01	
					         0.61167	-1.40000e+01	
					         0.61333	-1.30000e+01	
					         0.61500	-1.30000e+01	
					         0.61667	-1.20000e+01	
					         0.61833	-1.20000e+01	
					         0.62000	-1.20000e+01	
					         0.62167	-1.20000e+01	
					         0.62333	-1.20000e+01	
					         0.62500	-1.30000e+01	
					         0.62667	-1.30000e+01	
					         0.62833	-1.30000e+01	
					         0.63000	-1.30000e+01	
					         0.63167	-1.30000e+01	
					         0.63333	-1.30000e+01	
					         0.63500	-1.30000e+01	
					         0.63667	-1.30000e+01	
					         0.63833	-1.30000e+01	
					         0.64000	-1.20000e+01	
					         0.64167	-1.20000e+01	
					         0.64333	-1.20000e+01	
					         0.64500	-1.10000e+01	
					         0.64667	-1.10000e+01	
					         0.64833	-1.00000e+01	
					         0.65000	-1.00000e+01	
					         0.65167	-9.00000e+00	
					         0.65333	-8.00000e+00	
					         0.65500	-8.00000e+00	
					         0.65667	-8.00000e+00	
					         0.65833	-7.00000e+00	
					         0.66000	-7.00000e+00	
					         0.66167	-7.00000e+00	
					         0.66333	-7.00000e+00	
					         0.66500	-6.00000e+00	
					         0.66667	-6.00000e+00	
					         0.66833	-6.00000e+00	
					         0.67000	-6.00000e+00	
					         0.67167	-6.00000e+00	
					         0.67333	-6.00000e+00	
					         0.67500	-6.00000e+00	
					         0.67667	-6.00000e+00	
					         0.67833	-6.00000e+00	
					         0.68000	-6.00000e+00	
					         0.68167	-6.00000e+00	
					         0.68333	-6.00000e+00	
					         0.68500	-7.00000e+00	
					         0.68667	-7.00000e+00	
					         0.68833	-7.00000e+00	
					         0.69000	-8.00000e+00	
					         0.69167	-8.00000e+00	
					         0.69333	-8.00000e+00	
					         0.69500	-8.00000e+00	
					         0.69667	-8.00000e+00	
					         0.69833	-8.00000e+00	
					         0.70000	-8.00000e+00	
					         0.70167	-8.00000e+00	
					         0.70333	-7.00000e+00	
					         0.70500	-7.00000e+00	
					         0.70667	-7.00000e+00	
					         0.70833	-6.00000e+00	
					         0.71000	-6.00000e+00	
					         0.71167	-5.00000e+00	
					         0.71333	-5.00000e+00	
					         0.71500	-4.00000e+00	
					         0.71667	-4.00000e+00	
					         0.71833	-3.00000e+00	
					         0.72000	-3.00000e+00	
					         0.72167	-2.00000e+00	
					         0.72333	-1.00000e+00	
					         0.72500	-1.00000e+00	
					         0.72667	0.00000e+00	
					         0.72833	0.00000e+00	
					         0.73000	1.00000e+00	
					         0.73167	1.00000e+00	
					         0.73333	1.00000e+00	
					         0.73500	1.00000e+00	
					         0.73667	0.00000e+00	
					         0.73833	0.00000e+00	
					         0.74000	0.00000e+00	
					         0.74167	0.00000e+00	
					         0.74333	-1.00000e+00	
					         0.74500	-1.00000e+00	
					         0.74667	-1.00000e+00	
					         0.74833	-1.00000e+00	
					         0.75000	-1.00000e+00	
					         0.75167	-2.00000e+00	
					         0.75333	-2.00000e+00	
					         0.75500	-2.00000e+00	
					         0.75667	-3.00000e+00	
					         0.75833	-3.00000e+00	
					         0.76000	-3.00000e+00	
					         0.76167	-3.00000e+00	
					         0.76333	-2.00000e+00	
					         0.76500	-2.00000e+00	
					         0.76667	-2.00000e+00	
					         0.76833	-2.00000e+00	
					         0.77000	-2.00000e+00	
					         0.77167	-2.00000e+00	
					         0.77333	-1.00000e+00	
					         0.77500	-1.00000e+00	
					         0.77667	-1.00000e+00	
					         0.77833	-1.00000e+00	
					         0.78000	-1.00000e+00	
					         0.78167	-1.00000e+00	
					         0.78333	-1.00000e+00	
					         0.78500	-1.00000e+00	
					         0.78667	-1.00000e+00	
					         0.78833	-2.00000e+00	
					         0.79000	-2.00000e+00	
					         0.79167	-2.00000e+00	
					         0.79333	-2.00000e+00	
					         0.79500	-2.00000e+00	
					         0.79667	-2.00000e+00	
					         0.79833	-2.00000e+00	
					         0.80000	-2.00000e+00	
					         0.80167	-2.00000e+00	
					         0.80333	-2.00000e+00	
					         0.80500	-2.00000e+00	
					         0.80667	-2.00000e+00	
					         0.80833	-2.00000e+00	
					         0.81000	-2.00000e+00	
					         0.81167	-2.00000e+00	
					         0.81333	-2.00000e+00	
					         0.81500	-1.00000e+00	
					         0.81667	-1.00000e+00	
					         0.81833	-1.00000e+00	
					         0.82000	0.00000e+00	
					         0.82167	0.00000e+00	
					         0.82333	1.00000e+00	
					         0.82500	1.00000e+00	
					         0.82667	1.00000e+00	
					         0.82833	1.00000e+00	
					         0.83000	1.00000e+00	
					         0.83167	1.00000e+00	
					         0.83333	0.00000e+00	
					         0.83500	-1.00000e+00	
					         0.83667	-1.00000e+00	
					         0.83833	-2.00000e+00	
					         0.84000	-3.00000e+00	
					         0.84167	-5.00000e+00	
					         0.84333	-5.00000e+00	
					         0.84500	-6.00000e+00	
					         0.84667	-7.00000e+00	
					         0.84833	-7.00000e+00	
					         0.85000	-7.00000e+00	
					         0.85167	-6.00000e+00	
					         0.85333	-5.00000e+00	
					         0.85500	-4.00000e+00	
					         0.85667	-3.00000e+00	
					         0.85833	-2.00000e+00	
					         0.86000	-1.00000e+00	
					         0.86167	0.00000e+00	
					         0.86333	1.00000e+00	
					         0.86500	2.00000e+00	
					         0.86667	3.00000e+00	
					         0.86833	3.00000e+00	
					         0.87000	3.00000e+00	
					         0.87167	3.00000e+00	
					         0.87333	2.00000e+00	
					         0.87500	2.00000e+00	
					         0.87667	1.00000e+00	
					         0.87833	0.00000e+00	
					         0.88000	-1.00000e+00	
					         0.88167	-2.00000e+00	
					         0.88333	-4.00000e+00	
					         0.88500	-5.00000e+00	
					         0.88667	-6.00000e+00	
					         0.88833	-7.00000e+00	
					         0.89000	-7.00000e+00	
					         0.89167	-8.00000e+00	
					         0.89333	-8.00000e+00	
					         0.89500	-8.00000e+00	
					         0.89667	-8.00000e+00	
					         0.89833	-8.00000e+00	
					         0.90000	-8.00000e+00	
					         0.90167	-7.00000e+00	
					         0.90333	-7.00000e+00	
					         0.90500	-6.00000e+00	
					         0.90667	-6.00000e+00	
					         0.90833	-5.00000e+00	
					         0.91000	-5.00000e+00	
					         0.91167	-5.00000e+00	
					         0.91333	-5.00000e+00	
					         0.91500	-5.00000e+00	
					         0.91667	-5.00000e+00	
					         0.91833	-6.00000e+00	
					         0.92000	-6.00000e+00	
					         0.92167	-6.00000e+00	
					         0.92333	-7.00000e+00	
					         0.92500	-7.00000e+00	
					         0.92667	-7.00000e+00	
					         0.92833	-7.00000e+00	
					         0.93000	-7.00000e+00	
					         0.93167	-6.00000e+00	
					         0.93333	-6.00000e+00	
					         0.93500	-5.00000e+00	
					         0.93667	-4.00000e+00	
					         0.93833	-4.00000e+00	
					         0.94000	-3.00000e+00	
					         0.94167	-2.00000e+00	
					         0.94333	-1.00000e+00	
					         0.94500	0.00000e+00	
					         0.94667	1.00000e+00	
					         0.94833	1.00000e+00	
					         0.95000	2.00000e+00	
					         0.95167	2.00000e+00	
					         0.95333	2.00000e+00	
					         0.95500	2.00000e+00	
					         0.95667	2.00000e+00	
					         0.95833	2.00000e+00	
					         0.96000	1.00000e+00	
					         0.96167	1.00000e+00	
					         0.96333	1.00000e+00	
					         0.96500	1.00000e+00	
					         0.96667	1.00000e+00	
					         0.96833	1.00000e+00	
					         0.97000	2.00000e+00	
					         0.97167	2.00000e+00	
					         0.97333	3.00000e+00	
					         0.97500	4.00000e+00	
					         0.97667	5.00000e+00	
					         0.97833	6.00000e+00	
					         0.98000	7.00000e+00	
					         0.98167	9.00000e+00	
					         0.98333	1.00000e+01	
					         0.98500	1.10000e+01	
					         0.98667	1.20000e+01	
					         0.98833	1.40000e+01	
					         0.99000	1.60000e+01	
					         0.99167	1.70000e+01	
					         0.99333	1.90000e+01	
					         0.99500	2.00000e+01	
					         0.99667	2.10000e+01	
					         0.99833	2.20000e+01	
					         1.00000	2.20000e+01	
					         1.00167	2.30000e+01	
					         1.00333	2.20000e+01	
					         1.00500	2.20000e+01	
					         1.00667	2.10000e+01	
					         1.00833	2.00000e+01	
					         1.01000	1.80000e+01	
					         1.01167	1.70000e+01	
					         1.01333	1.60000e+01	
					         1.01500	1.60000e+01	
					         1.01667	1.50000e+01	
					         1.01833	1.50000e+01	
					         1.02000	1.50000e+01	
					         1.02167	1.50000e+01	
					         1.02333	1.50000e+01	
					         1.02500	1.50000e+01	
					         1.02667	1.50000e+01	
					         1.02833	1.50000e+01	
					         1.03000	1.40000e+01	
					         1.03167	1.30000e+01	
					         1.03333	1.20000e+01	
					         1.03500	1.10000e+01	
					         1.03667	9.00000e+00	
					         1.03833	7.00000e+00	
					         1.04000	5.00000e+00	
					         1.04167	3.00000e+00	
					         1.04333	1.00000e+00	
					         1.04500	-1.00000e+00	
					         1.04667	-3.00000e+00	
					         1.04833	-5.00000e+00	
					         1.05000	-7.00000e+00	
					         1.05167	-8.00000e+00	
					         1.05333	-1.00000e+01	
					         1.05500	-1.10000e+01	
					         1.05667	-1.20000e+01	
					         1.05833	-1.30000e+01	
					         1.06000	-1.40000e+01	
					         1.06167	-1.40000e+01	
					         1.06333	-1.50000e+01	
					         1.06500	-1.50000e+01	
					         1.06667	-1.60000e+01	
					         1.06833	-1.50000e+01	
					         1.07000	-1.50000e+01	
					         1.07167	-1.40000e+01	
					         1.07333	-1.40000e+01	
					         1.07500	-1.30000e+01	
					         1.07667	-1.30000e+01	
					         1.07833	-1.20000e+01	
					         1.08000	-1.20000e+01	
					         1.08167	-1.10000e+01	
					         1.08333	-1.10000e+01	
					         1.08500	-1.00000e+01	
					         1.08667	-1.00000e+01	
					         1.08833	-1.00000e+01	
					         1.09000	-1.00000e+01	
					         1.09167	-1.00000e+01	
					         1.09333	-1.00000e+01	
					         1.09500	-1.00000e+01	
					         1.09667	-9.00000e+00	
					         1.09833	-9.00000e+00	
					         1.10000	-8.00000e+00	
					         1.10167	-8.00000e+00	
					         1.10333	-7.00000e+00	
					         1.10500	-7.00000e+00	
					         1.10667	-6.00000e+00	
					         1.10833	-6.00000e+00	
					         1.11000	-5.00000e+00	
					         1.11167	-5.00000e+00	
					         1.11333	-4.00000e+00	
					         1.11500	-4.00000e+00	
					         1.11667	-3.00000e+00	
					         1.11833	-3.00000e+00	
					         1.12000	-2.00000e+00	
					         1.12167	-1.00000e+00	
					         1.12333	-1.00000e+00	
					         1.12500	0.00000e+00	
					         1.12667	0.00000e+00	
					         1.12833	-1.00000e+00	
					         1.13000	-2.00000e+00	
					         1.13167	-3.00000e+00	
					         1.13333	-4.00000e+00	
					         1.13500	-5.00000e+00	
					         1.13667	-6.00000e+00	
					         1.13833	-7.00000e+00	
					         1.14000	-8.00000e+00	
					         1.14167	-8.00000e+00	
					         1.14333	-7.00000e+00	
					         1.14500	-5.00000e+00	
					         1.14667	-2.00000e+00	
					         1.14833	3.00000e+00	
					         1.15000	1.00000e+01	
					         1.15167	1.80000e+01	
					         1.15333	2.90000e+01	
					         1.15500	4.00000e+01	
					         1.15667	5.40000e+01	
					         1.15833	6.80000e+01	
					         1.16000	8.40000e+01	
					         1.16167	1.00000e+02	
					         1.16333	1.17000e+02	
					         1.16500	1.32000e+02	
					         1.16667	1.47000e+02	
					         1.16833	1.60000e+02	
					         1.17000	1.71000e+02	
					         1.17167	1.79000e+02	
					         1.17333	1.84000e+02	
					         1.17500	1.86000e+02	
					         1.17667	1.85000e+02	
					         1.17833	1.82000e+02	
					         1.18000	1.75000e+02	
					         1.18167	1.67000e+02	
					         1.18333	1.57000e+02	
					         1.18500	1.45000e+02	
					         1.18667	1.32000e+02	
					         1.18833	1.19000e+02	
					         1.19000	1.06000e+02	
					         1.19167	9.40000e+01	
					         1.19333	8.20000e+01	
					         1.19500	7.00000e+01	
					         1.19667	6.00000e+01	
					         1.19833	5.10000e+01	
					         1.20000	4.20000e+01	
					         1.20167	3.30000e+01	
					         1.20333	2.50000e+01	
					         1.20500	1.80000e+01	
					         1.20667	1.10000e+01	
					         1.20833	4.00000e+00	
					         1.21000	-2.00000e+00	
					         1.21167	-7.00000e+00	
					         1.21333	-1.30000e+01	
					         1.21500	-1.80000e+01	
					         1.21667	-2.30000e+01	
					         1.21833	-2.70000e+01	
					         1.22000	-3.10000e+01	
					         1.22167	-3.40000e+01	
					         1.22333	-3.60000e+01	
					         1.22500	-3.90000e+01	
					         1.22667	-4.00000e+01	
					         1.22833	-4.10000e+01	
					         1.23000	-4.20000e+01	
					         1.23167	-4.20000e+01	
					         1.23333	-4.20000e+01	
					         1.23500	-4.20000e+01	
					         1.23667	-4.30000e+01	
					         1.23833	-4.30000e+01	
					         1.24000	-4.30000e+01	
					         1.24167	-4.40000e+01	
					         1.24333	-4.40000e+01	
					         1.24500	-4.40000e+01	
					         1.24667	-4.40000e+01	
					         1.24833	-4.50000e+01	
					         1.25000	-4.40000e+01	
					         1.25167	-4.40000e+01	
					         1.25333	-4.40000e+01	
					         1.25500	-4.30000e+01	
					         1.25667	-4.20000e+01	
					         1.25833	-4.10000e+01	
					         1.26000	-4.00000e+01	
					         1.26167	-3.90000e+01	
					         1.26333	-3.80000e+01	
					         1.26500	-3.70000e+01	
					         1.26667	-3.60000e+01	
					         1.26833	-3.50000e+01	
					         1.27000	-3.40000e+01	
					         1.27167	-3.30000e+01	
					         1.27333	-3.20000e+01	
					         1.27500	-3.10000e+01	
					         1.27667	-3.00000e+01	
					         1.27833	-2.90000e+01	
					         1.28000	-2.80000e+01	
					         1.28167	-2.60000e+01	
					         1.28333	-2.50000e+01	
					         1.28500	-2.40000e+01	
					         1.28667	-2.20000e+01	
					         1.28833	-2.10000e+01	
					         1.29000	-2.00000e+01	
					         1.29167	-1.90000e+01	
					         1.29333	-1.80000e+01	
					         1.29500	-1.80000e+01	
					         1.29667	-1.70000e+01	
					         1.29833	-1.70000e+01	
					         1.30000	-1.70000e+01	
					         1.30167	-1.70000e+01	
					         1.30333	-1.60000e+01	
					         1.30500	-1.60000e+01	
					         1.30667	-1.50000e+01	
					         1.30833	-1.50000e+01	
					         1.31000	-1.40000e+01	
					         1.31167	-1.30000e+01	
					         1.31333	-1.30000e+01	
					         1.31500	-1.10000e+01	
					         1.31667	-1.00000e+01	
					         1.31833	-9.00000e+00	
					         1.32000	-8.00000e+00	
					         1.32167	-7.00000e+00	
					         1.32333	-5.00000e+00	
					         1.32500	-4.00000e+00	
					         1.32667	-3.00000e+00	
					         1.32833	-2.00000e+00	
					         1.33000	-2.00000e+00	
					         1.33167	-1.00000e+00	
					         1.33333	-1.00000e+00	
					         1.33500	0.00000e+00	
					         1.33667	0.00000e+00	
					         1.33833	0.00000e+00	
					         1.34000	1.00000e+00	
					         1.34167	1.00000e+00	
					         1.34333	2.00000e+00	
					         1.34500	2.00000e+00	
					         1.34667	2.00000e+00	
					         1.34833	2.00000e+00	
					         1.35000	2.00000e+00	
					         1.35167	2.00000e+00	
					         1.35333	3.00000e+00	
					         1.35500	4.00000e+00	
					         1.35667	4.00000e+00	
					         1.35833	5.00000e+00	
					         1.36000	5.00000e+00	
					         1.36167	6.00000e+00	
					         1.36333	6.00000e+00	
					         1.36500	7.00000e+00	
					         1.36667	8.00000e+00	
					         1.36833	9.00000e+00	
					         1.37000	9.00000e+00	
					         1.37167	1.00000e+01	
					         1.37333	1.00000e+01	
					         1.37500	1.10000e+01	
					         1.37667	1.10000e+01	
					         1.37833	1.10000e+01	
					         1.38000	1.10000e+01	
					         1.38167	1.10000e+01	
					         1.38333	1.10000e+01	
					         1.38500	1.10000e+01	
					         1.38667	1.20000e+01	
					         1.38833	1.20000e+01	
					         1.39000	1.30000e+01	
					         1.39167	1.40000e+01	
					         1.39333	1.50000e+01	
					         1.39500	1.60000e+01	
					         1.39667	1.70000e+01	
					         1.39833	1.90000e+01	
					         1.40000	2.00000e+01	
					         1.40167	2.10000e+01	
					         1.40333	2.30000e+01	
					         1.40500	2.40000e+01	
					         1.40667	2.50000e+01	
					         1.40833	2.60000e+01	
					         1.41000	2.70000e+01	
					         1.41167	2.80000e+01	
					         1.41333	2.90000e+01	
					         1.41500	3.00000e+01	
					         1.41667	3.10000e+01	
					         1.41833	3.20000e+01	
					         1.42000	3.30000e+01	
					         1.42167	3.40000e+01	
					         1.42333	3.50000e+01	
					         1.42500	3.60000e+01	
					         1.42667	3.60000e+01	
					         1.42833	3.70000e+01	
					         1.43000	3.70000e+01	
					         1.43167	3.80000e+01	
					         1.43333	3.90000e+01	
					         1.43500	4.00000e+01	
					         1.43667	4.10000e+01	
					         1.43833	4.20000e+01	
					         1.44000	4.30000e+01	
					         1.44167	4.50000e+01	
					         1.44333	4.70000e+01	
					         1.44500	4.80000e+01	
					         1.44667	5.00000e+01	
					         1.44833	5.10000e+01	
					         1.45000	5.30000e+01	
					         1.45167	5.40000e+01	
					         1.45333	5.50000e+01	
					         1.45500	5.50000e+01	
					         1.45667	5.50000e+01	
					         1.45833	5.50000e+01	
					         1.46000	5.50000e+01	
					         1.46167	5.50000e+01	
					         1.46333	5.50000e+01	
					         1.46500	5.50000e+01	
					         1.46667	5.40000e+01	
					         1.46833	5.40000e+01	
					         1.47000	5.30000e+01	
					         1.47167	5.30000e+01	
					         1.47333	5.30000e+01	
					         1.47500	5.30000e+01	
					         1.47667	5.20000e+01	
					         1.47833	5.20000e+01	
					         1.48000	5.10000e+01	
					         1.48167	5.00000e+01	
					         1.48333	4.90000e+01	
					         1.48500	4.80000e+01	
					         1.48667	4.70000e+01	
					         1.48833	4.50000e+01	
					         1.49000	4.40000e+01	
					         1.49167	4.20000e+01	
					         1.49333	3.90000e+01	
					         1.49500	3.70000e+01	
					         1.49667	3.40000e+01	
					         1.49833	3.10000e+01	
					         1.50000	2.70000e+01	
					         1.50167	2.40000e+01	
					         1.50333	2.00000e+01	
					         1.50500	1.70000e+01	
					         1.50667	1.30000e+01	
					         1.50833	9.00000e+00	
					         1.51000	6.00000e+00	
					         1.51167	3.00000e+00	
					         1.51333	0.00000e+00	
					         1.51500	-3.00000e+00	
					         1.51667	-6.00000e+00	
					         1.51833	-8.00000e+00	
					         1.52000	-1.00000e+01	
					         1.52167	-1.20000e+01	
					         1.52333	-1.30000e+01	
					         1.52500	-1.50000e+01	
					         1.52667	-1.70000e+01	
					         1.52833	-1.80000e+01	
					         1.53000	-2.00000e+01	
					         1.53167	-2.20000e+01	
					         1.53333	-2.50000e+01	
					         1.53500	-2.70000e+01	
					         1.53667	-2.90000e+01	
					         1.53833	-3.20000e+01	
					         1.54000	-3.50000e+01	
					         1.54167	-3.70000e+01	
					         1.54333	-3.90000e+01	
					         1.54500	-4.10000e+01	
					         1.54667	-4.20000e+01	
					         1.54833	-4.30000e+01	
					         1.55000	-4.40000e+01	
					         1.55167	-4.40000e+01	
					         1.55333	-4.30000e+01	
					         1.55500	-4.20000e+01	
					         1.55667	-4.10000e+01	
					         1.55833	-4.00000e+01	
					         1.56000	-3.90000e+01	
					         1.56167	-3.70000e+01	
					         1.56333	-3.60000e+01	
					         1.56500	-3.60000e+01	
					         1.56667	-3.50000e+01	
					         1.56833	-3.60000e+01	
					         1.57000	-3.60000e+01	
					         1.57167	-3.60000e+01	
					         1.57333	-3.70000e+01	
					         1.57500	-3.80000e+01	
					         1.57667	-3.80000e+01	
					         1.57833	-3.90000e+01	
					         1.58000	-3.90000e+01	
					         1.58167	-3.90000e+01	
					         1.58333	-3.90000e+01	
					         1.58500	-3.80000e+01	
					         1.58667	-3.70000e+01	
					         1.58833	-3.60000e+01	
					         1.59000	-3.50000e+01	
					         1.59167	-3.40000e+01	
					         1.59333	-3.30000e+01	
					         1.59500	-3.10000e+01	
					         1.59667	-3.00000e+01	
					         1.59833	-2.90000e+01	
					         1.60000	-2.80000e+01	
					         1.60167	-2.70000e+01	
					         1.60333	-2.60000e+01	
					         1.60500	-2.60000e+01	
					         1.60667	-2.50000e+01	
					         1.60833	-2.40000e+01	
					         1.61000	-2.40000e+01	
					         1.61167	-2.30000e+01	
					         1.61333	-2.20000e+01	
					         1.61500	-2.20000e+01	
					         1.61667	-2.10000e+01	
					         1.61833	-2.10000e+01	
					         1.62000	-2.00000e+01	
					         1.62167	-2.00000e+01	
					         1.62333	-1.90000e+01	
					         1.62500	-1.90000e+01	
					         1.62667	-1.90000e+01	
					         1.62833	-1.80000e+01	
					         1.63000	-1.80000e+01	
					         1.63167	-1.70000e+01	
					         1.63333	-1.70000e+01	
					         1.63500	-1.60000e+01	
					         1.63667	-1.60000e+01	
					         1.63833	-1.60000e+01	
					         1.64000	-1.60000e+01	
					         1.64167	-1.60000e+01	
					         1.64333	-1.60000e+01	
					         1.64500	-1.60000e+01	
					         1.64667	-1.70000e+01	
					         1.64833	-1.70000e+01	
					         1.65000	-1.70000e+01	
					         1.65167	-1.70000e+01	
					         1.65333	-1.60000e+01	
					         1.65500	-1.50000e+01	
					         1.65667	-1.40000e+01	
					         1.65833	-1.30000e+01	
					         1.66000	-1.20000e+01	
					         1.66167	-1.00000e+01	
					         1.66333	-9.00000e+00	
					         1.66500	-8.00000e+00	
					         1.66667	-6.00000e+00	
					         1.66833	-5.00000e+00	
					         1.67000	-4.00000e+00	
					         1.67167	-3.00000e+00	
					         1.67333	-2.00000e+00	
					         1.67500	-1.00000e+00	
					         1.67667	0.00000e+00	
					         1.67833	1.00000e+00	
					         1.68000	2.00000e+00	
					         1.68167	2.00000e+00	
					         1.68333	3.00000e+00	
					         1.68500	3.00000e+00	
					         1.68667	3.00000e+00	
					         1.68833	3.00000e+00	
					         1.69000	3.00000e+00	
					         1.69167	3.00000e+00	
					         1.69333	3.00000e+00	
					         1.69500	3.00000e+00	
					         1.69667	3.00000e+00	
					         1.69833	2.00000e+00	
					         1.70000	2.00000e+00	
					         1.70167	2.00000e+00	
					         1.70333	2.00000e+00	
					         1.70500	2.00000e+00	
					         1.70667	2.00000e+00	
					         1.70833	2.00000e+00	
					         1.71000	2.00000e+00	
					         1.71167	2.00000e+00	
					         1.71333	2.00000e+00	
					         1.71500	2.00000e+00	
					         1.71667	2.00000e+00	
					         1.71833	2.00000e+00	
					         1.72000	2.00000e+00	
					         1.72167	2.00000e+00	
					         1.72333	1.00000e+00	
					         1.72500	1.00000e+00	
					         1.72667	1.00000e+00	
					         1.72833	0.00000e+00	
					         1.73000	0.00000e+00	
					         1.73167	0.00000e+00	
					         1.73333	0.00000e+00	
					         1.73500	0.00000e+00	
					         1.73667	0.00000e+00	
					         1.73833	0.00000e+00	
					         1.74000	1.00000e+00	
					         1.74167	1.00000e+00	
					         1.74333	2.00000e+00	
					         1.74500	2.00000e+00	
					         1.74667	2.00000e+00	
					         1.74833	2.00000e+00	
					         1.75000	2.00000e+00	
					         1.75167	2.00000e+00	
					         1.75333	1.00000e+00	
					         1.75500	1.00000e+00	
					         1.75667	1.00000e+00	
					         1.75833	0.00000e+00	
					         1.76000	0.00000e+00	
					         1.76167	-1.00000e+00	
					         1.76333	-1.00000e+00	
					         1.76500	0.00000e+00	
					         1.76667	0.00000e+00	
					         1.76833	1.00000e+00	
					         1.77000	1.00000e+00	
					         1.77167	2.00000e+00	
					         1.77333	3.00000e+00	
					         1.77500	3.00000e+00	
					         1.77667	3.00000e+00	
					         1.77833	3.00000e+00	
					         1.78000	3.00000e+00	
					         1.78167	3.00000e+00	
					         1.78333	2.00000e+00	
					         1.78500	1.00000e+00	
					         1.78667	1.00000e+00	
					         1.78833	0.00000e+00	
					         1.79000	-1.00000e+00	
					         1.79167	-2.00000e+00	
					         1.79333	-3.00000e+00	
					         1.79500	-3.00000e+00	
					         1.79667	-3.00000e+00	
					         1.79833	-4.00000e+00	
					         1.80000	-3.00000e+00	
					         1.80167	-3.00000e+00	
					         1.80333	-3.00000e+00	
					         1.80500	-3.00000e+00	
					         1.80667	-3.00000e+00	
					         1.80833	-3.00000e+00	
					         1.81000	-3.00000e+00	
					         1.81167	-3.00000e+00	
					         1.81333	-3.00000e+00	
					         1.81500	-3.00000e+00	
					         1.81667	-3.00000e+00	
					         1.81833	-3.00000e+00	
					         1.82000	-3.00000e+00	
					         1.82167	-3.00000e+00	
					         1.82333	-3.00000e+00	
					         1.82500	-2.00000e+00	
					         1.82667	-2.00000e+00	
					         1.82833	-1.00000e+00	
					         1.83000	0.00000e+00	
					         1.83167	0.00000e+00	
					         1.83333	1.00000e+00	
					         1.83500	2.00000e+00	
					         1.83667	2.00000e+00	
					         1.83833	3.00000e+00	
					         1.84000	4.00000e+00	
					         1.84167	4.00000e+00	
					         1.84333	5.00000e+00	
					         1.84500	5.00000e+00	
					         1.84667	6.00000e+00	
					         1.84833	6.00000e+00	
					         1.85000	7.00000e+00	
					         1.85167	7.00000e+00	
					         1.85333	7.00000e+00	
					         1.85500	7.00000e+00	
					         1.85667	6.00000e+00	
					         1.85833	6.00000e+00	
					         1.86000	5.00000e+00	
					         1.86167	5.00000e+00	
					         1.86333	4.00000e+00	
					         1.86500	4.00000e+00	
					         1.86667	4.00000e+00	
					         1.86833	3.00000e+00	
					         1.87000	3.00000e+00	
					         1.87167	3.00000e+00	
					         1.87333	4.00000e+00	
					         1.87500	4.00000e+00	
					         1.87667	5.00000e+00	
					         1.87833	6.00000e+00	
					         1.88000	8.00000e+00	
					         1.88167	9.00000e+00	
					         1.88333	9.00000e+00	
					         1.88500	1.00000e+01	
					         1.88667	1.00000e+01	
					         1.88833	1.00000e+01	
					         1.89000	1.00000e+01	
					         1.89167	1.00000e+01	
					         1.89333	1.00000e+01	
					         1.89500	9.00000e+00	
					         1.89667	9.00000e+00	
					         1.89833	8.00000e+00	
					         1.90000	8.00000e+00	
					         1.90167	7.00000e+00	
					         1.90333	6.00000e+00	
					         1.90500	6.00000e+00	
					         1.90667	6.00000e+00	
					         1.90833	6.00000e+00	
					         1.91000	6.00000e+00	
					         1.91167	5.00000e+00	
					         1.91333	5.00000e+00	
					         1.91500	5.00000e+00	
					         1.91667	4.00000e+00	
					         1.91833	4.00000e+00	
					         1.92000	3.00000e+00	
					         1.92167	2.00000e+00	
					         1.92333	2.00000e+00	
					         1.92500	1.00000e+00	
					         1.92667	1.00000e+00	
					         1.92833	0.00000e+00	
					         1.93000	0.00000e+00	
					         1.93167	0.00000e+00	
					         1.93333	0.00000e+00	
					         1.93500	0.00000e+00	
					         1.93667	1.00000e+00	
					         1.93833	1.00000e+00	
					         1.94000	1.00000e+00	
					         1.94167	2.00000e+00	
					         1.94333	2.00000e+00	
					         1.94500	2.00000e+00	
					         1.94667	2.00000e+00	
					         1.94833	2.00000e+00	
					         1.95000	2.00000e+00	
					         1.95167	2.00000e+00	
					         1.95333	2.00000e+00	
					         1.95500	2.00000e+00	
					         1.95667	2.00000e+00	
					         1.95833	1.00000e+00	
					         1.96000	1.00000e+00	
					         1.96167	1.00000e+00	
					         1.96333	1.00000e+00	
					         1.96500	1.00000e+00	
					         1.96667	0.00000e+00	
					         1.96833	0.00000e+00	
					         1.97000	0.00000e+00	
					         1.97167	0.00000e+00	
					         1.97333	0.00000e+00	
					         1.97500	0.00000e+00	
					         1.97667	0.00000e+00	
					         1.97833	0.00000e+00	
					         1.98000	1.00000e+00	
					         1.98167	2.00000e+00	
					         1.98333	2.00000e+00	
					         1.98500	3.00000e+00	
					         1.98667	4.00000e+00	
					         1.98833	5.00000e+00	
					         1.99000	6.00000e+00	
					         1.99167	7.00000e+00	
					         1.99333	7.00000e+00	
					         1.99500	8.00000e+00	
					         1.99667	8.00000e+00	
					         1.99833	9.00000e+00	
					         2.00000	9.00000e+00	
					         2.00167	9.00000e+00	
					         2.00333	9.00000e+00	
					         2.00500	9.00000e+00	
					         2.00667	8.00000e+00	
					         2.00833	8.00000e+00	
					         2.01000	8.00000e+00	
					         2.01167	7.00000e+00	
					         2.01333	7.00000e+00	
					         2.01500	7.00000e+00	
					         2.01667	7.00000e+00	
					         2.01833	7.00000e+00	
					         2.02000	7.00000e+00	
					         2.02167	8.00000e+00	
					         2.02333	8.00000e+00	
					         2.02500	8.00000e+00	
					         2.02667	9.00000e+00	
					         2.02833	9.00000e+00	
					         2.03000	9.00000e+00	
					         2.03167	1.00000e+01	
					         2.03333	1.00000e+01	
					         2.03500	1.00000e+01	
					         2.03667	1.00000e+01	
					         2.03833	1.00000e+01	
					         2.04000	1.10000e+01	
					         2.04167	1.10000e+01	
					         2.04333	1.20000e+01	
					         2.04500	1.20000e+01	
					         2.04667	1.20000e+01	
					         2.04833	1.20000e+01	
					         2.05000	1.10000e+01	
					         2.05167	1.10000e+01	
					         2.05333	1.10000e+01	
					         2.05500	1.10000e+01	
					         2.05667	1.00000e+01	
					         2.05833	1.00000e+01	
					         2.06000	1.00000e+01	
					         2.06167	1.00000e+01	
					         2.06333	1.00000e+01	
					         2.06500	1.00000e+01	
					         2.06667	1.00000e+01	
					         2.06833	1.00000e+01	
					         2.07000	1.00000e+01	
					         2.07167	1.00000e+01	
					         2.07333	9.00000e+00	
					         2.07500	9.00000e+00	
					         2.07667	8.00000e+00	
					         2.07833	8.00000e+00	
					         2.08000	7.00000e+00	
					         2.08167	6.00000e+00	
					         2.08333	5.00000e+00	
					         2.08500	5.00000e+00	
					         2.08667	4.00000e+00	
					         2.08833	4.00000e+00	
					         2.09000	4.00000e+00	
					         2.09167	5.00000e+00	
					         2.09333	5.00000e+00	
					         2.09500	5.00000e+00	
					         2.09667	5.00000e+00	
					         2.09833	4.00000e+00	
					         2.10000	4.00000e+00	
					         2.10167	4.00000e+00	
					         2.10333	4.00000e+00	
					         2.10500	4.00000e+00	
					         2.10667	4.00000e+00	
					         2.10833	4.00000e+00	
					         2.11000	5.00000e+00	
					         2.11167	5.00000e+00	
					         2.11333	5.00000e+00	
					         2.11500	5.00000e+00	
					         2.11667	5.00000e+00	
					         2.11833	5.00000e+00	
					         2.12000	5.00000e+00	
					         2.12167	5.00000e+00	
					         2.12333	5.00000e+00	
					         2.12500	6.00000e+00	
					         2.12667	6.00000e+00	
					         2.12833	6.00000e+00	
					         2.13000	6.00000e+00	
					         2.13167	7.00000e+00	
					         2.13333	7.00000e+00	
					         2.13500	8.00000e+00	
					         2.13667	9.00000e+00	
					         2.13833	9.00000e+00	
					         2.14000	1.00000e+01	
					         2.14167	1.10000e+01	
					         2.14333	1.20000e+01	
					         2.14500	1.20000e+01	
					         2.14667	1.30000e+01	
					         2.14833	1.40000e+01	
					         2.15000	1.40000e+01	
					         2.15167	1.50000e+01	
					         2.15333	1.60000e+01	
					         2.15500	1.80000e+01	
					         2.15667	1.90000e+01	
					         2.15833	2.10000e+01	
					         2.16000	2.20000e+01	
					         2.16167	2.30000e+01	
					         2.16333	2.40000e+01	
					         2.16500	2.50000e+01	
					         2.16667	2.50000e+01	
					         2.16833	2.50000e+01	
					         2.17000	2.50000e+01	
					         2.17167	2.40000e+01	
					         2.17333	2.30000e+01	
					         2.17500	2.10000e+01	
					         2.17667	2.00000e+01	
					         2.17833	1.80000e+01	
					         2.18000	1.70000e+01	
					         2.18167	1.60000e+01	
					         2.18333	1.50000e+01	
					         2.18500	1.50000e+01	
					         2.18667	1.50000e+01	
					         2.18833	1.50000e+01	
					         2.19000	1.50000e+01	
					         2.19167	1.50000e+01	
					         2.19333	1.50000e+01	
					         2.19500	1.50000e+01	
					         2.19667	1.50000e+01	
					         2.19833	1.40000e+01	
					         2.20000	1.30000e+01	
					         2.20167	1.10000e+01	
					         2.20333	9.00000e+00	
					         2.20500	7.00000e+00	
					         2.20667	4.00000e+00	
					         2.20833	1.00000e+00	
					         2.21000	-2.00000e+00	
					         2.21167	-5.00000e+00	
					         2.21333	-8.00000e+00	
					         2.21500	-1.00000e+01	
					         2.21667	-1.20000e+01	
					         2.21833	-1.40000e+01	
					         2.22000	-1.60000e+01	
					         2.22167	-1.70000e+01	
					         2.22333	-1.80000e+01	
					         2.22500	-1.80000e+01	
					         2.22667	-1.80000e+01	
					         2.22833	-1.80000e+01	
					         2.23000	-1.80000e+01	
					         2.23167	-1.80000e+01	
					         2.23333	-1.80000e+01	
					         2.23500	-1.70000e+01	
					         2.23667	-1.70000e+01	
					         2.23833	-1.70000e+01	
					         2.24000	-1.70000e+01	
					         2.24167	-1.60000e+01	
					         2.24333	-1.60000e+01	
					         2.24500	-1.70000e+01	
					         2.24667	-1.70000e+01	
					         2.24833	-1.70000e+01	
					         2.25000	-1.70000e+01	
					         2.25167	-1.70000e+01	
					         2.25333	-1.80000e+01	
					         2.25500	-1.70000e+01	
					         2.25667	-1.70000e+01	
					         2.25833	-1.70000e+01	
					         2.26000	-1.60000e+01	
					         2.26167	-1.60000e+01	
					         2.26333	-1.50000e+01	
					         2.26500	-1.40000e+01	
					         2.26667	-1.30000e+01	
					         2.26833	-1.20000e+01	
					         2.27000	-1.10000e+01	
					         2.27167	-1.00000e+01	
					         2.27333	-9.00000e+00	
					         2.27500	-8.00000e+00	
					         2.27667	-7.00000e+00	
					         2.27833	-7.00000e+00	
					         2.28000	-6.00000e+00	
					         2.28167	-6.00000e+00	
					         2.28333	-6.00000e+00	
					         2.28500	-6.00000e+00	
					         2.28667	-7.00000e+00	
					         2.28833	-7.00000e+00	
					         2.29000	-7.00000e+00	
					         2.29167	-8.00000e+00	
					         2.29333	-8.00000e+00	
					         2.29500	-9.00000e+00	
					         2.29667	-9.00000e+00	
					         2.29833	-1.00000e+01	
					         2.30000	-1.10000e+01	
					         2.30167	-1.20000e+01	
					         2.30333	-1.30000e+01	
					         2.30500	-1.30000e+01	
					         2.30667	-1.30000e+01	
					         2.30833	-1.30000e+01	
					         2.31000	-1.20000e+01	
					         2.31167	-1.10000e+01	
					         2.31333	-8.00000e+00	
					         2.31500	-5.00000e+00	
					         2.31667	0.00000e+00	
					         2.31833	7.00000e+00	
					         2.32000	1.60000e+01	
					         2.32167	2.60000e+01	
					         2.32333	3.80000e+01	
					         2.32500	5.20000e+01	
					         2.32667	6.70000e+01	
					         2.32833	8.30000e+01	
					         2.33000	1.00000e+02	
					         2.33167	1.17000e+02	
					         2.33333	1.33000e+02	
					         2.33500	1.48000e+02	
					         2.33667	1.61000e+02	
					         2.33833	1.71000e+02	
					         2.34000	1.79000e+02	
					         2.34167	1.84000e+02	
					         2.34333	1.86000e+02	
					         2.34500	1.84000e+02	
					         2.34667	1.80000e+02	
					         2.34833	1.73000e+02	
					         2.35000	1.64000e+02	
					         2.35167	1.53000e+02	
					         2.35333	1.41000e+02	
					         2.35500	1.29000e+02	
					         2.35667	1.16000e+02	
					         2.35833	1.03000e+02	
					         2.36000	9.10000e+01	
					         2.36167	7.90000e+01	
					         2.36333	6.80000e+01	
					         2.36500	5.80000e+01	
					         2.36667	4.90000e+01	
					         2.36833	4.00000e+01	
					         2.37000	3.10000e+01	
					         2.37167	2.30000e+01	
					         2.37333	1.50000e+01	
					         2.37500	7.00000e+00	
					         2.37667	1.00000e+00	
					         2.37833	-6.00000e+00	
					         2.38000	-1.20000e+01	
					         2.38167	-1.70000e+01	
					         2.38333	-2.20000e+01	
					         2.38500	-2.60000e+01	
					         2.38667	-3.00000e+01	
					         2.38833	-3.40000e+01	
					         2.39000	-3.70000e+01	
					         2.39167	-3.90000e+01	
					         2.39333	-4.10000e+01	
					         2.39500	-4.20000e+01	
					         2.39667	-4.30000e+01	
					         2.39833	-4.40000e+01	
					         2.40000	-4.40000e+01	
					         2.40167	-4.40000e+01	
					         2.40333	-4.40000e+01	
					         2.40500	-4.40000e+01	
					         2.40667	-4.40000e+01	
					         2.40833	-4.40000e+01	
					         2.41000	-4.30000e+01	
					         2.41167	-4.30000e+01	
					         2.41333	-4.30000e+01	
					         2.41500	-4.20000e+01	
					         2.41667	-4.20000e+01	
					         2.41833	-4.10000e+01	
					         2.42000	-4.00000e+01	
					         2.42167	-4.00000e+01	
					         2.42333	-3.90000e+01	
					         2.42500	-3.90000e+01	
					         2.42667	-3.80000e+01	
					         2.42833	-3.70000e+01	
					         2.43000	-3.60000e+01	
					         2.43167	-3.60000e+01	
					         2.43333	-3.40000e+01	
					         2.43500	-3.30000e+01	
					         2.43667	-3.20000e+01	
					         2.43833	-3.10000e+01	
					         2.44000	-2.90000e+01	
					         2.44167	-2.70000e+01	
					         2.44333	-2.60000e+01	
					         2.44500	-2.40000e+01	
					         2.44667	-2.30000e+01	
					         2.44833	-2.20000e+01	
					         2.45000	-2.10000e+01	
					         2.45167	-2.00000e+01	
					         2.45333	-2.00000e+01	
					         2.45500	-2.00000e+01	
					         2.45667	-2.00000e+01	
					         2.45833	-2.00000e+01	
					         2.46000	-2.00000e+01	
					         2.46167	-2.00000e+01	
					         2.46333	-2.00000e+01	
					         2.46500	-1.90000e+01	
					         2.46667	-1.90000e+01	
					         2.46833	-1.80000e+01	
					         2.47000	-1.70000e+01	
					         2.47167	-1.60000e+01	
					         2.47333	-1.40000e+01	
					         2.47500	-1.30000e+01	
					         2.47667	-1.20000e+01	
					         2.47833	-1.10000e+01	
					         2.48000	-1.00000e+01	
					         2.48167	-9.00000e+00	
					         2.48333	-8.00000e+00	
					         2.48500	-7.00000e+00	
					         2.48667	-6.00000e+00	
					         2.48833	-5.00000e+00	
					         2.49000	-5.00000e+00	
					         2.49167	-4.00000e+00	
					         2.49333	-4.00000e+00	
					         2.49500	-3.00000e+00	
					         2.49667	-3.00000e+00	
					         2.49833	-2.00000e+00	
					         2.50000	-1.00000e+00	
					         2.50167	0.00000e+00	
					         2.50333	0.00000e+00	
					         2.50500	1.00000e+00	
					         2.50667	2.00000e+00	
					         2.50833	3.00000e+00	
					         2.51000	3.00000e+00	
					         2.51167	4.00000e+00	
					         2.51333	5.00000e+00	
					         2.51500	6.00000e+00	
					         2.51667	7.00000e+00	
					         2.51833	7.00000e+00	
					         2.52000	8.00000e+00	
					         2.52167	9.00000e+00	
					         2.52333	9.00000e+00	
					         2.52500	1.00000e+01	
					         2.52667	1.00000e+01	
					         2.52833	1.10000e+01	
					         2.53000	1.10000e+01	
					         2.53167	1.20000e+01	
					         2.53333	1.20000e+01	
					         2.53500	1.20000e+01	
					         2.53667	1.30000e+01	
					         2.53833	1.30000e+01	
					         2.54000	1.30000e+01	
					         2.54167	1.30000e+01	
					         2.54333	1.40000e+01	
					         2.54500	1.40000e+01	
					         2.54667	1.50000e+01	
					         2.54833	1.50000e+01	
					         2.55000	1.60000e+01	
					         2.55167	1.70000e+01	
					         2.55333	1.80000e+01	
					         2.55500	1.80000e+01	
					         2.55667	1.90000e+01	
					         2.55833	1.90000e+01	
					         2.56000	1.90000e+01	
					         2.56167	1.90000e+01	
					         2.56333	1.90000e+01	
					         2.56500	1.90000e+01	
					         2.56667	1.80000e+01	
					         2.56833	1.80000e+01	
					         2.57000	1.80000e+01	
					         2.57167	1.80000e+01	
					         2.57333	1.80000e+01	
					         2.57500	1.80000e+01	
					         2.57667	1.90000e+01	
					         2.57833	2.00000e+01	
					         2.58000	2.10000e+01	
					         2.58167	2.20000e+01	
					         2.58333	2.30000e+01	
					         2.58500	2.40000e+01	
					         2.58667	2.60000e+01	
					         2.58833	2.70000e+01	
					         2.59000	2.80000e+01	
					         2.59167	2.90000e+01	
					         2.59333	3.00000e+01	
					         2.59500	3.10000e+01	
					         2.59667	3.20000e+01	
					         2.59833	3.20000e+01	
					         2.60000	3.30000e+01	
					         2.60167	3.40000e+01	
					         2.60333	3.50000e+01	
					         2.60500	3.60000e+01	
					         2.60667	3.70000e+01	
					         2.60833	3.70000e+01	
					         2.61000	3.80000e+01	
					         2.61167	3.90000e+01	
					         2.61333	4.00000e+01	
					         2.61500	4.10000e+01	
					         2.61667	4.10000e+01	
					         2.61833	4.20000e+01	
					         2.62000	4.30000e+01	
					         2.62167	4.40000e+01	
					         2.62333	4.40000e+01	
					         2.62500	4.50000e+01	
					         2.62667	4.60000e+01	
					         2.62833	4.70000e+01	
					         2.63000	4.70000e+01	
					         2.63167	4.80000e+01	
					         2.63333	4.90000e+01	
					         2.63500	4.90000e+01	
					         2.63667	5.00000e+01	
					         2.63833	5.00000e+01	
					         2.64000	5.00000e+01	
					         2.64167	5.00000e+01	
					         2.64333	5.00000e+01	
					         2.64500	5.00000e+01	
					         2.64667	5.00000e+01	
					         2.64833	5.00000e+01	
					         2.65000	4.90000e+01	
					         2.65167	4.90000e+01	
					         2.65333	4.80000e+01	
					         2.65500	4.80000e+01	
					         2.65667	4.70000e+01	
					         2.65833	4.50000e+01	
					         2.66000	4.40000e+01	
					         2.66167	4.10000e+01	
					         2.66333	3.90000e+01	
					         2.66500	3.60000e+01	
					         2.66667	3.20000e+01	
					         2.66833	2.90000e+01	
					         2.67000	2.50000e+01	
					         2.67167	2.00000e+01	
					         2.67333	1.60000e+01	
					         2.67500	1.20000e+01	
					         2.67667	8.00000e+00	
					         2.67833	4.00000e+00	
					         2.68000	1.00000e+00	
					         2.68167	-3.00000e+00	
					         2.68333	-6.00000e+00	
					         2.68500	-9.00000e+00	
					         2.68667	-1.20000e+01	
					         2.68833	-1.50000e+01	
					         2.69000	-1.80000e+01	
					         2.69167	-2.10000e+01	
					         2.69333	-2.40000e+01	
					         2.69500	-2.70000e+01	
					         2.69667	-3.00000e+01	
					         2.69833	-3.20000e+01	
					         2.70000	-3.50000e+01	
					         2.70167	-3.70000e+01	
					         2.70333	-3.90000e+01	
					         2.70500	-4.10000e+01	
					         2.70667	-4.20000e+01	
					         2.70833	-4.40000e+01	
					         2.71000	-4.40000e+01	
					         2.71167	-4.50000e+01	
					         2.71333	-4.50000e+01	
					         2.71500	-4.50000e+01	
					         2.71667	-4.50000e+01	
					         2.71833	-4.50000e+01	
					         2.72000	-4.40000e+01	
					         2.72167	-4.30000e+01	
					         2.72333	-4.30000e+01	
					         2.72500	-4.20000e+01	
					         2.72667	-4.10000e+01	
					         2.72833	-4.10000e+01	
					         2.73000	-4.00000e+01	
					         2.73167	-3.90000e+01	
					         2.73333	-3.80000e+01	
					         2.73500	-3.80000e+01	
					         2.73667	-3.70000e+01	
					         2.73833	-3.70000e+01	
					         2.74000	-3.60000e+01	
					         2.74167	-3.60000e+01	
					         2.74333	-3.60000e+01	
					         2.74500	-3.60000e+01	
					         2.74667	-3.50000e+01	
					         2.74833	-3.50000e+01	
					         2.75000	-3.40000e+01	
					         2.75167	-3.40000e+01	
					         2.75333	-3.30000e+01	
					         2.75500	-3.30000e+01	
					         2.75667	-3.20000e+01	
					         2.75833	-3.10000e+01	
					         2.76000	-3.10000e+01	
					         2.76167	-3.00000e+01	
					         2.76333	-2.90000e+01	
					         2.76500	-2.80000e+01	
					         2.76667	-2.70000e+01	
					         2.76833	-2.70000e+01	
					         2.77000	-2.60000e+01	
					         2.77167	-2.50000e+01	
					         2.77333	-2.50000e+01	
					         2.77500	-2.40000e+01	
					         2.77667	-2.40000e+01	
					         2.77833	-2.30000e+01	
					         2.78000	-2.20000e+01	
					         2.78167	-2.20000e+01	
					         2.78333	-2.10000e+01	
					         2.78500	-2.10000e+01	
					         2.78667	-2.00000e+01	
					         2.78833	-1.90000e+01	
					         2.79000	-1.80000e+01	
					         2.79167	-1.70000e+01	
					         2.79333	-1.70000e+01	
					         2.79500	-1.60000e+01	
					         2.79667	-1.50000e+01	
					         2.79833	-1.50000e+01	
					         2.80000	-1.40000e+01	
					         2.80167	-1.30000e+01	
					         2.80333	-1.30000e+01	
					         2.80500	-1.20000e+01	
					         2.80667	-1.10000e+01	
					         2.80833	-1.10000e+01	
					         2.81000	-1.00000e+01	
					         2.81167	-1.00000e+01	
					         2.81333	-1.00000e+01	
					         2.81500	-9.00000e+00	
					         2.81667	-9.00000e+00	
					         2.81833	-8.00000e+00	
					         2.82000	-8.00000e+00	
					         2.82167	-8.00000e+00	
					         2.82333	-8.00000e+00	
					         2.82500	-8.00000e+00	
					         2.82667	-8.00000e+00	
					         2.82833	-8.00000e+00	
					         2.83000	-8.00000e+00	
					         2.83167	-7.00000e+00	
					         2.83333	-7.00000e+00	
					         2.83500	-6.00000e+00	
					         2.83667	-5.00000e+00	
					         2.83833	-4.00000e+00	
					         2.84000	-4.00000e+00	
					         2.84167	-3.00000e+00	
					         2.84333	-3.00000e+00	
					         2.84500	-3.00000e+00	
					         2.84667	-3.00000e+00	
					         2.84833	-4.00000e+00	
					         2.85000	-4.00000e+00	
					         2.85167	-5.00000e+00	
					         2.85333	-6.00000e+00	
					         2.85500	-6.00000e+00	
					         2.85667	-7.00000e+00	
					         2.85833	-7.00000e+00	
					         2.86000	-8.00000e+00	
					         2.86167	-7.00000e+00	
					         2.86333	-7.00000e+00	
					         2.86500	-6.00000e+00	
					         2.86667	-5.00000e+00	
					         2.86833	-4.00000e+00	
					         2.87000	-3.00000e+00	
					         2.87167	-2.00000e+00	
					         2.87333	-1.00000e+00	
					         2.87500	-1.00000e+00	
					         2.87667	-1.00000e+00	
					         2.87833	-1.00000e+00	
					         2.88000	-1.00000e+00	
					         2.88167	-1.00000e+00	
					         2.88333	-2.00000e+00	
					         2.88500	-2.00000e+00	
					         2.88667	-3.00000e+00	
					         2.88833	-3.00000e+00	
					         2.89000	-4.00000e+00	
					         2.89167	-4.00000e+00	
					         2.89333	-4.00000e+00	
					         2.89500	-4.00000e+00	
					         2.89667	-3.00000e+00	
					         2.89833	-3.00000e+00	
					         2.90000	-2.00000e+00	
					         2.90167	-1.00000e+00	
					         2.90333	-1.00000e+00	
					         2.90500	0.00000e+00	
					         2.90667	0.00000e+00	
					         2.90833	1.00000e+00	
					         2.91000	0.00000e+00	
					         2.91167	0.00000e+00	
					         2.91333	0.00000e+00	
					         2.91500	-1.00000e+00	
					         2.91667	-1.00000e+00	
					         2.91833	-2.00000e+00	
					         2.92000	-2.00000e+00	
					         2.92167	-3.00000e+00	
					         2.92333	-3.00000e+00	
					         2.92500	-4.00000e+00	
					         2.92667	-4.00000e+00	
					         2.92833	-4.00000e+00	
					         2.93000	-4.00000e+00	
					         2.93167	-4.00000e+00	
					         2.93333	-4.00000e+00	
					         2.93500	-3.00000e+00	
					         2.93667	-3.00000e+00	
					         2.93833	-4.00000e+00	
					         2.94000	-4.00000e+00	
					         2.94167	-4.00000e+00	
					         2.94333	-4.00000e+00	
					         2.94500	-5.00000e+00	
					         2.94667	-5.00000e+00	
					         2.94833	-5.00000e+00	
					         2.95000	-5.00000e+00	
					         2.95167	-5.00000e+00	
					         2.95333	-5.00000e+00	
					         2.95500	-5.00000e+00	
					         2.95667	-6.00000e+00	
					         2.95833	-6.00000e+00	
					         2.96000	-5.00000e+00	
					         2.96167	-5.00000e+00	
					         2.96333	-5.00000e+00	
					         2.96500	-5.00000e+00	
					         2.96667	-5.00000e+00	
					         2.96833	-5.00000e+00	
					         2.97000	-5.00000e+00	
					         2.97167	-5.00000e+00	
					         2.97333	-5.00000e+00	
					         2.97500	-5.00000e+00	
					         2.97667	-4.00000e+00	
					         2.97833	-4.00000e+00	
					         2.98000	-4.00000e+00	
					         2.98167	-4.00000e+00	
					         2.98333	-4.00000e+00	
					         2.98500	-4.00000e+00	
					         2.98667	-4.00000e+00	
					         2.98833	-4.00000e+00	
					         2.99000	-4.00000e+00	
					         2.99167	-5.00000e+00	
					         2.99333	-5.00000e+00	
					         2.99500	-5.00000e+00	
					         2.99667	-6.00000e+00	
					         2.99833	-6.00000e+00	
					         3.00000	-6.00000e+00	
					         3.00167	-7.00000e+00	
					         3.00333	-6.00000e+00	
					         3.00500	-6.00000e+00	
					         3.00667	-6.00000e+00	
					         3.00833	-6.00000e+00	
					         3.01000	-5.00000e+00	
					         3.01167	-5.00000e+00	
					         3.01333	-4.00000e+00	
					         3.01500	-4.00000e+00	
					         3.01667	-4.00000e+00	
					         3.01833	-4.00000e+00	
					         3.02000	-5.00000e+00	
					         3.02167	-6.00000e+00	
					         3.02333	-6.00000e+00	
					         3.02500	-7.00000e+00	
					         3.02667	-8.00000e+00	
					         3.02833	-9.00000e+00	
					         3.03000	-9.00000e+00	
					         3.03167	-9.00000e+00	
					         3.03333	-1.00000e+01	
					         3.03500	-1.00000e+01	
					         3.03667	-9.00000e+00	
					         3.03833	-9.00000e+00	
					         3.04000	-8.00000e+00	
					         3.04167	-7.00000e+00	
					         3.04333	-7.00000e+00	
					         3.04500	-6.00000e+00	
					         3.04667	-6.00000e+00	
					         3.04833	-6.00000e+00	
					         3.05000	-6.00000e+00	
					         3.05167	-6.00000e+00	
					         3.05333	-6.00000e+00	
					         3.05500	-6.00000e+00	
					         3.05667	-7.00000e+00	
					         3.05833	-7.00000e+00	
					         3.06000	-8.00000e+00	
					         3.06167	-8.00000e+00	
					         3.06333	-8.00000e+00	
					         3.06500	-8.00000e+00	
					         3.06667	-8.00000e+00	
					         3.06833	-8.00000e+00	
					         3.07000	-7.00000e+00	
					         3.07167	-7.00000e+00	
					         3.07333	-7.00000e+00	
					         3.07500	-6.00000e+00	
					         3.07667	-6.00000e+00	
					         3.07833	-6.00000e+00	
					         3.08000	-6.00000e+00	
					         3.08167	-6.00000e+00	
					         3.08333	-6.00000e+00	
					         3.08500	-6.00000e+00	
					         3.08667	-6.00000e+00	
					         3.08833	-6.00000e+00	
					         3.09000	-6.00000e+00	
					         3.09167	-6.00000e+00	
					         3.09333	-6.00000e+00	
					         3.09500	-6.00000e+00	
					         3.09667	-6.00000e+00	
					         3.09833	-6.00000e+00	
					         3.10000	-6.00000e+00	
					         3.10167	-5.00000e+00	
					         3.10333	-5.00000e+00	
					         3.10500	-5.00000e+00	
					         3.10667	-5.00000e+00	
					         3.10833	-5.00000e+00	
					         3.11000	-5.00000e+00	
					         3.11167	-5.00000e+00	
					         3.11333	-5.00000e+00	
					         3.11500	-5.00000e+00	
					         3.11667	-5.00000e+00	
					         3.11833	-5.00000e+00	
					         3.12000	-6.00000e+00	
					         3.12167	-6.00000e+00	
					         3.12333	-6.00000e+00	
					         3.12500	-5.00000e+00	
					         3.12667	-5.00000e+00	
					         3.12833	-5.00000e+00	
					         3.13000	-4.00000e+00	
					         3.13167	-4.00000e+00	
					         3.13333	-4.00000e+00	
					         3.13500	-4.00000e+00	
					         3.13667	-4.00000e+00	
					         3.13833	-4.00000e+00	
					         3.14000	-4.00000e+00	
					         3.14167	-4.00000e+00	
					         3.14333	-4.00000e+00	
					         3.14500	-5.00000e+00	
					         3.14667	-5.00000e+00	
					         3.14833	-6.00000e+00	
					         3.15000	-6.00000e+00	
					         3.15167	-7.00000e+00	
					         3.15333	-7.00000e+00	
					         3.15500	-7.00000e+00	
					         3.15667	-8.00000e+00	
					         3.15833	-8.00000e+00	
					         3.16000	-8.00000e+00	
					         3.16167	-8.00000e+00	
					         3.16333	-7.00000e+00	
					         3.16500	-7.00000e+00	
					         3.16667	-6.00000e+00	
					         3.16833	-5.00000e+00	
					         3.17000	-5.00000e+00	
					         3.17167	-4.00000e+00	
					         3.17333	-4.00000e+00	
					         3.17500	-3.00000e+00	
					         3.17667	-3.00000e+00	
					         3.17833	-2.00000e+00	
					         3.18000	-2.00000e+00	
					         3.18167	-1.00000e+00	
					         3.18333	-1.00000e+00	
					         3.18500	0.00000e+00	
					         3.18667	0.00000e+00	
					         3.18833	0.00000e+00	
					         3.19000	0.00000e+00	
					         3.19167	0.00000e+00	
					         3.19333	0.00000e+00	
					         3.19500	-1.00000e+00	
					         3.19667	-1.00000e+00	
					         3.19833	-2.00000e+00	
					         3.20000	-2.00000e+00	
					         3.20167	-3.00000e+00	
					         3.20333	-4.00000e+00	
					         3.20500	-4.00000e+00	
					         3.20667	-5.00000e+00	
					         3.20833	-5.00000e+00	
					         3.21000	-5.00000e+00	
					         3.21167	-5.00000e+00	
					         3.21333	-5.00000e+00	
					         3.21500	-4.00000e+00	
					         3.21667	-4.00000e+00	
					         3.21833	-4.00000e+00	
					         3.22000	-3.00000e+00	
					         3.22167	-3.00000e+00	
					         3.22333	-3.00000e+00	
					         3.22500	-3.00000e+00	
					         3.22667	-3.00000e+00	
					         3.22833	-3.00000e+00	
					         3.23000	-3.00000e+00	
					         3.23167	-3.00000e+00	
					         3.23333	-3.00000e+00	
					         3.23500	-3.00000e+00	
					         3.23667	-2.00000e+00	
					         3.23833	-2.00000e+00	
					         3.24000	-1.00000e+00	
					         3.24167	0.00000e+00	
					         3.24333	1.00000e+00	
					         3.24500	2.00000e+00	
					         3.24667	2.00000e+00	
					         3.24833	3.00000e+00	
					         3.25000	3.00000e+00	
					         3.25167	4.00000e+00	
					         3.25333	4.00000e+00	
					         3.25500	4.00000e+00	
					         3.25667	4.00000e+00	
					         3.25833	4.00000e+00	
					         3.26000	3.00000e+00	
					         3.26167	3.00000e+00	
					         3.26333	3.00000e+00	
					         3.26500	2.00000e+00	
					         3.26667	2.00000e+00	
					         3.26833	1.00000e+00	
					         3.27000	1.00000e+00	
					         3.27167	1.00000e+00	
					         3.27333	1.00000e+00	
					         3.27500	1.00000e+00	
					         3.27667	0.00000e+00	
					         3.27833	0.00000e+00	
					         3.28000	1.00000e+00	
					         3.28167	1.00000e+00	
					         3.28333	1.00000e+00	
					         3.28500	2.00000e+00	
					         3.28667	3.00000e+00	
					         3.28833	4.00000e+00	
					         3.29000	4.00000e+00	
					         3.29167	5.00000e+00	
					         3.29333	6.00000e+00	
					         3.29500	6.00000e+00	
					         3.29667	7.00000e+00	
					         3.29833	8.00000e+00	
					         3.30000	8.00000e+00	
					         3.30167	9.00000e+00	
					         3.30333	9.00000e+00	
					         3.30500	1.00000e+01	
					         3.30667	1.10000e+01	
					         3.30833	1.10000e+01	
					         3.31000	1.20000e+01	
					         3.31167	1.20000e+01	
					         3.31333	1.30000e+01	
					         3.31500	1.30000e+01	
					         3.31667	1.40000e+01	
					         3.31833	1.40000e+01	
					         3.32000	1.50000e+01	
					         3.32167	1.50000e+01	
					         3.32333	1.40000e+01	
					         3.32500	1.40000e+01	
					         3.32667	1.40000e+01	
					         3.32833	1.40000e+01	
					         3.33000	1.40000e+01	
					         3.33167	1.40000e+01	
					         3.33333	1.50000e+01	
					         3.33500	1.50000e+01	
					         3.33667	1.50000e+01	
					         3.33833	1.50000e+01	
					         3.34000	1.50000e+01	
					         3.34167	1.60000e+01	
					         3.34333	1.60000e+01	
					         3.34500	1.70000e+01	
					         3.34667	1.80000e+01	
					         3.34833	1.80000e+01	
					         3.35000	1.80000e+01	
					         3.35167	1.80000e+01	
					         3.35333	1.80000e+01	
					         3.35500	1.80000e+01	
					         3.35667	1.80000e+01	
					         3.35833	1.80000e+01	
					         3.36000	1.80000e+01	
					         3.36167	1.70000e+01	
					         3.36333	1.70000e+01	
					         3.36500	1.60000e+01	
					         3.36667	1.50000e+01	
					         3.36833	1.40000e+01	
					         3.37000	1.20000e+01	
					         3.37167	1.00000e+01	
					         3.37333	8.00000e+00	
					         3.37500	6.00000e+00	
					         3.37667	4.00000e+00	
					         3.37833	2.00000e+00	
					         3.38000	-1.00000e+00	
					         3.38167	-3.00000e+00	
					         3.38333	-5.00000e+00	
					         3.38500	-7.00000e+00	
					         3.38667	-9.00000e+00	
					         3.38833	-1.10000e+01	
					         3.39000	-1.20000e+01	
					         3.39167	-1.30000e+01	
					         3.39333	-1.40000e+01	
					         3.39500	-1.50000e+01	
					         3.39667	-1.60000e+01	
					         3.39833	-1.60000e+01	
					         3.40000	-1.60000e+01	
					         3.40167	-1.50000e+01	
					         3.40333	-1.50000e+01	
					         3.40500	-1.40000e+01	
					         3.40667	-1.40000e+01	
					         3.40833	-1.30000e+01	
					         3.41000	-1.30000e+01	
					         3.41167	-1.20000e+01	
					         3.41333	-1.20000e+01	
					         3.41500	-1.20000e+01	
					         3.41667	-1.20000e+01	
					         3.41833	-1.30000e+01	
					         3.42000	-1.30000e+01	
					         3.42167	-1.40000e+01	
					         3.42333	-1.40000e+01	
					         3.42500	-1.50000e+01	
					         3.42667	-1.60000e+01	
					         3.42833	-1.60000e+01	
					         3.43000	-1.60000e+01	
					         3.43167	-1.60000e+01	
					         3.43333	-1.60000e+01	
					         3.43500	-1.50000e+01	
					         3.43667	-1.40000e+01	
					         3.43833	-1.30000e+01	
					         3.44000	-1.20000e+01	
					         3.44167	-1.10000e+01	
					         3.44333	-1.00000e+01	
					         3.44500	-9.00000e+00	
					         3.44667	-8.00000e+00	
					         3.44833	-8.00000e+00	
					         3.45000	-7.00000e+00	
					         3.45167	-7.00000e+00	
					         3.45333	-7.00000e+00	
					         3.45500	-7.00000e+00	
					         3.45667	-8.00000e+00	
					         3.45833	-8.00000e+00	
					         3.46000	-9.00000e+00	
					         3.46167	-9.00000e+00	
					         3.46333	-1.00000e+01	
					         3.46500	-1.10000e+01	
					         3.46667	-1.20000e+01	
					         3.46833	-1.30000e+01	
					         3.47000	-1.40000e+01	
					         3.47167	-1.50000e+01	
					         3.47333	-1.60000e+01	
					         3.47500	-1.70000e+01	
					         3.47667	-1.80000e+01	
					         3.47833	-1.90000e+01	
					         3.48000	-1.90000e+01	
					         3.48167	-1.90000e+01	
					         3.48333	-1.70000e+01	
					         3.48500	-1.40000e+01	
					         3.48667	-1.00000e+01	
					         3.48833	-4.00000e+00	
					         3.49000	5.00000e+00	
					         3.49167	1.50000e+01	
					         3.49333	2.70000e+01	
					         3.49500	4.20000e+01	
					         3.49667	5.70000e+01	
					         3.49833	7.40000e+01	
					         3.50000	9.20000e+01	
					         3.50167	1.09000e+02	
					         3.50333	1.26000e+02	
					         3.50500	1.41000e+02	
					         3.50667	1.55000e+02	
					         3.50833	1.66000e+02	
					         3.51000	1.74000e+02	
					         3.51167	1.78000e+02	
					         3.51333	1.80000e+02	
					         3.51500	1.79000e+02	
					         3.51667	1.74000e+02	
					         3.51833	1.67000e+02	
					         3.52000	1.58000e+02	
					         3.52167	1.47000e+02	
					         3.52333	1.34000e+02	
					         3.52500	1.21000e+02	
					         3.52667	1.08000e+02	
					         3.52833	9.50000e+01	
					         3.53000	8.30000e+01	
					         3.53167	7.10000e+01	
					         3.53333	5.90000e+01	
					         3.53500	4.90000e+01	
					         3.53667	3.90000e+01	
					         3.53833	3.00000e+01	
					         3.54000	2.10000e+01	
					         3.54167	1.40000e+01	
					         3.54333	7.00000e+00	
					         3.54500	1.00000e+00	
					         3.54667	-5.00000e+00	
					         3.54833	-1.00000e+01	
					         3.55000	-1.40000e+01	
					         3.55167	-1.90000e+01	
					         3.55333	-2.30000e+01	
					         3.55500	-2.60000e+01	
					         3.55667	-3.00000e+01	
					         3.55833	-3.20000e+01	
					         3.56000	-3.50000e+01	
