Grayscale intensity, in dB

Time (s) :	Trace 1 : 	Trace 2 : 	Trace 3 : 		Ecg : 		
0.00128   	-2.19632e+01	-2.98806e+01	-2.51719e+01		         0.00000	2.34000e+02	
0.01787   	-1.98768e+01	-3.19665e+01	-2.50754e+01		         0.00167	2.49000e+02	
0.03448   	-1.78993e+01	-3.08830e+01	-2.61027e+01		         0.00333	2.59000e+02	
0.05107   	-1.92092e+01	-3.22332e+01	-2.55786e+01		         0.00500	2.63000e+02	
0.06767   	-2.05334e+01	-2.88159e+01	-2.70720e+01		         0.00667	2.60000e+02	
0.08427   	-1.92233e+01	-3.12652e+01	-2.81417e+01		         0.00833	2.50000e+02	
0.10087   	-2.28032e+01	-2.93584e+01	-2.82908e+01		         0.01000	2.34000e+02	
0.11747   	-2.65198e+01	-2.94005e+01	-2.93685e+01		         0.01167	2.13000e+02	
0.13407   	-2.67381e+01	-3.01243e+01	-2.54496e+01		         0.01333	1.87000e+02	
0.15067   	-2.70707e+01	-3.30833e+01	-2.81117e+01		         0.01500	1.58000e+02	
0.16727   	-2.67386e+01	-3.16293e+01	-3.08504e+01		         0.01667	1.26000e+02	
0.18387   	-2.75752e+01	-3.58054e+01	-3.09030e+01		         0.01833	9.30000e+01	
0.20046   	-2.85825e+01	-3.85126e+01	-3.17331e+01		         0.02000	6.00000e+01	
0.21706   	-2.89150e+01	-4.24254e+01	-3.27624e+01		         0.02167	2.90000e+01	
0.23366   	-2.85361e+01	-4.53181e+01	-3.27396e+01		         0.02333	1.00000e+00	
0.25026   	-2.88030e+01	-4.44641e+01	-3.45279e+01		         0.02500	-2.30000e+01	
0.26686   	-3.23514e+01	-4.31129e+01	-3.44023e+01		         0.02667	-4.20000e+01	
0.28346   	-3.33225e+01	-4.22557e+01	-3.43504e+01		         0.02833	-5.80000e+01	
0.30008   	-3.35251e+01	-4.18772e+01	-3.49164e+01		         0.03000	-6.90000e+01	
0.31665   	-3.42204e+01	-4.29756e+01	-3.41755e+01		         0.03167	-7.60000e+01	
0.33342   	-3.47352e+01	-4.28510e+01	-3.43282e+01		         0.03333	-8.10000e+01	
0.34985   	-3.54608e+01	-4.22798e+01	-3.48135e+01		         0.03500	-8.30000e+01	
0.36645   	-3.59183e+01	-4.15643e+01	-3.54947e+01		         0.03667	-8.40000e+01	
0.38305   	-3.61654e+01	-4.12416e+01	-3.45480e+01		         0.03833	-8.40000e+01	
0.39965   	-3.65675e+01	-4.04204e+01	-3.32344e+01		         0.04000	-8.20000e+01	
0.41625   	-3.70679e+01	-4.11145e+01	-3.43030e+01		         0.04167	-7.90000e+01	
0.43285   	-3.67050e+01	-3.87803e+01	-3.51174e+01		         0.04333	-7.60000e+01	
0.44945   	-3.51754e+01	-3.69818e+01	-3.36658e+01		         0.04500	-7.30000e+01	
0.46605   	-3.44471e+01	-3.70000e+01	-3.49602e+01		         0.04667	-7.00000e+01	
0.48280   	-3.35791e+01	-3.82400e+01	-3.52487e+01		         0.04833	-6.70000e+01	
0.49928   	-3.33151e+01	-3.97920e+01	-3.63346e+01		         0.05000	-6.50000e+01	
0.51584   	-3.32832e+01	-4.05395e+01	-3.38813e+01		         0.05167	-6.30000e+01	
0.53244   	-3.47810e+01	-4.00696e+01	-3.42373e+01		         0.05333	-6.00000e+01	
0.54908   	-3.35658e+01	-3.82975e+01	-3.23432e+01		         0.05500	-5.80000e+01	
0.56564   	-3.69173e+01	-3.72270e+01	-3.27484e+01		         0.05667	-5.50000e+01	
0.58233   	-3.66043e+01	-3.60912e+01	-3.17524e+01		         0.05833	-5.30000e+01	
0.59889   	-3.48783e+01	-3.52319e+01	-3.16769e+01		         0.06000	-5.10000e+01	
0.61544   	-3.34549e+01	-3.51891e+01	-2.62887e+01		         0.06167	-4.90000e+01	
0.63206   	-3.05416e+01	-3.40690e+01	-2.61022e+01		         0.06333	-4.70000e+01	
0.64877   	-2.81964e+01	-3.25677e+01	-2.48240e+01		         0.06500	-4.50000e+01	
0.66535   	-2.75898e+01	-3.27655e+01	-2.64105e+01		         0.06667	-4.30000e+01	
0.68198   	-2.82493e+01	-3.33343e+01	-2.67187e+01		         0.06833	-4.10000e+01	
0.69859   	-2.87766e+01	-3.26181e+01	-2.53676e+01		         0.07000	-3.90000e+01	
0.71514   	-2.78089e+01	-3.10686e+01	-2.55286e+01		         0.07167	-3.70000e+01	
0.73179   	-2.72054e+01	-3.10522e+01	-2.47597e+01		         0.07333	-3.50000e+01	
0.74842   	-2.68418e+01	-3.12392e+01	-2.34329e+01		         0.07500	-3.40000e+01	
0.76498   	-2.64964e+01	-3.28876e+01	-2.37906e+01		         0.07667	-3.30000e+01	
0.78149   	-2.61888e+01	-3.31839e+01	-2.40036e+01		         0.07833	-3.30000e+01	
0.79830   	-2.58011e+01	-3.56419e+01	-2.49615e+01		         0.08000	-3.30000e+01	
0.81475   	-2.52556e+01	-3.38928e+01	-2.56725e+01		         0.08167	-3.30000e+01	
0.83122   	-2.48210e+01	-3.28768e+01	-2.56955e+01		         0.08333	-3.20000e+01	
0.84797   	-2.48831e+01	-3.32286e+01	-2.67494e+01		         0.08500	-3.20000e+01	
0.86444   	-2.48688e+01	-3.37313e+01	-2.72368e+01		         0.08667	-3.20000e+01	
0.88127   	-2.49315e+01	-3.44740e+01	-2.72389e+01		         0.08833	-3.20000e+01	
0.89775   	-2.49812e+01	-3.59159e+01	-2.75149e+01		         0.09000	-3.20000e+01	
0.91435   	-2.53944e+01	-3.55841e+01	-2.78411e+01		         0.09167	-3.20000e+01	
0.93101   	-2.57179e+01	-3.55851e+01	-2.80783e+01		         0.09333	-3.10000e+01	
0.94750   	-2.63044e+01	-3.58801e+01	-2.84055e+01		         0.09500	-3.10000e+01	
0.96430   	-2.73349e+01	-3.61215e+01	-2.90710e+01		         0.09667	-3.10000e+01	
0.98065   	-2.82049e+01	-3.57943e+01	-3.00761e+01		         0.09833	-3.10000e+01	
0.99729   	-2.86431e+01	-3.56814e+01	-3.10112e+01		         0.10000	-3.00000e+01	
1.01395   	-2.87776e+01	-3.57758e+01	-3.17795e+01		         0.10167	-2.90000e+01	
1.03052   	-2.86099e+01	-3.59672e+01	-3.19175e+01		         0.10333	-2.80000e+01	
1.04723   	-2.83893e+01	-3.60301e+01	-3.16063e+01		         0.10500	-2.80000e+01	
1.06378   	-2.80040e+01	-3.52665e+01	-3.09575e+01		         0.10667	-2.70000e+01	
1.08042   	-2.64122e+01	-3.43767e+01	-3.06643e+01		         0.10833	-2.50000e+01	
1.09710   	-2.38740e+01	-3.22983e+01	-3.10789e+01		         0.11000	-2.40000e+01	
1.11361   	-2.10918e+01	-3.26922e+01	-2.97412e+01		         0.11167	-2.30000e+01	
1.13039   	-2.08763e+01	-2.98969e+01	-2.80530e+01		         0.11333	-2.10000e+01	
1.14685   	-2.04753e+01	-2.80362e+01	-2.86973e+01		         0.11500	-2.00000e+01	
1.16320   	-2.06187e+01	-3.07812e+01	-2.71929e+01		         0.11667	-1.80000e+01	
1.18013   	-2.01372e+01	-2.96082e+01	-2.72577e+01		         0.11833	-1.60000e+01	
1.19661   	-2.05067e+01	-2.89804e+01	-2.79964e+01		         0.12000	-1.50000e+01	
1.21331   	-1.73273e+01	-2.94235e+01	-2.87685e+01		         0.12167	-1.30000e+01	
1.22987   	-1.85164e+01	-2.91576e+01	-2.63743e+01		         0.12333	-1.20000e+01	
1.24639   	-2.24089e+01	-2.85328e+01	-2.81743e+01		         0.12500	-1.00000e+01	
1.26305   	-2.34545e+01	-3.04166e+01	-2.95348e+01		         0.12667	-9.00000e+00	
1.27946   	-2.59828e+01	-3.05278e+01	-2.87894e+01		         0.12833	-9.00000e+00	
1.29623   	-2.67903e+01	-2.88807e+01	-2.88508e+01		         0.13000	-8.00000e+00	
1.31284   	-2.64901e+01	-2.84385e+01	-2.90880e+01		         0.13167	-8.00000e+00	
1.32936   	-2.70455e+01	-2.95707e+01	-2.55309e+01		         0.13333	-8.00000e+00	
1.34596   	-2.79006e+01	-3.15749e+01	-2.95712e+01		         0.13500	-8.00000e+00	
1.36256   	-2.85592e+01	-3.20458e+01	-2.77797e+01		         0.13667	-8.00000e+00	
1.37932   	-3.00047e+01	-3.50349e+01	-3.02043e+01		         0.13833	-8.00000e+00	
1.39570   	-3.12170e+01	-3.50557e+01	-3.08989e+01		         0.14000	-8.00000e+00	
1.41246   	-3.12298e+01	-3.63118e+01	-3.25494e+01		         0.14167	-9.00000e+00	
1.42890   	-3.03086e+01	-3.75928e+01	-3.39692e+01		         0.14333	-8.00000e+00	
1.44538   	-3.18159e+01	-3.78333e+01	-3.33833e+01		         0.14500	-8.00000e+00	
1.46220   	-3.39730e+01	-4.05392e+01	-3.46357e+01		         0.14667	-8.00000e+00	
1.47868   	-3.48107e+01	-4.02794e+01	-3.45530e+01		         0.14833	-7.00000e+00	
1.49532   	-3.54167e+01	-4.02609e+01	-3.38358e+01		         0.15000	-6.00000e+00	
1.51199   	-3.63801e+01	-4.07298e+01	-3.26110e+01		         0.15167	-5.00000e+00	
1.52851   	-3.70116e+01	-3.95720e+01	-3.08224e+01		         0.15333	-3.00000e+00	
1.54522   	-3.70562e+01	-3.88170e+01	-2.99347e+01		         0.15500	-1.00000e+00	
1.56178   	-3.71550e+01	-4.09003e+01	-3.01938e+01		         0.15667	0.00000e+00	
1.57846   	-3.76446e+01	-4.08729e+01	-2.94918e+01		         0.15833	2.00000e+00	
1.59500   	-3.74445e+01	-4.01460e+01	-2.95335e+01		         0.16000	3.00000e+00	
1.61161   	-3.68265e+01	-3.79058e+01	-2.93468e+01		         0.16167	4.00000e+00	
1.62819   	-3.74617e+01	-3.63282e+01	-3.13844e+01		         0.16333	5.00000e+00	
1.64457   	-3.61608e+01	-3.76227e+01	-3.09162e+01		         0.16500	5.00000e+00	
1.66117   	-3.60801e+01	-3.83950e+01	-3.21778e+01		         0.16667	5.00000e+00	
1.67798   	-3.50729e+01	-3.87496e+01	-3.33121e+01		         0.16833	5.00000e+00	
1.69457   	-3.35516e+01	-4.14840e+01	-3.25720e+01		         0.17000	5.00000e+00	
1.71123   	-3.27722e+01	-4.19525e+01	-3.39098e+01		         0.17167	4.00000e+00	
1.72770   	-3.28981e+01	-3.86999e+01	-3.40922e+01		         0.17333	4.00000e+00	
1.74431   	-3.37647e+01	-3.71379e+01	-3.49359e+01		         0.17500	3.00000e+00	
1.76097   	-3.36401e+01	-3.49592e+01	-3.39762e+01		         0.17667	2.00000e+00	
1.77753   	-3.29228e+01	-3.28782e+01	-3.17423e+01		         0.17833	2.00000e+00	
1.79419   	-3.11659e+01	-3.08506e+01	-3.02914e+01		         0.18000	2.00000e+00	
1.81072   	-2.94482e+01	-3.26027e+01	-3.09719e+01		         0.18167	2.00000e+00	
1.82736   	-3.00331e+01	-3.53725e+01	-2.77152e+01		         0.18333	3.00000e+00	
1.84401   	-2.90028e+01	-3.49515e+01	-2.96091e+01		         0.18500	4.00000e+00	
1.86050   	-2.80477e+01	-3.21942e+01	-2.97155e+01		         0.18667	5.00000e+00	
1.87696   	-2.70332e+01	-3.21763e+01	-2.96701e+01		         0.18833	7.00000e+00	
1.89373   	-2.73833e+01	-3.04782e+01	-3.04521e+01		         0.19000	9.00000e+00	
1.91032   	-2.80638e+01	-3.19415e+01	-2.96586e+01		         0.19167	1.10000e+01	
1.92702   	-2.85929e+01	-3.29837e+01	-2.84129e+01		         0.19333	1.30000e+01	
1.94353   	-2.91357e+01	-3.31910e+01	-2.84406e+01		         0.19500	1.40000e+01	
1.96031   	-2.93969e+01	-3.28889e+01	-2.87371e+01		         0.19667	1.60000e+01	
1.97655   	-2.93216e+01	-3.54415e+01	-2.90088e+01		         0.19833	1.80000e+01	
1.99348   	-2.93766e+01	-3.36594e+01	-2.93483e+01		         0.20000	2.00000e+01	
2.00975   	-2.91171e+01	-3.36947e+01	-2.91189e+01		         0.20167	2.10000e+01	
2.02667   	-2.90678e+01	-3.27224e+01	-2.98921e+01		         0.20333	2.30000e+01	
2.04329   	-2.89688e+01	-3.36286e+01	-2.98037e+01		         0.20500	2.40000e+01	
2.05977   	-2.87981e+01	-3.53168e+01	-2.92639e+01		         0.20667	2.50000e+01	
2.07614   	-2.83952e+01	-3.56035e+01	-2.86631e+01		         0.20833	2.50000e+01	
2.09303   	-2.78251e+01	-3.53119e+01	-2.80645e+01		         0.21000	2.50000e+01	
2.10962   	-2.77834e+01	-3.57713e+01	-2.77224e+01		         0.21167	2.60000e+01	
2.12622   	-2.80916e+01	-3.61040e+01	-2.74858e+01		         0.21333	2.60000e+01	
2.14274   	-2.82363e+01	-3.57341e+01	-2.75350e+01		         0.21500	2.60000e+01	
2.15933   	-2.82035e+01	-3.56490e+01	-2.75040e+01		         0.21667	2.60000e+01	
2.17606   	-2.80953e+01	-3.58551e+01	-2.75243e+01		         0.21833	2.50000e+01	
2.19258   	-2.80200e+01	-3.63782e+01	-2.76162e+01		         0.22000	2.50000e+01	
2.20927   	-2.77996e+01	-3.55009e+01	-2.75658e+01		         0.22167	2.40000e+01	
2.22575   	-2.75909e+01	-3.66366e+01	-2.74254e+01		         0.22333	2.40000e+01	
2.24233   	-2.79629e+01	-3.48760e+01	-2.73250e+01		         0.22500	2.50000e+01	
2.25905   	-2.72853e+01	-3.22854e+01	-2.81893e+01		         0.22667	2.70000e+01	
2.27556   	-2.38911e+01	-3.23449e+01	-3.02613e+01		         0.22833	2.90000e+01	
2.29223   	-2.05229e+01	-3.16650e+01	-2.85725e+01		         0.23000	3.10000e+01	
2.30877   	-2.03434e+01	-2.96065e+01	-2.74133e+01		         0.23167	3.30000e+01	
2.32533   	-2.15737e+01	-2.72412e+01	-2.74806e+01		         0.23333	3.60000e+01	
2.34205   	-1.94760e+01	-2.96896e+01	-2.55107e+01		         0.23500	3.80000e+01	
2.35832   	-1.99644e+01	-2.98567e+01	-2.71240e+01		         0.23667	4.10000e+01	
2.37492   	-1.95018e+01	-2.96741e+01	-2.76635e+01		         0.23833	4.40000e+01	
2.39181   	-1.87001e+01	-3.04246e+01	-2.77761e+01		         0.24000	4.80000e+01	
2.40844   	-2.11612e+01	-2.96062e+01	-2.68624e+01		         0.24167	5.10000e+01	
2.42507   	-2.35698e+01	-2.91961e+01	-2.80817e+01		         0.24333	5.30000e+01	
2.44169   	-2.50739e+01	-2.90400e+01	-2.89510e+01		         0.24500	5.60000e+01	
2.45792   	-2.69082e+01	-3.01062e+01	-2.76702e+01		         0.24667	5.80000e+01	
2.47481   	-2.67442e+01	-2.96668e+01	-2.90275e+01		         0.24833	6.00000e+01	
2.49150   	-2.69522e+01	-3.24943e+01	-2.60290e+01		         0.25000	6.20000e+01	
2.50771   	-2.77556e+01	-3.09833e+01	-2.64616e+01		         0.25167	6.30000e+01	
2.52460   	-2.77349e+01	-3.04717e+01	-2.98220e+01		         0.25333	6.50000e+01	
2.54120   	-2.90947e+01	-3.23068e+01	-2.68016e+01		         0.25500	6.70000e+01	
2.55781   	-3.03430e+01	-3.48051e+01	-2.92262e+01		         0.25667	6.80000e+01	
2.57411   	-3.14068e+01	-3.81012e+01	-3.06364e+01		         0.25833	7.00000e+01	
2.59109   	-3.09906e+01	-3.79213e+01	-3.12931e+01		         0.26000	7.10000e+01	
2.60759   	-3.03164e+01	-3.74871e+01	-3.31296e+01		         0.26167	7.20000e+01	
2.62391   	-3.23397e+01	-3.71584e+01	-3.28000e+01		         0.26333	7.40000e+01	
2.64080   	-3.43766e+01	-3.97609e+01	-3.28402e+01		         0.26500	7.50000e+01	
2.65741   	-3.44591e+01	-3.73606e+01	-3.22073e+01		         0.26667	7.60000e+01	
2.67370   	-3.53069e+01	-3.91552e+01	-3.11322e+01		         0.26833	7.80000e+01	
2.69064   	-3.57185e+01	-3.97492e+01	-2.81188e+01		         0.27000	8.00000e+01	
2.70690   	-3.66122e+01	-3.75805e+01	-2.90536e+01		         0.27167	8.20000e+01	
2.72381   	-3.73908e+01	-3.85665e+01	-2.86942e+01		         0.27333	8.40000e+01	
2.74039   	-3.74135e+01	-4.17119e+01	-2.73933e+01		         0.27500	8.60000e+01	
2.75670   	-3.77129e+01	-4.15562e+01	-2.75775e+01		         0.27667	8.70000e+01	
2.77330   	-3.79431e+01	-4.10422e+01	-2.70263e+01		         0.27833	8.90000e+01	
2.78989   	-3.74979e+01	-3.87767e+01	-2.81308e+01		         0.28000	9.00000e+01	
2.80682   	-3.67397e+01	-3.86660e+01	-3.00543e+01		         0.28167	9.00000e+01	
2.82309   	-3.46564e+01	-3.93568e+01	-2.95232e+01		         0.28333	9.00000e+01	
2.83969   	-3.36837e+01	-4.00153e+01	-3.03815e+01		         0.28500	8.90000e+01	
2.85629   	-3.27375e+01	-4.12481e+01	-3.16617e+01		         0.28667	8.70000e+01	
2.87289   	-3.18450e+01	-4.10483e+01	-3.05911e+01		         0.28833	8.60000e+01	
2.88949   	-3.17450e+01	-4.21497e+01	-3.07743e+01		         0.29000	8.40000e+01	
2.90609   	-3.13933e+01	-4.07774e+01	-3.22453e+01		         0.29167	8.20000e+01	
2.92269   	-3.17649e+01	-3.96539e+01	-3.19651e+01		         0.29333	8.10000e+01	
2.93929   	-3.20585e+01	-3.84648e+01	-2.87981e+01		         0.29500	7.90000e+01	
2.95588   	-3.13915e+01	-3.53977e+01	-2.94051e+01		         0.29667	7.80000e+01	
2.97248   	-2.87066e+01	-3.42547e+01	-2.91406e+01		         0.29833	7.70000e+01	
2.98908   	-2.78277e+01	-3.43673e+01	-2.72243e+01		         0.30000	7.70000e+01	
3.00568   	-2.64455e+01	-3.64059e+01	-2.74896e+01		         0.30167	7.70000e+01	
3.02228   	-2.59133e+01	-3.73308e+01	-2.88196e+01		         0.30333	7.60000e+01	
3.03888   	-2.63743e+01	-3.42040e+01	-2.78649e+01		         0.30500	7.50000e+01	
3.05548   	-2.68130e+01	-3.82288e+01	-2.77021e+01		         0.30667	7.40000e+01	
3.07208   	-2.72557e+01	-3.68137e+01	-2.76363e+01		         0.30833	7.20000e+01	
3.08868   	-2.76803e+01	-3.59472e+01	-2.59063e+01		         0.31000	7.00000e+01	
3.10527   	-2.77190e+01	-3.60461e+01	-2.59414e+01		         0.31167	6.80000e+01	
3.12187   	-2.84665e+01	-3.73253e+01	-2.64367e+01		         0.31333	6.40000e+01	
3.13847   	-2.89299e+01	-3.69547e+01	-2.73342e+01		         0.31500	6.10000e+01	
3.15507   	-2.90345e+01	-3.82839e+01	-2.83688e+01		         0.31667	5.70000e+01	
3.17167   	-2.88490e+01	-3.77808e+01	-2.85852e+01		         0.31833	5.20000e+01	
3.18827   	-2.86886e+01	-3.61401e+01	-2.82310e+01		         0.32000	4.80000e+01	
3.20487   	-2.86127e+01	-3.63702e+01	-2.80318e+01		         0.32167	4.30000e+01	
3.22147   	-2.84678e+01	-3.71013e+01	-2.75817e+01		         0.32333	3.90000e+01	
3.23807   	-2.85382e+01	-3.72057e+01	-2.70530e+01		         0.32500	3.50000e+01	
3.25467   	-2.84621e+01	-3.74945e+01	-2.65622e+01		         0.32667	3.00000e+01	
3.27126   	-2.83195e+01	-3.83767e+01	-2.62216e+01		         0.32833	2.60000e+01	
3.28786   	-2.83868e+01	-3.93782e+01	-2.60201e+01		         0.33000	2.20000e+01	
3.30446   	-2.83339e+01	-3.96449e+01	-2.57917e+01		         0.33167	1.70000e+01	
3.32106   	-2.80511e+01	-3.95013e+01	-2.54633e+01		         0.33333	1.30000e+01	
3.33766   	-2.79591e+01	-3.92786e+01	-2.50926e+01		         0.33500	8.00000e+00	
3.35426   	-2.78504e+01	-3.91381e+01	-2.50514e+01		         0.33667	3.00000e+00	
3.37086   	-2.78986e+01	-3.87070e+01	-2.54373e+01		         0.33833	-2.00000e+00	
3.38746   	-2.76775e+01	-3.87896e+01	-2.56514e+01		         0.34000	-6.00000e+00	
3.40405   	-2.70800e+01	-3.73973e+01	-2.56028e+01		         0.34167	-1.10000e+01	
3.42065   	-2.51161e+01	-3.46326e+01	-2.63607e+01		         0.34333	-1.60000e+01	
3.43725   	-2.22305e+01	-3.32570e+01	-2.86855e+01		         0.34500	-2.10000e+01	
3.45385   	-2.16880e+01	-3.26284e+01	-2.72093e+01		         0.34667	-2.60000e+01	
3.47044   	-2.01552e+01	-3.10833e+01	-2.67184e+01		         0.34833	-3.10000e+01	
3.48705   	-2.19481e+01	-2.79989e+01	-2.74147e+01		         0.35000	-3.60000e+01	
3.50365   	-2.09433e+01	-3.05573e+01	-2.55533e+01		         0.35167	-4.10000e+01	
3.52025   	-2.01076e+01	-3.22772e+01	-2.75094e+01		         0.35333	-4.50000e+01	
3.53685   	-1.97458e+01	-3.10466e+01	-2.80747e+01		         0.35500	-4.90000e+01	
					         0.35667	-5.30000e+01	
					         0.35833	-5.60000e+01	
					         0.36000	-5.90000e+01	
					         0.36167	-6.20000e+01	
					         0.36333	-6.40000e+01	
					         0.36500	-6.60000e+01	
					         0.36667	-6.80000e+01	
					         0.36833	-6.90000e+01	
					         0.37000	-7.00000e+01	
					         0.37167	-7.10000e+01	
					         0.37333	-7.20000e+01	
					         0.37500	-7.30000e+01	
					         0.37667	-7.50000e+01	
					         0.37833	-7.60000e+01	
					         0.38000	-7.70000e+01	
					         0.38167	-7.90000e+01	
					         0.38333	-8.10000e+01	
					         0.38500	-8.20000e+01	
					         0.38667	-8.30000e+01	
					         0.38833	-8.40000e+01	
					         0.39000	-8.40000e+01	
					         0.39167	-8.30000e+01	
					         0.39333	-8.30000e+01	
					         0.39500	-8.10000e+01	
					         0.39667	-7.90000e+01	
					         0.39833	-7.70000e+01	
					         0.40000	-7.50000e+01	
					         0.40167	-7.20000e+01	
					         0.40333	-6.90000e+01	
					         0.40500	-6.60000e+01	
					         0.40667	-6.40000e+01	
					         0.40833	-6.10000e+01	
					         0.41000	-6.00000e+01	
					         0.41167	-5.80000e+01	
					         0.41333	-5.80000e+01	
					         0.41500	-5.70000e+01	
					         0.41667	-5.70000e+01	
					         0.41833	-5.70000e+01	
					         0.42000	-5.60000e+01	
					         0.42167	-5.60000e+01	
					         0.42333	-5.50000e+01	
					         0.42500	-5.40000e+01	
					         0.42667	-5.30000e+01	
					         0.42833	-5.20000e+01	
					         0.43000	-5.10000e+01	
					         0.43167	-5.00000e+01	
					         0.43333	-4.90000e+01	
					         0.43500	-4.70000e+01	
					         0.43667	-4.50000e+01	
					         0.43833	-4.30000e+01	
					         0.44000	-4.20000e+01	
					         0.44167	-4.10000e+01	
					         0.44333	-4.00000e+01	
					         0.44500	-3.90000e+01	
					         0.44667	-3.80000e+01	
					         0.44833	-3.80000e+01	
					         0.45000	-3.70000e+01	
					         0.45167	-3.70000e+01	
					         0.45333	-3.70000e+01	
					         0.45500	-3.70000e+01	
					         0.45667	-3.70000e+01	
					         0.45833	-3.70000e+01	
					         0.46000	-3.70000e+01	
					         0.46167	-3.70000e+01	
					         0.46333	-3.60000e+01	
					         0.46500	-3.50000e+01	
					         0.46667	-3.40000e+01	
					         0.46833	-3.30000e+01	
					         0.47000	-3.20000e+01	
					         0.47167	-3.10000e+01	
					         0.47333	-3.10000e+01	
					         0.47500	-3.00000e+01	
					         0.47667	-2.90000e+01	
					         0.47833	-2.80000e+01	
					         0.48000	-2.70000e+01	
					         0.48167	-2.60000e+01	
					         0.48333	-2.60000e+01	
					         0.48500	-2.50000e+01	
					         0.48667	-2.50000e+01	
					         0.48833	-2.40000e+01	
					         0.49000	-2.30000e+01	
					         0.49167	-2.20000e+01	
					         0.49333	-2.10000e+01	
					         0.49500	-2.00000e+01	
					         0.49667	-1.90000e+01	
					         0.49833	-1.80000e+01	
					         0.50000	-1.70000e+01	
					         0.50167	-1.70000e+01	
					         0.50333	-1.70000e+01	
					         0.50500	-1.70000e+01	
					         0.50667	-1.70000e+01	
					         0.50833	-1.80000e+01	
					         0.51000	-1.80000e+01	
					         0.51167	-1.90000e+01	
					         0.51333	-2.00000e+01	
					         0.51500	-2.00000e+01	
					         0.51667	-2.00000e+01	
					         0.51833	-2.00000e+01	
					         0.52000	-2.00000e+01	
					         0.52167	-1.90000e+01	
					         0.52333	-1.90000e+01	
					         0.52500	-1.80000e+01	
					         0.52667	-1.70000e+01	
					         0.52833	-1.60000e+01	
					         0.53000	-1.50000e+01	
					         0.53167	-1.30000e+01	
					         0.53333	-1.20000e+01	
					         0.53500	-1.10000e+01	
					         0.53667	-1.00000e+01	
					         0.53833	-9.00000e+00	
					         0.54000	-9.00000e+00	
					         0.54167	-9.00000e+00	
					         0.54333	-8.00000e+00	
					         0.54500	-9.00000e+00	
					         0.54667	-9.00000e+00	
					         0.54833	-9.00000e+00	
					         0.55000	-9.00000e+00	
					         0.55167	-9.00000e+00	
					         0.55333	-8.00000e+00	
					         0.55500	-8.00000e+00	
					         0.55667	-8.00000e+00	
					         0.55833	-8.00000e+00	
					         0.56000	-8.00000e+00	
					         0.56167	-9.00000e+00	
					         0.56333	-9.00000e+00	
					         0.56500	-9.00000e+00	
					         0.56667	-1.00000e+01	
					         0.56833	-1.00000e+01	
					         0.57000	-1.10000e+01	
					         0.57167	-1.10000e+01	
					         0.57333	-1.20000e+01	
					         0.57500	-1.20000e+01	
					         0.57667	-1.20000e+01	
					         0.57833	-1.20000e+01	
					         0.58000	-1.20000e+01	
					         0.58167	-1.10000e+01	
					         0.58333	-1.00000e+01	
					         0.58500	-8.00000e+00	
					         0.58667	-7.00000e+00	
					         0.58833	-6.00000e+00	
					         0.59000	-6.00000e+00	
					         0.59167	-5.00000e+00	
					         0.59333	-5.00000e+00	
					         0.59500	-5.00000e+00	
					         0.59667	-5.00000e+00	
					         0.59833	-6.00000e+00	
					         0.60000	-6.00000e+00	
					         0.60167	-7.00000e+00	
					         0.60333	-7.00000e+00	
					         0.60500	-8.00000e+00	
					         0.60667	-8.00000e+00	
					         0.60833	-9.00000e+00	
					         0.61000	-1.00000e+01	
					         0.61167	-1.00000e+01	
					         0.61333	-1.10000e+01	
					         0.61500	-1.10000e+01	
					         0.61667	-1.10000e+01	
					         0.61833	-1.00000e+01	
					         0.62000	-1.00000e+01	
					         0.62167	-1.00000e+01	
					         0.62333	-1.00000e+01	
					         0.62500	-1.10000e+01	
					         0.62667	-1.10000e+01	
					         0.62833	-1.10000e+01	
					         0.63000	-1.10000e+01	
					         0.63167	-1.10000e+01	
					         0.63333	-1.10000e+01	
					         0.63500	-1.10000e+01	
					         0.63667	-1.10000e+01	
					         0.63833	-1.20000e+01	
					         0.64000	-1.20000e+01	
					         0.64167	-1.30000e+01	
					         0.64333	-1.40000e+01	
					         0.64500	-1.40000e+01	
					         0.64667	-1.50000e+01	
					         0.64833	-1.50000e+01	
					         0.65000	-1.50000e+01	
					         0.65167	-1.60000e+01	
					         0.65333	-1.60000e+01	
					         0.65500	-1.60000e+01	
					         0.65667	-1.50000e+01	
					         0.65833	-1.40000e+01	
					         0.66000	-1.40000e+01	
					         0.66167	-1.30000e+01	
					         0.66333	-1.20000e+01	
					         0.66500	-1.10000e+01	
					         0.66667	-1.00000e+01	
					         0.66833	-9.00000e+00	
					         0.67000	-9.00000e+00	
					         0.67167	-8.00000e+00	
					         0.67333	-7.00000e+00	
					         0.67500	-6.00000e+00	
					         0.67667	-6.00000e+00	
					         0.67833	-5.00000e+00	
					         0.68000	-4.00000e+00	
					         0.68167	-4.00000e+00	
					         0.68333	-3.00000e+00	
					         0.68500	-3.00000e+00	
					         0.68667	-2.00000e+00	
					         0.68833	-2.00000e+00	
					         0.69000	-1.00000e+00	
					         0.69167	-1.00000e+00	
					         0.69333	0.00000e+00	
					         0.69500	0.00000e+00	
					         0.69667	0.00000e+00	
					         0.69833	0.00000e+00	
					         0.70000	0.00000e+00	
					         0.70167	0.00000e+00	
					         0.70333	0.00000e+00	
					         0.70500	0.00000e+00	
					         0.70667	-1.00000e+00	
					         0.70833	-1.00000e+00	
					         0.71000	-2.00000e+00	
					         0.71167	-3.00000e+00	
					         0.71333	-4.00000e+00	
					         0.71500	-5.00000e+00	
					         0.71667	-6.00000e+00	
					         0.71833	-8.00000e+00	
					         0.72000	-9.00000e+00	
					         0.72167	-1.00000e+01	
					         0.72333	-1.10000e+01	
					         0.72500	-1.20000e+01	
					         0.72667	-1.30000e+01	
					         0.72833	-1.40000e+01	
					         0.73000	-1.40000e+01	
					         0.73167	-1.40000e+01	
					         0.73333	-1.30000e+01	
					         0.73500	-1.30000e+01	
					         0.73667	-1.20000e+01	
					         0.73833	-1.20000e+01	
					         0.74000	-1.10000e+01	
					         0.74167	-1.00000e+01	
					         0.74333	-9.00000e+00	
					         0.74500	-8.00000e+00	
					         0.74667	-7.00000e+00	
					         0.74833	-6.00000e+00	
					         0.75000	-5.00000e+00	
					         0.75167	-5.00000e+00	
					         0.75333	-4.00000e+00	
					         0.75500	-3.00000e+00	
					         0.75667	-3.00000e+00	
					         0.75833	-2.00000e+00	
					         0.76000	-2.00000e+00	
					         0.76167	-1.00000e+00	
					         0.76333	0.00000e+00	
					         0.76500	0.00000e+00	
					         0.76667	1.00000e+00	
					         0.76833	1.00000e+00	
					         0.77000	2.00000e+00	
					         0.77167	2.00000e+00	
					         0.77333	2.00000e+00	
					         0.77500	2.00000e+00	
					         0.77667	2.00000e+00	
					         0.77833	2.00000e+00	
					         0.78000	2.00000e+00	
					         0.78167	1.00000e+00	
					         0.78333	1.00000e+00	
					         0.78500	1.00000e+00	
					         0.78667	0.00000e+00	
					         0.78833	0.00000e+00	
					         0.79000	0.00000e+00	
					         0.79167	0.00000e+00	
					         0.79333	0.00000e+00	
					         0.79500	1.00000e+00	
					         0.79667	1.00000e+00	
					         0.79833	2.00000e+00	
					         0.80000	2.00000e+00	
					         0.80167	3.00000e+00	
					         0.80333	3.00000e+00	
					         0.80500	3.00000e+00	
					         0.80667	3.00000e+00	
					         0.80833	2.00000e+00	
					         0.81000	2.00000e+00	
					         0.81167	1.00000e+00	
					         0.81333	0.00000e+00	
					         0.81500	0.00000e+00	
					         0.81667	-1.00000e+00	
					         0.81833	-2.00000e+00	
					         0.82000	-3.00000e+00	
					         0.82167	-4.00000e+00	
					         0.82333	-4.00000e+00	
					         0.82500	-4.00000e+00	
					         0.82667	-3.00000e+00	
					         0.82833	-2.00000e+00	
					         0.83000	-2.00000e+00	
					         0.83167	-1.00000e+00	
					         0.83333	0.00000e+00	
					         0.83500	1.00000e+00	
					         0.83667	2.00000e+00	
					         0.83833	3.00000e+00	
					         0.84000	4.00000e+00	
					         0.84167	4.00000e+00	
					         0.84333	5.00000e+00	
					         0.84500	5.00000e+00	
					         0.84667	5.00000e+00	
					         0.84833	5.00000e+00	
					         0.85000	4.00000e+00	
					         0.85167	3.00000e+00	
					         0.85333	2.00000e+00	
					         0.85500	1.00000e+00	
					         0.85667	0.00000e+00	
					         0.85833	0.00000e+00	
					         0.86000	-1.00000e+00	
					         0.86167	-1.00000e+00	
					         0.86333	-2.00000e+00	
					         0.86500	-2.00000e+00	
					         0.86667	-1.00000e+00	
					         0.86833	-1.00000e+00	
					         0.87000	0.00000e+00	
					         0.87167	1.00000e+00	
					         0.87333	1.00000e+00	
					         0.87500	2.00000e+00	
					         0.87667	2.00000e+00	
					         0.87833	2.00000e+00	
					         0.88000	2.00000e+00	
					         0.88167	1.00000e+00	
					         0.88333	1.00000e+00	
					         0.88500	1.00000e+00	
					         0.88667	0.00000e+00	
					         0.88833	0.00000e+00	
					         0.89000	0.00000e+00	
					         0.89167	-1.00000e+00	
					         0.89333	-1.00000e+00	
					         0.89500	0.00000e+00	
					         0.89667	0.00000e+00	
					         0.89833	0.00000e+00	
					         0.90000	1.00000e+00	
					         0.90167	2.00000e+00	
					         0.90333	2.00000e+00	
					         0.90500	3.00000e+00	
					         0.90667	3.00000e+00	
					         0.90833	3.00000e+00	
					         0.91000	3.00000e+00	
					         0.91167	3.00000e+00	
					         0.91333	3.00000e+00	
					         0.91500	3.00000e+00	
					         0.91667	3.00000e+00	
					         0.91833	3.00000e+00	
					         0.92000	3.00000e+00	
					         0.92167	2.00000e+00	
					         0.92333	2.00000e+00	
					         0.92500	1.00000e+00	
					         0.92667	0.00000e+00	
					         0.92833	0.00000e+00	
					         0.93000	0.00000e+00	
					         0.93167	-1.00000e+00	
					         0.93333	-1.00000e+00	
					         0.93500	-1.00000e+00	
					         0.93667	-1.00000e+00	
					         0.93833	-2.00000e+00	
					         0.94000	-2.00000e+00	
					         0.94167	-2.00000e+00	
					         0.94333	-1.00000e+00	
					         0.94500	-1.00000e+00	
					         0.94667	0.00000e+00	
					         0.94833	0.00000e+00	
					         0.95000	1.00000e+00	
					         0.95167	1.00000e+00	
					         0.95333	1.00000e+00	
					         0.95500	1.00000e+00	
					         0.95667	2.00000e+00	
					         0.95833	2.00000e+00	
					         0.96000	3.00000e+00	
					         0.96167	4.00000e+00	
					         0.96333	5.00000e+00	
					         0.96500	5.00000e+00	
					         0.96667	5.00000e+00	
					         0.96833	4.00000e+00	
					         0.97000	4.00000e+00	
					         0.97167	4.00000e+00	
					         0.97333	4.00000e+00	
					         0.97500	4.00000e+00	
					         0.97667	5.00000e+00	
					         0.97833	6.00000e+00	
					         0.98000	7.00000e+00	
					         0.98167	8.00000e+00	
					         0.98333	8.00000e+00	
					         0.98500	9.00000e+00	
					         0.98667	9.00000e+00	
					         0.98833	9.00000e+00	
					         0.99000	1.00000e+01	
					         0.99167	9.00000e+00	
					         0.99333	9.00000e+00	
					         0.99500	7.00000e+00	
					         0.99667	6.00000e+00	
					         0.99833	4.00000e+00	
					         1.00000	1.00000e+00	
					         1.00167	0.00000e+00	
					         1.00333	-2.00000e+00	
					         1.00500	-2.00000e+00	
					         1.00667	-2.00000e+00	
					         1.00833	-2.00000e+00	
					         1.01000	-1.00000e+00	
					         1.01167	0.00000e+00	
					         1.01333	2.00000e+00	
					         1.01500	4.00000e+00	
					         1.01667	6.00000e+00	
					         1.01833	8.00000e+00	
					         1.02000	1.00000e+01	
					         1.02167	1.20000e+01	
					         1.02333	1.40000e+01	
					         1.02500	1.50000e+01	
					         1.02667	1.60000e+01	
					         1.02833	1.50000e+01	
					         1.03000	1.50000e+01	
					         1.03167	1.50000e+01	
					         1.03333	1.50000e+01	
					         1.03500	1.50000e+01	
					         1.03667	1.40000e+01	
					         1.03833	1.40000e+01	
					         1.04000	1.40000e+01	
					         1.04167	1.40000e+01	
					         1.04333	1.40000e+01	
					         1.04500	1.50000e+01	
					         1.04667	1.60000e+01	
					         1.04833	1.80000e+01	
					         1.05000	1.90000e+01	
					         1.05167	1.90000e+01	
					         1.05333	2.00000e+01	
					         1.05500	2.00000e+01	
					         1.05667	1.90000e+01	
					         1.05833	1.90000e+01	
					         1.06000	1.80000e+01	
					         1.06167	1.70000e+01	
					         1.06333	1.50000e+01	
					         1.06500	1.30000e+01	
					         1.06667	1.20000e+01	
					         1.06833	1.00000e+01	
					         1.07000	8.00000e+00	
					         1.07167	6.00000e+00	
					         1.07333	5.00000e+00	
					         1.07500	3.00000e+00	
					         1.07667	2.00000e+00	
					         1.07833	1.00000e+00	
					         1.08000	-1.00000e+00	
					         1.08167	-2.00000e+00	
					         1.08333	-4.00000e+00	
					         1.08500	-5.00000e+00	
					         1.08667	-6.00000e+00	
					         1.08833	-7.00000e+00	
					         1.09000	-8.00000e+00	
					         1.09167	-9.00000e+00	
					         1.09333	-9.00000e+00	
					         1.09500	-1.00000e+01	
					         1.09667	-9.00000e+00	
					         1.09833	-9.00000e+00	
					         1.10000	-7.00000e+00	
					         1.10167	-6.00000e+00	
					         1.10333	-5.00000e+00	
					         1.10500	-4.00000e+00	
					         1.10667	-3.00000e+00	
					         1.10833	-2.00000e+00	
					         1.11000	-1.00000e+00	
					         1.11167	0.00000e+00	
					         1.11333	0.00000e+00	
					         1.11500	1.00000e+00	
					         1.11667	1.00000e+00	
					         1.11833	1.00000e+00	
					         1.12000	1.00000e+00	
					         1.12167	0.00000e+00	
					         1.12333	0.00000e+00	
					         1.12500	0.00000e+00	
					         1.12667	-1.00000e+00	
					         1.12833	-1.00000e+00	
					         1.13000	-1.00000e+00	
					         1.13167	-2.00000e+00	
					         1.13333	-2.00000e+00	
					         1.13500	-2.00000e+00	
					         1.13667	-2.00000e+00	
					         1.13833	-2.00000e+00	
					         1.14000	-2.00000e+00	
					         1.14167	-2.00000e+00	
					         1.14333	-2.00000e+00	
					         1.14500	-2.00000e+00	
					         1.14667	-2.00000e+00	
					         1.14833	-3.00000e+00	
					         1.15000	-3.00000e+00	
					         1.15167	-4.00000e+00	
					         1.15333	-4.00000e+00	
					         1.15500	-5.00000e+00	
					         1.15667	-4.00000e+00	
					         1.15833	-3.00000e+00	
					         1.16000	-1.00000e+00	
					         1.16167	2.00000e+00	
					         1.16333	8.00000e+00	
					         1.16500	1.50000e+01	
					         1.16667	2.50000e+01	
					         1.16833	3.70000e+01	
					         1.17000	5.20000e+01	
					         1.17167	6.90000e+01	
					         1.17333	8.90000e+01	
					         1.17500	1.10000e+02	
					         1.17667	1.33000e+02	
					         1.17833	1.57000e+02	
					         1.18000	1.81000e+02	
					         1.18167	2.04000e+02	
					         1.18333	2.24000e+02	
					         1.18500	2.40000e+02	
					         1.18667	2.52000e+02	
					         1.18833	2.57000e+02	
					         1.19000	2.56000e+02	
					         1.19167	2.49000e+02	
					         1.19333	2.35000e+02	
					         1.19500	2.16000e+02	
					         1.19667	1.91000e+02	
					         1.19833	1.63000e+02	
					         1.20000	1.32000e+02	
					         1.20167	9.90000e+01	
					         1.20333	6.70000e+01	
					         1.20500	3.50000e+01	
					         1.20667	6.00000e+00	
					         1.20833	-2.00000e+01	
					         1.21000	-4.20000e+01	
					         1.21167	-5.90000e+01	
					         1.21333	-7.30000e+01	
					         1.21500	-8.20000e+01	
					         1.21667	-8.70000e+01	
					         1.21833	-9.00000e+01	
					         1.22000	-9.10000e+01	
					         1.22167	-8.90000e+01	
					         1.22333	-8.60000e+01	
					         1.22500	-8.20000e+01	
					         1.22667	-7.80000e+01	
					         1.22833	-7.30000e+01	
					         1.23000	-6.90000e+01	
					         1.23167	-6.50000e+01	
					         1.23333	-6.20000e+01	
					         1.23500	-5.90000e+01	
					         1.23667	-5.70000e+01	
					         1.23833	-5.50000e+01	
					         1.24000	-5.40000e+01	
					         1.24167	-5.30000e+01	
					         1.24333	-5.20000e+01	
					         1.24500	-5.20000e+01	
					         1.24667	-5.20000e+01	
					         1.24833	-5.10000e+01	
					         1.25000	-5.10000e+01	
					         1.25167	-5.10000e+01	
					         1.25333	-5.10000e+01	
					         1.25500	-5.10000e+01	
					         1.25667	-5.20000e+01	
					         1.25833	-5.20000e+01	
					         1.26000	-5.20000e+01	
					         1.26167	-5.20000e+01	
					         1.26333	-5.20000e+01	
					         1.26500	-5.20000e+01	
					         1.26667	-5.10000e+01	
					         1.26833	-5.00000e+01	
					         1.27000	-4.80000e+01	
					         1.27167	-4.70000e+01	
					         1.27333	-4.50000e+01	
					         1.27500	-4.30000e+01	
					         1.27667	-4.10000e+01	
					         1.27833	-3.80000e+01	
					         1.28000	-3.60000e+01	
					         1.28167	-3.40000e+01	
					         1.28333	-3.20000e+01	
					         1.28500	-3.00000e+01	
					         1.28667	-2.90000e+01	
					         1.28833	-2.80000e+01	
					         1.29000	-2.80000e+01	
					         1.29167	-2.80000e+01	
					         1.29333	-2.80000e+01	
					         1.29500	-2.80000e+01	
					         1.29667	-2.90000e+01	
					         1.29833	-2.90000e+01	
					         1.30000	-3.00000e+01	
					         1.30167	-3.10000e+01	
					         1.30333	-3.10000e+01	
					         1.30500	-3.10000e+01	
					         1.30667	-3.10000e+01	
					         1.30833	-3.00000e+01	
					         1.31000	-2.90000e+01	
					         1.31167	-2.70000e+01	
					         1.31333	-2.50000e+01	
					         1.31500	-2.20000e+01	
					         1.31667	-1.90000e+01	
					         1.31833	-1.70000e+01	
					         1.32000	-1.40000e+01	
					         1.32167	-1.20000e+01	
					         1.32333	-1.10000e+01	
					         1.32500	-9.00000e+00	
					         1.32667	-8.00000e+00	
					         1.32833	-8.00000e+00	
					         1.33000	-7.00000e+00	
					         1.33167	-7.00000e+00	
					         1.33333	-7.00000e+00	
					         1.33500	-7.00000e+00	
					         1.33667	-7.00000e+00	
					         1.33833	-7.00000e+00	
					         1.34000	-7.00000e+00	
					         1.34167	-7.00000e+00	
					         1.34333	-6.00000e+00	
					         1.34500	-5.00000e+00	
					         1.34667	-3.00000e+00	
					         1.34833	-2.00000e+00	
					         1.35000	-1.00000e+00	
					         1.35167	0.00000e+00	
					         1.35333	0.00000e+00	
					         1.35500	0.00000e+00	
					         1.35667	-1.00000e+00	
					         1.35833	-2.00000e+00	
					         1.36000	-3.00000e+00	
					         1.36167	-4.00000e+00	
					         1.36333	-5.00000e+00	
					         1.36500	-6.00000e+00	
					         1.36667	-7.00000e+00	
					         1.36833	-7.00000e+00	
					         1.37000	-7.00000e+00	
					         1.37167	-6.00000e+00	
					         1.37333	-4.00000e+00	
					         1.37500	-2.00000e+00	
					         1.37667	1.00000e+00	
					         1.37833	4.00000e+00	
					         1.38000	7.00000e+00	
					         1.38167	9.00000e+00	
					         1.38333	1.20000e+01	
					         1.38500	1.40000e+01	
					         1.38667	1.60000e+01	
					         1.38833	1.70000e+01	
					         1.39000	1.80000e+01	
					         1.39167	1.90000e+01	
					         1.39333	1.90000e+01	
					         1.39500	1.80000e+01	
					         1.39667	1.80000e+01	
					         1.39833	1.80000e+01	
					         1.40000	1.70000e+01	
					         1.40167	1.60000e+01	
					         1.40333	1.60000e+01	
					         1.40500	1.50000e+01	
					         1.40667	1.40000e+01	
					         1.40833	1.40000e+01	
					         1.41000	1.40000e+01	
					         1.41167	1.40000e+01	
					         1.41333	1.50000e+01	
					         1.41500	1.70000e+01	
					         1.41667	1.90000e+01	
					         1.41833	2.20000e+01	
					         1.42000	2.60000e+01	
					         1.42167	3.00000e+01	
					         1.42333	3.30000e+01	
					         1.42500	3.70000e+01	
					         1.42667	4.10000e+01	
					         1.42833	4.40000e+01	
					         1.43000	4.80000e+01	
					         1.43167	5.10000e+01	
					         1.43333	5.40000e+01	
					         1.43500	5.60000e+01	
					         1.43667	5.90000e+01	
					         1.43833	6.10000e+01	
					         1.44000	6.40000e+01	
					         1.44167	6.60000e+01	
					         1.44333	6.80000e+01	
					         1.44500	7.00000e+01	
					         1.44667	7.20000e+01	
					         1.44833	7.40000e+01	
					         1.45000	7.50000e+01	
					         1.45167	7.70000e+01	
					         1.45333	7.80000e+01	
					         1.45500	7.80000e+01	
					         1.45667	7.90000e+01	
					         1.45833	7.90000e+01	
					         1.46000	7.90000e+01	
					         1.46167	8.00000e+01	
					         1.46333	8.00000e+01	
					         1.46500	8.00000e+01	
					         1.46667	8.10000e+01	
					         1.46833	8.10000e+01	
					         1.47000	8.20000e+01	
					         1.47167	8.20000e+01	
					         1.47333	8.30000e+01	
					         1.47500	8.30000e+01	
					         1.47667	8.30000e+01	
					         1.47833	8.20000e+01	
					         1.48000	8.00000e+01	
					         1.48167	7.80000e+01	
					         1.48333	7.60000e+01	
					         1.48500	7.30000e+01	
					         1.48667	7.00000e+01	
					         1.48833	6.70000e+01	
					         1.49000	6.40000e+01	
					         1.49167	6.10000e+01	
					         1.49333	5.80000e+01	
					         1.49500	5.50000e+01	
					         1.49667	5.30000e+01	
					         1.49833	5.10000e+01	
					         1.50000	4.90000e+01	
					         1.50167	4.60000e+01	
					         1.50333	4.40000e+01	
					         1.50500	4.10000e+01	
					         1.50667	3.90000e+01	
					         1.50833	3.60000e+01	
					         1.51000	3.20000e+01	
					         1.51167	2.90000e+01	
					         1.51333	2.50000e+01	
					         1.51500	2.00000e+01	
					         1.51667	1.50000e+01	
					         1.51833	1.10000e+01	
					         1.52000	6.00000e+00	
					         1.52167	1.00000e+00	
					         1.52333	-3.00000e+00	
					         1.52500	-7.00000e+00	
					         1.52667	-1.10000e+01	
					         1.52833	-1.40000e+01	
					         1.53000	-1.80000e+01	
					         1.53167	-2.10000e+01	
					         1.53333	-2.40000e+01	
					         1.53500	-2.80000e+01	
					         1.53667	-3.10000e+01	
					         1.53833	-3.40000e+01	
					         1.54000	-3.70000e+01	
					         1.54167	-4.00000e+01	
					         1.54333	-4.40000e+01	
					         1.54500	-4.70000e+01	
					         1.54667	-5.10000e+01	
					         1.54833	-5.40000e+01	
					         1.55000	-5.80000e+01	
					         1.55167	-6.10000e+01	
					         1.55333	-6.40000e+01	
					         1.55500	-6.60000e+01	
					         1.55667	-6.70000e+01	
					         1.55833	-6.80000e+01	
					         1.56000	-6.90000e+01	
					         1.56167	-6.90000e+01	
					         1.56333	-6.80000e+01	
					         1.56500	-6.70000e+01	
					         1.56667	-6.60000e+01	
					         1.56833	-6.40000e+01	
					         1.57000	-6.20000e+01	
					         1.57167	-6.00000e+01	
					         1.57333	-5.80000e+01	
					         1.57500	-5.60000e+01	
					         1.57667	-5.40000e+01	
					         1.57833	-5.30000e+01	
					         1.58000	-5.20000e+01	
					         1.58167	-5.20000e+01	
					         1.58333	-5.20000e+01	
					         1.58500	-5.20000e+01	
					         1.58667	-5.30000e+01	
					         1.58833	-5.30000e+01	
					         1.59000	-5.30000e+01	
					         1.59167	-5.30000e+01	
					         1.59333	-5.30000e+01	
					         1.59500	-5.30000e+01	
					         1.59667	-5.20000e+01	
					         1.59833	-5.00000e+01	
					         1.60000	-4.80000e+01	
					         1.60167	-4.60000e+01	
					         1.60333	-4.30000e+01	
					         1.60500	-4.00000e+01	
					         1.60667	-3.70000e+01	
					         1.60833	-3.50000e+01	
					         1.61000	-3.30000e+01	
					         1.61167	-3.10000e+01	
					         1.61333	-3.00000e+01	
					         1.61500	-2.90000e+01	
					         1.61667	-2.90000e+01	
					         1.61833	-2.90000e+01	
					         1.62000	-2.90000e+01	
					         1.62167	-2.90000e+01	
					         1.62333	-3.00000e+01	
					         1.62500	-3.00000e+01	
					         1.62667	-3.10000e+01	
					         1.62833	-3.10000e+01	
					         1.63000	-3.10000e+01	
					         1.63167	-3.00000e+01	
					         1.63333	-3.00000e+01	
					         1.63500	-2.90000e+01	
					         1.63667	-2.90000e+01	
					         1.63833	-2.80000e+01	
					         1.64000	-2.70000e+01	
					         1.64167	-2.60000e+01	
					         1.64333	-2.50000e+01	
					         1.64500	-2.30000e+01	
					         1.64667	-2.20000e+01	
					         1.64833	-2.10000e+01	
					         1.65000	-2.00000e+01	
					         1.65167	-2.00000e+01	
					         1.65333	-2.00000e+01	
					         1.65500	-2.00000e+01	
					         1.65667	-2.00000e+01	
					         1.65833	-1.90000e+01	
					         1.66000	-1.80000e+01	
					         1.66167	-1.80000e+01	
					         1.66333	-1.70000e+01	
					         1.66500	-1.70000e+01	
					         1.66667	-1.60000e+01	
					         1.66833	-1.50000e+01	
					         1.67000	-1.50000e+01	
					         1.67167	-1.40000e+01	
					         1.67333	-1.30000e+01	
					         1.67500	-1.20000e+01	
					         1.67667	-1.10000e+01	
					         1.67833	-1.10000e+01	
					         1.68000	-1.00000e+01	
					         1.68167	-1.00000e+01	
					         1.68333	-1.00000e+01	
					         1.68500	-1.00000e+01	
					         1.68667	-1.00000e+01	
					         1.68833	-1.00000e+01	
					         1.69000	-1.00000e+01	
					         1.69167	-9.00000e+00	
					         1.69333	-8.00000e+00	
					         1.69500	-8.00000e+00	
					         1.69667	-7.00000e+00	
					         1.69833	-5.00000e+00	
					         1.70000	-4.00000e+00	
					         1.70167	-3.00000e+00	
					         1.70333	-3.00000e+00	
					         1.70500	-2.00000e+00	
					         1.70667	-2.00000e+00	
					         1.70833	-1.00000e+00	
					         1.71000	-1.00000e+00	
					         1.71167	0.00000e+00	
					         1.71333	0.00000e+00	
					         1.71500	0.00000e+00	
					         1.71667	0.00000e+00	
					         1.71833	0.00000e+00	
					         1.72000	-1.00000e+00	
					         1.72167	-1.00000e+00	
					         1.72333	-1.00000e+00	
					         1.72500	-2.00000e+00	
					         1.72667	-2.00000e+00	
					         1.72833	-3.00000e+00	
					         1.73000	-3.00000e+00	
					         1.73167	-3.00000e+00	
					         1.73333	-3.00000e+00	
					         1.73500	-3.00000e+00	
					         1.73667	-2.00000e+00	
					         1.73833	-2.00000e+00	
					         1.74000	-1.00000e+00	
					         1.74167	-1.00000e+00	
					         1.74333	0.00000e+00	
					         1.74500	1.00000e+00	
					         1.74667	2.00000e+00	
					         1.74833	3.00000e+00	
					         1.75000	4.00000e+00	
					         1.75167	5.00000e+00	
					         1.75333	5.00000e+00	
					         1.75500	5.00000e+00	
					         1.75667	5.00000e+00	
					         1.75833	5.00000e+00	
					         1.76000	5.00000e+00	
					         1.76167	4.00000e+00	
					         1.76333	3.00000e+00	
					         1.76500	2.00000e+00	
					         1.76667	1.00000e+00	
					         1.76833	-1.00000e+00	
					         1.77000	-2.00000e+00	
					         1.77167	-4.00000e+00	
					         1.77333	-5.00000e+00	
					         1.77500	-5.00000e+00	
					         1.77667	-6.00000e+00	
					         1.77833	-7.00000e+00	
					         1.78000	-7.00000e+00	
					         1.78167	-7.00000e+00	
					         1.78333	-7.00000e+00	
					         1.78500	-6.00000e+00	
					         1.78667	-6.00000e+00	
					         1.78833	-5.00000e+00	
					         1.79000	-5.00000e+00	
					         1.79167	-4.00000e+00	
					         1.79333	-4.00000e+00	
					         1.79500	-4.00000e+00	
					         1.79667	-5.00000e+00	
					         1.79833	-5.00000e+00	
					         1.80000	-6.00000e+00	
					         1.80167	-6.00000e+00	
					         1.80333	-6.00000e+00	
					         1.80500	-6.00000e+00	
					         1.80667	-6.00000e+00	
					         1.80833	-6.00000e+00	
					         1.81000	-6.00000e+00	
					         1.81167	-6.00000e+00	
					         1.81333	-6.00000e+00	
					         1.81500	-6.00000e+00	
					         1.81667	-6.00000e+00	
					         1.81833	-6.00000e+00	
					         1.82000	-5.00000e+00	
					         1.82167	-4.00000e+00	
					         1.82333	-2.00000e+00	
					         1.82500	-1.00000e+00	
					         1.82667	0.00000e+00	
					         1.82833	1.00000e+00	
					         1.83000	2.00000e+00	
					         1.83167	2.00000e+00	
					         1.83333	3.00000e+00	
					         1.83500	4.00000e+00	
					         1.83667	4.00000e+00	
					         1.83833	4.00000e+00	
					         1.84000	3.00000e+00	
					         1.84167	2.00000e+00	
					         1.84333	0.00000e+00	
					         1.84500	-2.00000e+00	
					         1.84667	-4.00000e+00	
					         1.84833	-6.00000e+00	
					         1.85000	-8.00000e+00	
					         1.85167	-1.00000e+01	
					         1.85333	-1.10000e+01	
					         1.85500	-1.20000e+01	
					         1.85667	-1.30000e+01	
					         1.85833	-1.30000e+01	
					         1.86000	-1.30000e+01	
					         1.86167	-1.30000e+01	
					         1.86333	-1.20000e+01	
					         1.86500	-1.10000e+01	
					         1.86667	-1.10000e+01	
					         1.86833	-1.00000e+01	
					         1.87000	-1.00000e+01	
					         1.87167	-1.00000e+01	
					         1.87333	-1.10000e+01	
					         1.87500	-1.10000e+01	
					         1.87667	-1.20000e+01	
					         1.87833	-1.30000e+01	
					         1.88000	-1.50000e+01	
					         1.88167	-1.60000e+01	
					         1.88333	-1.60000e+01	
					         1.88500	-1.70000e+01	
					         1.88667	-1.70000e+01	
					         1.88833	-1.60000e+01	
					         1.89000	-1.50000e+01	
					         1.89167	-1.40000e+01	
					         1.89333	-1.20000e+01	
					         1.89500	-9.00000e+00	
					         1.89667	-7.00000e+00	
					         1.89833	-5.00000e+00	
					         1.90000	-3.00000e+00	
					         1.90167	-1.00000e+00	
					         1.90333	1.00000e+00	
					         1.90500	2.00000e+00	
					         1.90667	2.00000e+00	
					         1.90833	3.00000e+00	
					         1.91000	2.00000e+00	
					         1.91167	2.00000e+00	
					         1.91333	1.00000e+00	
					         1.91500	-1.00000e+00	
					         1.91667	-2.00000e+00	
					         1.91833	-4.00000e+00	
					         1.92000	-5.00000e+00	
					         1.92167	-6.00000e+00	
					         1.92333	-7.00000e+00	
					         1.92500	-8.00000e+00	
					         1.92667	-8.00000e+00	
					         1.92833	-8.00000e+00	
					         1.93000	-8.00000e+00	
					         1.93167	-8.00000e+00	
					         1.93333	-7.00000e+00	
					         1.93500	-6.00000e+00	
					         1.93667	-6.00000e+00	
					         1.93833	-4.00000e+00	
					         1.94000	-3.00000e+00	
					         1.94167	-2.00000e+00	
					         1.94333	-2.00000e+00	
					         1.94500	-1.00000e+00	
					         1.94667	-1.00000e+00	
					         1.94833	-1.00000e+00	
					         1.95000	-1.00000e+00	
					         1.95167	-2.00000e+00	
					         1.95333	-2.00000e+00	
					         1.95500	-3.00000e+00	
					         1.95667	-3.00000e+00	
					         1.95833	-4.00000e+00	
					         1.96000	-5.00000e+00	
					         1.96167	-6.00000e+00	
					         1.96333	-6.00000e+00	
					         1.96500	-7.00000e+00	
					         1.96667	-7.00000e+00	
					         1.96833	-7.00000e+00	
					         1.97000	-6.00000e+00	
					         1.97167	-6.00000e+00	
					         1.97333	-6.00000e+00	
					         1.97500	-5.00000e+00	
					         1.97667	-5.00000e+00	
					         1.97833	-4.00000e+00	
					         1.98000	-3.00000e+00	
					         1.98167	-2.00000e+00	
					         1.98333	-1.00000e+00	
					         1.98500	0.00000e+00	
					         1.98667	1.00000e+00	
					         1.98833	1.00000e+00	
					         1.99000	2.00000e+00	
					         1.99167	2.00000e+00	
					         1.99333	2.00000e+00	
					         1.99500	1.00000e+00	
					         1.99667	1.00000e+00	
					         1.99833	1.00000e+00	
					         2.00000	0.00000e+00	
					         2.00167	0.00000e+00	
					         2.00333	0.00000e+00	
					         2.00500	-1.00000e+00	
					         2.00667	-2.00000e+00	
					         2.00833	-3.00000e+00	
					         2.01000	-3.00000e+00	
					         2.01167	-4.00000e+00	
					         2.01333	-5.00000e+00	
					         2.01500	-5.00000e+00	
					         2.01667	-6.00000e+00	
					         2.01833	-7.00000e+00	
					         2.02000	-8.00000e+00	
					         2.02167	-9.00000e+00	
					         2.02333	-1.00000e+01	
					         2.02500	-1.10000e+01	
					         2.02667	-1.10000e+01	
					         2.02833	-1.10000e+01	
					         2.03000	-1.10000e+01	
					         2.03167	-1.00000e+01	
					         2.03333	-1.00000e+01	
					         2.03500	-9.00000e+00	
					         2.03667	-7.00000e+00	
					         2.03833	-5.00000e+00	
					         2.04000	-3.00000e+00	
					         2.04167	-1.00000e+00	
					         2.04333	2.00000e+00	
					         2.04500	3.00000e+00	
					         2.04667	5.00000e+00	
					         2.04833	6.00000e+00	
					         2.05000	7.00000e+00	
					         2.05167	7.00000e+00	
					         2.05333	7.00000e+00	
					         2.05500	7.00000e+00	
					         2.05667	7.00000e+00	
					         2.05833	6.00000e+00	
					         2.06000	5.00000e+00	
					         2.06167	4.00000e+00	
					         2.06333	2.00000e+00	
					         2.06500	1.00000e+00	
					         2.06667	0.00000e+00	
					         2.06833	-1.00000e+00	
					         2.07000	-1.00000e+00	
					         2.07167	-1.00000e+00	
					         2.07333	-1.00000e+00	
					         2.07500	-1.00000e+00	
					         2.07667	-1.00000e+00	
					         2.07833	0.00000e+00	
					         2.08000	0.00000e+00	
					         2.08167	0.00000e+00	
					         2.08333	1.00000e+00	
					         2.08500	1.00000e+00	
					         2.08667	2.00000e+00	
					         2.08833	2.00000e+00	
					         2.09000	2.00000e+00	
					         2.09167	2.00000e+00	
					         2.09333	2.00000e+00	
					         2.09500	2.00000e+00	
					         2.09667	2.00000e+00	
					         2.09833	2.00000e+00	
					         2.10000	2.00000e+00	
					         2.10167	2.00000e+00	
					         2.10333	2.00000e+00	
					         2.10500	2.00000e+00	
					         2.10667	1.00000e+00	
					         2.10833	1.00000e+00	
					         2.11000	0.00000e+00	
					         2.11167	-1.00000e+00	
					         2.11333	-2.00000e+00	
					         2.11500	-3.00000e+00	
					         2.11667	-5.00000e+00	
					         2.11833	-6.00000e+00	
					         2.12000	-8.00000e+00	
					         2.12167	-8.00000e+00	
					         2.12333	-9.00000e+00	
					         2.12500	-9.00000e+00	
					         2.12667	-9.00000e+00	
					         2.12833	-8.00000e+00	
					         2.13000	-6.00000e+00	
					         2.13167	-3.00000e+00	
					         2.13333	0.00000e+00	
					         2.13500	4.00000e+00	
					         2.13667	8.00000e+00	
					         2.13833	1.30000e+01	
					         2.14000	1.80000e+01	
					         2.14167	2.30000e+01	
					         2.14333	2.90000e+01	
					         2.14500	3.30000e+01	
					         2.14667	3.80000e+01	
					         2.14833	4.20000e+01	
					         2.15000	4.50000e+01	
					         2.15167	4.80000e+01	
					         2.15333	5.10000e+01	
					         2.15500	5.40000e+01	
					         2.15667	5.60000e+01	
					         2.15833	5.70000e+01	
					         2.16000	5.80000e+01	
					         2.16167	5.80000e+01	
					         2.16333	5.70000e+01	
					         2.16500	5.70000e+01	
					         2.16667	5.50000e+01	
					         2.16833	5.40000e+01	
					         2.17000	5.30000e+01	
					         2.17167	5.10000e+01	
					         2.17333	5.00000e+01	
					         2.17500	4.80000e+01	
					         2.17667	4.70000e+01	
					         2.17833	4.50000e+01	
					         2.18000	4.40000e+01	
					         2.18167	4.30000e+01	
					         2.18333	4.20000e+01	
					         2.18500	4.20000e+01	
					         2.18667	4.10000e+01	
					         2.18833	4.10000e+01	
					         2.19000	4.10000e+01	
					         2.19167	4.10000e+01	
					         2.19333	4.00000e+01	
					         2.19500	3.90000e+01	
					         2.19667	3.70000e+01	
					         2.19833	3.60000e+01	
					         2.20000	3.40000e+01	
					         2.20167	3.10000e+01	
					         2.20333	2.90000e+01	
					         2.20500	2.80000e+01	
					         2.20667	2.60000e+01	
					         2.20833	2.50000e+01	
					         2.21000	2.50000e+01	
					         2.21167	2.50000e+01	
					         2.21333	2.50000e+01	
					         2.21500	2.60000e+01	
					         2.21667	2.80000e+01	
					         2.21833	3.00000e+01	
					         2.22000	3.20000e+01	
					         2.22167	3.40000e+01	
					         2.22333	3.60000e+01	
					         2.22500	3.70000e+01	
					         2.22667	3.90000e+01	
					         2.22833	4.00000e+01	
					         2.23000	4.00000e+01	
					         2.23167	4.10000e+01	
					         2.23333	4.10000e+01	
					         2.23500	4.00000e+01	
					         2.23667	4.00000e+01	
					         2.23833	3.90000e+01	
					         2.24000	3.90000e+01	
					         2.24167	3.80000e+01	
					         2.24333	3.70000e+01	
					         2.24500	3.50000e+01	
					         2.24667	3.40000e+01	
					         2.24833	3.10000e+01	
					         2.25000	2.90000e+01	
					         2.25167	2.70000e+01	
					         2.25333	2.40000e+01	
					         2.25500	2.20000e+01	
					         2.25667	1.90000e+01	
					         2.25833	1.60000e+01	
					         2.26000	1.40000e+01	
					         2.26167	1.10000e+01	
					         2.26333	8.00000e+00	
					         2.26500	5.00000e+00	
					         2.26667	3.00000e+00	
					         2.26833	0.00000e+00	
					         2.27000	-2.00000e+00	
					         2.27167	-4.00000e+00	
					         2.27333	-5.00000e+00	
					         2.27500	-6.00000e+00	
					         2.27667	-7.00000e+00	
					         2.27833	-7.00000e+00	
					         2.28000	-7.00000e+00	
					         2.28167	-6.00000e+00	
					         2.28333	-5.00000e+00	
					         2.28500	-4.00000e+00	
					         2.28667	-2.00000e+00	
					         2.28833	0.00000e+00	
					         2.29000	1.00000e+00	
					         2.29167	2.00000e+00	
					         2.29333	2.00000e+00	
					         2.29500	2.00000e+00	
					         2.29667	1.00000e+00	
					         2.29833	0.00000e+00	
					         2.30000	-1.00000e+00	
					         2.30167	-1.00000e+00	
					         2.30333	-2.00000e+00	
					         2.30500	-3.00000e+00	
					         2.30667	-3.00000e+00	
					         2.30833	-3.00000e+00	
					         2.31000	-3.00000e+00	
					         2.31167	-1.00000e+00	
					         2.31333	0.00000e+00	
					         2.31500	2.00000e+00	
					         2.31667	5.00000e+00	
					         2.31833	7.00000e+00	
					         2.32000	9.00000e+00	
					         2.32167	1.10000e+01	
					         2.32333	1.20000e+01	
					         2.32500	1.30000e+01	
					         2.32667	1.40000e+01	
					         2.32833	1.40000e+01	
					         2.33000	1.60000e+01	
					         2.33167	1.80000e+01	
					         2.33333	2.10000e+01	
					         2.33500	2.50000e+01	
					         2.33667	3.10000e+01	
					         2.33833	3.90000e+01	
					         2.34000	4.80000e+01	
					         2.34167	6.10000e+01	
					         2.34333	7.60000e+01	
					         2.34500	9.40000e+01	
					         2.34667	1.14000e+02	
					         2.34833	1.37000e+02	
					         2.35000	1.61000e+02	
					         2.35167	1.85000e+02	
					         2.35333	2.09000e+02	
					         2.35500	2.30000e+02	
					         2.35667	2.49000e+02	
					         2.35833	2.62000e+02	
					         2.36000	2.70000e+02	
					         2.36167	2.71000e+02	
					         2.36333	2.65000e+02	
					         2.36500	2.51000e+02	
					         2.36667	2.32000e+02	
					         2.36833	2.07000e+02	
					         2.37000	1.77000e+02	
					         2.37167	1.44000e+02	
					         2.37333	1.09000e+02	
					         2.37500	7.40000e+01	
					         2.37667	4.00000e+01	
					         2.37833	9.00000e+00	
					         2.38000	-1.80000e+01	
					         2.38167	-4.00000e+01	
					         2.38333	-5.80000e+01	
					         2.38500	-7.00000e+01	
					         2.38667	-7.80000e+01	
					         2.38833	-8.20000e+01	
					         2.39000	-8.40000e+01	
					         2.39167	-8.30000e+01	
					         2.39333	-8.10000e+01	
					         2.39500	-7.80000e+01	
					         2.39667	-7.30000e+01	
					         2.39833	-6.90000e+01	
					         2.40000	-6.40000e+01	
					         2.40167	-5.90000e+01	
					         2.40333	-5.60000e+01	
					         2.40500	-5.30000e+01	
					         2.40667	-5.10000e+01	
					         2.40833	-5.00000e+01	
					         2.41000	-4.90000e+01	
					         2.41167	-4.80000e+01	
					         2.41333	-4.80000e+01	
					         2.41500	-4.80000e+01	
					         2.41667	-4.80000e+01	
					         2.41833	-4.90000e+01	
					         2.42000	-4.90000e+01	
					         2.42167	-5.00000e+01	
					         2.42333	-5.10000e+01	
					         2.42500	-5.10000e+01	
					         2.42667	-5.20000e+01	
					         2.42833	-5.20000e+01	
					         2.43000	-5.20000e+01	
					         2.43167	-5.10000e+01	
					         2.43333	-5.10000e+01	
					         2.43500	-5.00000e+01	
					         2.43667	-5.00000e+01	
					         2.43833	-4.90000e+01	
					         2.44000	-4.80000e+01	
					         2.44167	-4.70000e+01	
					         2.44333	-4.60000e+01	
					         2.44500	-4.50000e+01	
					         2.44667	-4.30000e+01	
					         2.44833	-4.20000e+01	
					         2.45000	-4.10000e+01	
					         2.45167	-3.90000e+01	
					         2.45333	-3.90000e+01	
					         2.45500	-3.80000e+01	
					         2.45667	-3.70000e+01	
					         2.45833	-3.70000e+01	
					         2.46000	-3.60000e+01	
					         2.46167	-3.40000e+01	
					         2.46333	-3.30000e+01	
					         2.46500	-3.20000e+01	
					         2.46667	-3.10000e+01	
					         2.46833	-2.90000e+01	
					         2.47000	-2.70000e+01	
					         2.47167	-2.50000e+01	
					         2.47333	-2.20000e+01	
					         2.47500	-1.90000e+01	
					         2.47667	-1.60000e+01	
					         2.47833	-1.40000e+01	
					         2.48000	-1.10000e+01	
					         2.48167	-1.00000e+01	
					         2.48333	-9.00000e+00	
					         2.48500	-9.00000e+00	
					         2.48667	-9.00000e+00	
					         2.48833	-1.00000e+01	
					         2.49000	-1.10000e+01	
					         2.49167	-1.20000e+01	
					         2.49333	-1.30000e+01	
					         2.49500	-1.30000e+01	
					         2.49667	-1.40000e+01	
					         2.49833	-1.40000e+01	
					         2.50000	-1.40000e+01	
					         2.50167	-1.30000e+01	
					         2.50333	-1.20000e+01	
					         2.50500	-1.10000e+01	
					         2.50667	-1.00000e+01	
					         2.50833	-9.00000e+00	
					         2.51000	-8.00000e+00	
					         2.51167	-7.00000e+00	
					         2.51333	-7.00000e+00	
					         2.51500	-6.00000e+00	
					         2.51667	-5.00000e+00	
					         2.51833	-5.00000e+00	
					         2.52000	-5.00000e+00	
					         2.52167	-5.00000e+00	
					         2.52333	-5.00000e+00	
					         2.52500	-5.00000e+00	
					         2.52667	-5.00000e+00	
					         2.52833	-4.00000e+00	
					         2.53000	-3.00000e+00	
					         2.53167	-2.00000e+00	
					         2.53333	-1.00000e+00	
					         2.53500	0.00000e+00	
					         2.53667	1.00000e+00	
					         2.53833	3.00000e+00	
					         2.54000	4.00000e+00	
					         2.54167	5.00000e+00	
					         2.54333	7.00000e+00	
					         2.54500	8.00000e+00	
					         2.54667	9.00000e+00	
					         2.54833	1.00000e+01	
					         2.55000	1.20000e+01	
					         2.55167	1.30000e+01	
					         2.55333	1.40000e+01	
					         2.55500	1.50000e+01	
					         2.55667	1.60000e+01	
					         2.55833	1.60000e+01	
					         2.56000	1.70000e+01	
					         2.56167	1.70000e+01	
					         2.56333	1.70000e+01	
					         2.56500	1.80000e+01	
					         2.56667	1.80000e+01	
					         2.56833	1.80000e+01	
					         2.57000	1.80000e+01	
					         2.57167	1.70000e+01	
					         2.57333	1.70000e+01	
					         2.57500	1.70000e+01	
					         2.57667	1.80000e+01	
					         2.57833	1.90000e+01	
					         2.58000	2.00000e+01	
					         2.58167	2.10000e+01	
					         2.58333	2.20000e+01	
					         2.58500	2.30000e+01	
					         2.58667	2.50000e+01	
					         2.58833	2.70000e+01	
					         2.59000	2.90000e+01	
					         2.59167	3.20000e+01	
					         2.59333	3.50000e+01	
					         2.59500	3.80000e+01	
					         2.59667	4.00000e+01	
					         2.59833	4.30000e+01	
					         2.60000	4.60000e+01	
					         2.60167	4.90000e+01	
					         2.60333	5.20000e+01	
					         2.60500	5.50000e+01	
					         2.60667	5.80000e+01	
					         2.60833	6.10000e+01	
					         2.61000	6.40000e+01	
					         2.61167	6.70000e+01	
					         2.61333	6.90000e+01	
					         2.61500	7.20000e+01	
					         2.61667	7.40000e+01	
					         2.61833	7.70000e+01	
					         2.62000	7.90000e+01	
					         2.62167	8.10000e+01	
					         2.62333	8.20000e+01	
					         2.62500	8.30000e+01	
					         2.62667	8.40000e+01	
					         2.62833	8.40000e+01	
					         2.63000	8.40000e+01	
					         2.63167	8.40000e+01	
					         2.63333	8.40000e+01	
					         2.63500	8.40000e+01	
					         2.63667	8.40000e+01	
					         2.63833	8.30000e+01	
					         2.64000	8.30000e+01	
					         2.64167	8.30000e+01	
					         2.64333	8.20000e+01	
					         2.64500	8.20000e+01	
					         2.64667	8.10000e+01	
					         2.64833	8.00000e+01	
					         2.65000	7.90000e+01	
					         2.65167	7.70000e+01	
					         2.65333	7.60000e+01	
					         2.65500	7.40000e+01	
					         2.65667	7.20000e+01	
					         2.65833	7.00000e+01	
					         2.66000	6.90000e+01	
					         2.66167	6.70000e+01	
					         2.66333	6.50000e+01	
					         2.66500	6.40000e+01	
					         2.66667	6.20000e+01	
					         2.66833	6.10000e+01	
					         2.67000	5.90000e+01	
					         2.67167	5.70000e+01	
					         2.67333	5.40000e+01	
					         2.67500	5.10000e+01	
					         2.67667	4.70000e+01	
					         2.67833	4.30000e+01	
					         2.68000	3.90000e+01	
					         2.68167	3.40000e+01	
					         2.68333	3.00000e+01	
					         2.68500	2.50000e+01	
					         2.68667	1.90000e+01	
					         2.68833	1.40000e+01	
					         2.69000	8.00000e+00	
					         2.69167	3.00000e+00	
					         2.69333	-2.00000e+00	
					         2.69500	-7.00000e+00	
					         2.69667	-1.20000e+01	
					         2.69833	-1.60000e+01	
					         2.70000	-2.10000e+01	
					         2.70167	-2.60000e+01	
					         2.70333	-3.10000e+01	
					         2.70500	-3.50000e+01	
					         2.70667	-4.00000e+01	
					         2.70833	-4.30000e+01	
					         2.71000	-4.70000e+01	
					         2.71167	-5.10000e+01	
					         2.71333	-5.40000e+01	
					         2.71500	-5.70000e+01	
					         2.71667	-6.00000e+01	
					         2.71833	-6.30000e+01	
					         2.72000	-6.50000e+01	
					         2.72167	-6.70000e+01	
					         2.72333	-6.90000e+01	
					         2.72500	-7.10000e+01	
					         2.72667	-7.20000e+01	
					         2.72833	-7.30000e+01	
					         2.73000	-7.40000e+01	
					         2.73167	-7.50000e+01	
					         2.73333	-7.50000e+01	
					         2.73500	-7.50000e+01	
					         2.73667	-7.40000e+01	
					         2.73833	-7.40000e+01	
					         2.74000	-7.30000e+01	
					         2.74167	-7.30000e+01	
					         2.74333	-7.20000e+01	
					         2.74500	-7.10000e+01	
					         2.74667	-7.10000e+01	
					         2.74833	-7.00000e+01	
					         2.75000	-6.90000e+01	
					         2.75167	-6.80000e+01	
					         2.75333	-6.70000e+01	
					         2.75500	-6.60000e+01	
					         2.75667	-6.40000e+01	
					         2.75833	-6.20000e+01	
					         2.76000	-6.00000e+01	
					         2.76167	-5.80000e+01	
					         2.76333	-5.70000e+01	
					         2.76500	-5.50000e+01	
					         2.76667	-5.30000e+01	
					         2.76833	-5.10000e+01	
					         2.77000	-4.90000e+01	
					         2.77167	-4.80000e+01	
					         2.77333	-4.60000e+01	
					         2.77500	-4.60000e+01	
					         2.77667	-4.50000e+01	
					         2.77833	-4.50000e+01	
					         2.78000	-4.50000e+01	
					         2.78167	-4.50000e+01	
					         2.78333	-4.60000e+01	
					         2.78500	-4.60000e+01	
					         2.78667	-4.50000e+01	
					         2.78833	-4.50000e+01	
					         2.79000	-4.50000e+01	
					         2.79167	-4.50000e+01	
					         2.79333	-4.40000e+01	
					         2.79500	-4.40000e+01	
					         2.79667	-4.30000e+01	
					         2.79833	-4.30000e+01	
					         2.80000	-4.20000e+01	
					         2.80167	-4.10000e+01	
					         2.80333	-4.00000e+01	
					         2.80500	-3.90000e+01	
					         2.80667	-3.80000e+01	
					         2.80833	-3.70000e+01	
					         2.81000	-3.60000e+01	
					         2.81167	-3.50000e+01	
					         2.81333	-3.50000e+01	
					         2.81500	-3.40000e+01	
					         2.81667	-3.30000e+01	
					         2.81833	-3.10000e+01	
					         2.82000	-2.90000e+01	
					         2.82167	-2.70000e+01	
					         2.82333	-2.60000e+01	
					         2.82500	-2.40000e+01	
					         2.82667	-2.20000e+01	
					         2.82833	-2.00000e+01	
					         2.83000	-1.90000e+01	
					         2.83167	-1.70000e+01	
					         2.83333	-1.50000e+01	
					         2.83500	-1.40000e+01	
					         2.83667	-1.30000e+01	
					         2.83833	-1.20000e+01	
					         2.84000	-1.20000e+01	
					         2.84167	-1.20000e+01	
					         2.84333	-1.20000e+01	
					         2.84500	-1.20000e+01	
					         2.84667	-1.30000e+01	
					         2.84833	-1.40000e+01	
					         2.85000	-1.50000e+01	
					         2.85167	-1.60000e+01	
					         2.85333	-1.60000e+01	
					         2.85500	-1.60000e+01	
					         2.85667	-1.60000e+01	
					         2.85833	-1.50000e+01	
					         2.86000	-1.50000e+01	
					         2.86167	-1.40000e+01	
					         2.86333	-1.20000e+01	
					         2.86500	-1.10000e+01	
					         2.86667	-9.00000e+00	
					         2.86833	-8.00000e+00	
					         2.87000	-6.00000e+00	
					         2.87167	-5.00000e+00	
					         2.87333	-5.00000e+00	
					         2.87500	-5.00000e+00	
					         2.87667	-6.00000e+00	
					         2.87833	-7.00000e+00	
					         2.88000	-8.00000e+00	
					         2.88167	-1.00000e+01	
					         2.88333	-1.20000e+01	
					         2.88500	-1.40000e+01	
					         2.88667	-1.50000e+01	
					         2.88833	-1.60000e+01	
					         2.89000	-1.70000e+01	
					         2.89167	-1.70000e+01	
					         2.89333	-1.60000e+01	
					         2.89500	-1.50000e+01	
					         2.89667	-1.40000e+01	
					         2.89833	-1.10000e+01	
					         2.90000	-9.00000e+00	
					         2.90167	-6.00000e+00	
					         2.90333	-3.00000e+00	
					         2.90500	-1.00000e+00	
					         2.90667	2.00000e+00	
					         2.90833	3.00000e+00	
					         2.91000	4.00000e+00	
					         2.91167	5.00000e+00	
					         2.91333	5.00000e+00	
					         2.91500	4.00000e+00	
					         2.91667	3.00000e+00	
					         2.91833	1.00000e+00	
					         2.92000	0.00000e+00	
					         2.92167	-2.00000e+00	
					         2.92333	-4.00000e+00	
					         2.92500	-6.00000e+00	
					         2.92667	-7.00000e+00	
					         2.92833	-8.00000e+00	
					         2.93000	-8.00000e+00	
					         2.93167	-7.00000e+00	
					         2.93333	-7.00000e+00	
					         2.93500	-5.00000e+00	
					         2.93667	-4.00000e+00	
					         2.93833	-2.00000e+00	
					         2.94000	-1.00000e+00	
					         2.94167	0.00000e+00	
					         2.94333	1.00000e+00	
					         2.94500	1.00000e+00	
					         2.94667	1.00000e+00	
					         2.94833	1.00000e+00	
					         2.95000	0.00000e+00	
					         2.95167	-1.00000e+00	
					         2.95333	-2.00000e+00	
					         2.95500	-4.00000e+00	
					         2.95667	-5.00000e+00	
					         2.95833	-7.00000e+00	
					         2.96000	-8.00000e+00	
					         2.96167	-8.00000e+00	
					         2.96333	-8.00000e+00	
					         2.96500	-8.00000e+00	
					         2.96667	-8.00000e+00	
					         2.96833	-7.00000e+00	
					         2.97000	-7.00000e+00	
					         2.97167	-7.00000e+00	
					         2.97333	-8.00000e+00	
					         2.97500	-8.00000e+00	
					         2.97667	-9.00000e+00	
					         2.97833	-1.00000e+01	
					         2.98000	-1.10000e+01	
					         2.98167	-1.20000e+01	
					         2.98333	-1.30000e+01	
					         2.98500	-1.40000e+01	
					         2.98667	-1.40000e+01	
					         2.98833	-1.40000e+01	
					         2.99000	-1.40000e+01	
					         2.99167	-1.30000e+01	
					         2.99333	-1.30000e+01	
					         2.99500	-1.20000e+01	
					         2.99667	-1.10000e+01	
					         2.99833	-1.00000e+01	
					         3.00000	-9.00000e+00	
					         3.00167	-9.00000e+00	
					         3.00333	-8.00000e+00	
					         3.00500	-7.00000e+00	
					         3.00667	-6.00000e+00	
					         3.00833	-5.00000e+00	
					         3.01000	-3.00000e+00	
					         3.01167	-2.00000e+00	
					         3.01333	-1.00000e+00	
					         3.01500	0.00000e+00	
					         3.01667	1.00000e+00	
					         3.01833	2.00000e+00	
					         3.02000	2.00000e+00	
					         3.02167	1.00000e+00	
					         3.02333	0.00000e+00	
					         3.02500	-1.00000e+00	
					         3.02667	-3.00000e+00	
					         3.02833	-5.00000e+00	
					         3.03000	-7.00000e+00	
					         3.03167	-9.00000e+00	
					         3.03333	-1.10000e+01	
					         3.03500	-1.20000e+01	
					         3.03667	-1.30000e+01	
					         3.03833	-1.30000e+01	
					         3.04000	-1.30000e+01	
					         3.04167	-1.20000e+01	
					         3.04333	-1.00000e+01	
					         3.04500	-9.00000e+00	
					         3.04667	-7.00000e+00	
					         3.04833	-5.00000e+00	
					         3.05000	-3.00000e+00	
					         3.05167	-1.00000e+00	
					         3.05333	0.00000e+00	
					         3.05500	1.00000e+00	
					         3.05667	2.00000e+00	
					         3.05833	2.00000e+00	
					         3.06000	2.00000e+00	
					         3.06167	2.00000e+00	
					         3.06333	1.00000e+00	
					         3.06500	0.00000e+00	
					         3.06667	-1.00000e+00	
					         3.06833	-2.00000e+00	
					         3.07000	-4.00000e+00	
					         3.07167	-5.00000e+00	
					         3.07333	-6.00000e+00	
					         3.07500	-7.00000e+00	
					         3.07667	-8.00000e+00	
					         3.07833	-8.00000e+00	
					         3.08000	-8.00000e+00	
					         3.08167	-8.00000e+00	
					         3.08333	-7.00000e+00	
					         3.08500	-6.00000e+00	
					         3.08667	-6.00000e+00	
					         3.08833	-5.00000e+00	
					         3.09000	-4.00000e+00	
					         3.09167	-3.00000e+00	
					         3.09333	-3.00000e+00	
					         3.09500	-2.00000e+00	
					         3.09667	-2.00000e+00	
					         3.09833	-2.00000e+00	
					         3.10000	-2.00000e+00	
					         3.10167	-3.00000e+00	
					         3.10333	-3.00000e+00	
					         3.10500	-4.00000e+00	
					         3.10667	-5.00000e+00	
					         3.10833	-5.00000e+00	
					         3.11000	-6.00000e+00	
					         3.11167	-6.00000e+00	
					         3.11333	-7.00000e+00	
					         3.11500	-7.00000e+00	
					         3.11667	-7.00000e+00	
					         3.11833	-8.00000e+00	
					         3.12000	-8.00000e+00	
					         3.12167	-8.00000e+00	
					         3.12333	-9.00000e+00	
					         3.12500	-9.00000e+00	
					         3.12667	-9.00000e+00	
					         3.12833	-9.00000e+00	
					         3.13000	-8.00000e+00	
					         3.13167	-7.00000e+00	
					         3.13333	-6.00000e+00	
					         3.13500	-4.00000e+00	
					         3.13667	-3.00000e+00	
					         3.13833	-1.00000e+00	
					         3.14000	0.00000e+00	
					         3.14167	2.00000e+00	
					         3.14333	3.00000e+00	
					         3.14500	4.00000e+00	
					         3.14667	5.00000e+00	
					         3.14833	6.00000e+00	
					         3.15000	6.00000e+00	
					         3.15167	5.00000e+00	
					         3.15333	4.00000e+00	
					         3.15500	3.00000e+00	
					         3.15667	2.00000e+00	
					         3.15833	0.00000e+00	
					         3.16000	-1.00000e+00	
					         3.16167	-1.00000e+00	
					         3.16333	-2.00000e+00	
					         3.16500	-3.00000e+00	
					         3.16667	-3.00000e+00	
					         3.16833	-3.00000e+00	
					         3.17000	-2.00000e+00	
					         3.17167	-2.00000e+00	
					         3.17333	-1.00000e+00	
					         3.17500	0.00000e+00	
					         3.17667	0.00000e+00	
					         3.17833	1.00000e+00	
					         3.18000	1.00000e+00	
					         3.18167	1.00000e+00	
					         3.18333	0.00000e+00	
					         3.18500	-1.00000e+00	
					         3.18667	-3.00000e+00	
					         3.18833	-5.00000e+00	
					         3.19000	-9.00000e+00	
					         3.19167	-1.30000e+01	
					         3.19333	-1.80000e+01	
					         3.19500	-2.40000e+01	
					         3.19667	-2.90000e+01	
					         3.19833	-3.50000e+01	
					         3.20000	-4.10000e+01	
					         3.20167	-4.60000e+01	
					         3.20333	-5.10000e+01	
					         3.20500	-5.60000e+01	
					         3.20667	-6.00000e+01	
					         3.20833	-6.30000e+01	
					         3.21000	-6.60000e+01	
					         3.21167	-6.80000e+01	
					         3.21333	-6.90000e+01	
					         3.21500	-7.00000e+01	
					         3.21667	-7.00000e+01	
					         3.21833	-7.00000e+01	
					         3.22000	-7.00000e+01	
					         3.22167	-6.90000e+01	
					         3.22333	-6.80000e+01	
					         3.22500	-6.70000e+01	
					         3.22667	-6.60000e+01	
					         3.22833	-6.50000e+01	
					         3.23000	-6.30000e+01	
					         3.23167	-6.10000e+01	
					         3.23333	-5.80000e+01	
					         3.23500	-5.60000e+01	
					         3.23667	-5.40000e+01	
					         3.23833	-5.10000e+01	
					         3.24000	-4.90000e+01	
					         3.24167	-4.80000e+01	
					         3.24333	-4.60000e+01	
					         3.24500	-4.50000e+01	
					         3.24667	-4.30000e+01	
					         3.24833	-4.20000e+01	
					         3.25000	-4.00000e+01	
					         3.25167	-3.80000e+01	
					         3.25333	-3.60000e+01	
					         3.25500	-3.40000e+01	
					         3.25667	-3.20000e+01	
					         3.25833	-3.10000e+01	
					         3.26000	-3.00000e+01	
					         3.26167	-2.90000e+01	
					         3.26333	-2.80000e+01	
					         3.26500	-2.80000e+01	
					         3.26667	-2.70000e+01	
					         3.26833	-2.80000e+01	
					         3.27000	-2.80000e+01	
					         3.27167	-2.90000e+01	
					         3.27333	-3.10000e+01	
					         3.27500	-3.20000e+01	
					         3.27667	-3.40000e+01	
					         3.27833	-3.40000e+01	
					         3.28000	-3.50000e+01	
					         3.28167	-3.40000e+01	
					         3.28333	-3.30000e+01	
					         3.28500	-3.10000e+01	
					         3.28667	-3.00000e+01	
					         3.28833	-2.80000e+01	
					         3.29000	-2.60000e+01	
					         3.29167	-2.40000e+01	
					         3.29333	-2.10000e+01	
					         3.29500	-1.90000e+01	
					         3.29667	-1.70000e+01	
					         3.29833	-1.60000e+01	
					         3.30000	-1.40000e+01	
					         3.30167	-1.40000e+01	
					         3.30333	-1.30000e+01	
					         3.30500	-1.30000e+01	
					         3.30667	-1.30000e+01	
					         3.30833	-1.20000e+01	
					         3.31000	-1.30000e+01	
					         3.31167	-1.30000e+01	
					         3.31333	-1.40000e+01	
					         3.31500	-1.40000e+01	
					         3.31667	-1.50000e+01	
					         3.31833	-1.50000e+01	
					         3.32000	-1.50000e+01	
					         3.32167	-1.50000e+01	
					         3.32333	-1.50000e+01	
					         3.32500	-1.50000e+01	
					         3.32667	-1.50000e+01	
					         3.32833	-1.40000e+01	
					         3.33000	-1.30000e+01	
					         3.33167	-1.10000e+01	
					         3.33333	-1.00000e+01	
					         3.33500	-8.00000e+00	
					         3.33667	-7.00000e+00	
					         3.33833	-6.00000e+00	
					         3.34000	-5.00000e+00	
					         3.34167	-4.00000e+00	
					         3.34333	-2.00000e+00	
					         3.34500	-1.00000e+00	
					         3.34667	0.00000e+00	
					         3.34833	0.00000e+00	
					         3.35000	0.00000e+00	
					         3.35167	0.00000e+00	
					         3.35333	-1.00000e+00	
					         3.35500	-1.00000e+00	
					         3.35667	-2.00000e+00	
					         3.35833	-2.00000e+00	
					         3.36000	-2.00000e+00	
					         3.36167	-1.00000e+00	
					         3.36333	-1.00000e+00	
					         3.36500	-1.00000e+00	
					         3.36667	-1.00000e+00	
					         3.36833	0.00000e+00	
					         3.37000	0.00000e+00	
					         3.37167	0.00000e+00	
					         3.37333	0.00000e+00	
					         3.37500	1.00000e+00	
					         3.37667	1.00000e+00	
					         3.37833	1.00000e+00	
					         3.38000	1.00000e+00	
					         3.38167	1.00000e+00	
					         3.38333	1.00000e+00	
					         3.38500	2.00000e+00	
					         3.38667	2.00000e+00	
					         3.38833	4.00000e+00	
					         3.39000	5.00000e+00	
					         3.39167	7.00000e+00	
					         3.39333	8.00000e+00	
					         3.39500	1.00000e+01	
					         3.39667	1.20000e+01	
					         3.39833	1.30000e+01	
					         3.40000	1.40000e+01	
					         3.40167	1.50000e+01	
					         3.40333	1.50000e+01	
					         3.40500	1.40000e+01	
					         3.40667	1.30000e+01	
					         3.40833	1.20000e+01	
					         3.41000	1.00000e+01	
					         3.41167	8.00000e+00	
					         3.41333	6.00000e+00	
					         3.41500	4.00000e+00	
					         3.41667	1.00000e+00	
					         3.41833	-1.00000e+00	
					         3.42000	-4.00000e+00	
					         3.42167	-6.00000e+00	
					         3.42333	-7.00000e+00	
					         3.42500	-8.00000e+00	
					         3.42667	-8.00000e+00	
					         3.42833	-7.00000e+00	
					         3.43000	-6.00000e+00	
					         3.43167	-5.00000e+00	
					         3.43333	-5.00000e+00	
					         3.43500	-4.00000e+00	
					         3.43667	-3.00000e+00	
					         3.43833	-3.00000e+00	
					         3.44000	-3.00000e+00	
					         3.44167	-3.00000e+00	
					         3.44333	-3.00000e+00	
					         3.44500	-5.00000e+00	
					         3.44667	-6.00000e+00	
					         3.44833	-8.00000e+00	
					         3.45000	-9.00000e+00	
					         3.45167	-1.00000e+01	
					         3.45333	-1.10000e+01	
					         3.45500	-1.20000e+01	
					         3.45667	-1.20000e+01	
					         3.45833	-1.20000e+01	
					         3.46000	-1.20000e+01	
					         3.46167	-1.10000e+01	
					         3.46333	-1.00000e+01	
					         3.46500	-9.00000e+00	
					         3.46667	-8.00000e+00	
					         3.46833	-7.00000e+00	
					         3.47000	-7.00000e+00	
					         3.47167	-6.00000e+00	
					         3.47333	-5.00000e+00	
					         3.47500	-4.00000e+00	
					         3.47667	-2.00000e+00	
					         3.47833	-1.00000e+00	
					         3.48000	1.00000e+00	
					         3.48167	2.00000e+00	
					         3.48333	3.00000e+00	
					         3.48500	4.00000e+00	
					         3.48667	4.00000e+00	
					         3.48833	4.00000e+00	
					         3.49000	5.00000e+00	
					         3.49167	6.00000e+00	
					         3.49333	7.00000e+00	
					         3.49500	9.00000e+00	
					         3.49667	1.10000e+01	
					         3.49833	1.50000e+01	
					         3.50000	2.00000e+01	
					         3.50167	2.70000e+01	
					         3.50333	3.70000e+01	
					         3.50500	4.90000e+01	
					         3.50667	6.40000e+01	
					         3.50833	8.20000e+01	
					         3.51000	1.03000e+02	
					         3.51167	1.25000e+02	
					         3.51333	1.49000e+02	
					         3.51500	1.73000e+02	
					         3.51667	1.97000e+02	
					         3.51833	2.19000e+02	
					         3.52000	2.38000e+02	
					         3.52167	2.52000e+02	
					         3.52333	2.61000e+02	
					         3.52500	2.63000e+02	
					         3.52667	2.59000e+02	
					         3.52833	2.47000e+02	
					         3.53000	2.29000e+02	
					         3.53167	2.05000e+02	
					         3.53333	1.77000e+02	
					         3.53500	1.46000e+02	
					         3.53667	1.13000e+02	
					         3.53833	8.00000e+01	
					         3.54000	4.80000e+01	
					         3.54167	1.90000e+01	
					         3.54333	-7.00000e+00	
					         3.54500	-2.90000e+01	
					         3.54667	-4.60000e+01	
					         3.54833	-5.90000e+01	
					         3.55000	-6.80000e+01	
					         3.55167	-7.30000e+01	
					         3.55333	-7.50000e+01	
					         3.55500	-7.40000e+01	
