Velocity (TVI), in cm/s

Time (s) :	Trace 1 : 		Ecg : 		
0.01909   	1.51180e+00		         0.00000	1.10000e+01	
0.02577   	1.69320e+00		         0.00167	1.00000e+01	
0.03308   	1.87054e+00		         0.00333	9.00000e+00	
0.03939   	2.25689e+00		         0.00500	8.00000e+00	
0.04607   	2.59357e+00		         0.00667	7.00000e+00	
0.05274   	2.40759e+00		         0.00833	7.00000e+00	
0.05969   	2.04010e+00		         0.01000	7.00000e+00	
0.06636   	1.67737e+00		         0.01167	9.00000e+00	
0.07305   	1.19130e+00		         0.01333	1.30000e+01	
0.07972   	7.06077e-01		         0.01500	1.90000e+01	
0.08667   	8.67280e-01		         0.01667	2.80000e+01	
0.09334   	1.24349e+00		         0.01833	4.10000e+01	
0.10002   	1.73505e+00		         0.02000	5.70000e+01	
0.10670   	2.45689e+00		         0.02167	7.60000e+01	
0.11365   	3.30298e+00		         0.02333	9.90000e+01	
0.12033   	4.00154e+00		         0.02500	1.23000e+02	
0.12700   	4.66729e+00		         0.02667	1.49000e+02	
0.13368   	5.15099e+00		         0.02833	1.75000e+02	
0.14063   	5.46726e+00		         0.03000	2.00000e+02	
0.14730   	5.62098e+00		         0.03167	2.25000e+02	
0.15398   	5.71452e+00		         0.03333	2.47000e+02	
0.16066   	5.74510e+00		         0.03500	2.67000e+02	
0.16760   	5.74344e+00		         0.03667	2.82000e+02	
0.17428   	5.69688e+00		         0.03833	2.93000e+02	
0.18096   	5.65643e+00		         0.04000	2.99000e+02	
0.18764   	5.58907e+00		         0.04167	3.01000e+02	
0.19458   	5.50650e+00		         0.04333	2.97000e+02	
0.20126   	5.40988e+00		         0.04500	2.90000e+02	
0.20794   	5.28181e+00		         0.04667	2.78000e+02	
0.21461   	5.16789e+00		         0.04833	2.63000e+02	
0.22156   	5.07097e+00		         0.05000	2.46000e+02	
0.22824   	4.98467e+00		         0.05167	2.26000e+02	
0.23491   	4.91853e+00		         0.05333	2.04000e+02	
0.24159   	4.87711e+00		         0.05500	1.82000e+02	
0.24854   	4.84862e+00		         0.05667	1.58000e+02	
0.25521   	4.78952e+00		         0.05833	1.34000e+02	
0.26189   	4.70119e+00		         0.06000	1.10000e+02	
0.26857   	4.59980e+00		         0.06167	8.70000e+01	
0.27552   	4.48251e+00		         0.06333	6.40000e+01	
0.28249   	4.31317e+00		         0.06500	4.20000e+01	
0.28887   	4.19421e+00		         0.06667	2.10000e+01	
0.29555   	4.01125e+00		         0.06833	2.00000e+00	
0.30249   	3.83579e+00		         0.07000	-1.60000e+01	
0.30917   	3.65014e+00		         0.07167	-3.20000e+01	
0.31585   	3.50109e+00		         0.07333	-4.60000e+01	
0.32253   	3.30110e+00		         0.07500	-5.90000e+01	
0.32947   	3.14020e+00		         0.07667	-7.00000e+01	
0.33615   	2.99653e+00		         0.07833	-8.00000e+01	
0.34283   	2.83767e+00		         0.08000	-8.80000e+01	
0.34950   	2.69598e+00		         0.08167	-9.40000e+01	
0.35645   	2.51466e+00		         0.08333	-9.90000e+01	
0.36313   	2.33207e+00		         0.08500	-1.03000e+02	
0.36980   	2.08345e+00		         0.08667	-1.06000e+02	
0.37648   	1.83553e+00		         0.08833	-1.07000e+02	
0.38343   	1.54319e+00		         0.09000	-1.08000e+02	
0.39011   	1.08447e+00		         0.09167	-1.07000e+02	
0.39678   	6.06447e-01		         0.09333	-1.06000e+02	
0.40346   	-3.75000e-02		         0.09500	-1.05000e+02	
0.41041   	-4.80084e-01		         0.09667	-1.03000e+02	
0.41708   	-6.53239e-01		         0.09833	-1.01000e+02	
0.42376   	-4.59261e-01		         0.10000	-1.00000e+02	
0.43044   	-2.86389e-01		         0.10167	-9.80000e+01	
0.43738   	1.92196e-02		         0.10333	-9.60000e+01	
0.44406   	1.46974e-01		         0.10500	-9.40000e+01	
0.45073   	1.01959e-01		         0.10667	-9.20000e+01	
0.45742   	1.94103e-02		         0.10833	-9.10000e+01	
0.46436   	4.39213e-02		         0.11000	-8.90000e+01	
0.47104   	1.68780e-01		         0.11167	-8.80000e+01	
0.47772   	2.92775e-01		         0.11333	-8.60000e+01	
0.48439   	1.46518e-01		         0.11500	-8.50000e+01	
0.49134   	-1.33519e-01		         0.11667	-8.40000e+01	
0.49834   	-6.12613e-01		         0.11833	-8.30000e+01	
0.50469   	-1.21938e+00		         0.12000	-8.20000e+01	
0.51137   	-1.84737e+00		         0.12167	-8.00000e+01	
0.51832   	-2.48953e+00		         0.12333	-7.90000e+01	
0.52499   	-3.21989e+00		         0.12500	-7.80000e+01	
0.53167   	-3.79427e+00		         0.12667	-7.70000e+01	
0.53835   	-4.24776e+00		         0.12833	-7.60000e+01	
0.54530   	-4.66088e+00		         0.13000	-7.50000e+01	
0.55198   	-4.83940e+00		         0.13167	-7.30000e+01	
0.55865   	-4.98805e+00		         0.13333	-7.20000e+01	
0.56533   	-5.12877e+00		         0.13500	-7.10000e+01	
0.57228   	-5.29523e+00		         0.13667	-7.00000e+01	
0.57895   	-5.44399e+00		         0.13833	-6.90000e+01	
0.58563   	-5.56568e+00		         0.14000	-6.70000e+01	
0.59231   	-5.63863e+00		         0.14167	-6.60000e+01	
0.59925   	-5.54622e+00		         0.14333	-6.50000e+01	
0.60593   	-5.35806e+00		         0.14500	-6.40000e+01	
0.61261   	-5.08089e+00		         0.14667	-6.30000e+01	
0.61928   	-4.74417e+00		         0.14833	-6.20000e+01	
0.62623   	-4.25252e+00		         0.15000	-6.10000e+01	
0.63291   	-3.80313e+00		         0.15167	-6.10000e+01	
0.63959   	-3.29088e+00		         0.15333	-6.00000e+01	
0.64626   	-2.78103e+00		         0.15500	-6.00000e+01	
0.65321   	-2.27935e+00		         0.15667	-6.00000e+01	
0.65989   	-1.79602e+00		         0.15833	-6.00000e+01	
0.66656   	-1.34306e+00		         0.16000	-5.90000e+01	
0.67324   	-9.10659e-01		         0.16167	-5.90000e+01	
0.68019   	-4.97768e-01		         0.16333	-5.80000e+01	
0.68686   	-1.39294e-01		         0.16500	-5.70000e+01	
0.69354   	1.32269e-01		         0.16667	-5.70000e+01	
0.70022   	3.26203e-01		         0.16833	-5.60000e+01	
0.70717   	4.26619e-01		         0.17000	-5.50000e+01	
0.71409   	4.41973e-01		         0.17167	-5.40000e+01	
0.72052   	4.15260e-01		         0.17333	-5.30000e+01	
0.72720   	3.46963e-01		         0.17500	-5.20000e+01	
0.73414   	2.78142e-01		         0.17667	-5.10000e+01	
0.74082   	1.83799e-01		         0.17833	-5.00000e+01	
0.74750   	8.37081e-02		         0.18000	-4.90000e+01	
0.75418   	-1.27984e-03		         0.18167	-4.80000e+01	
0.76112   	-5.44703e-02		         0.18333	-4.70000e+01	
0.76780   	-1.04933e-01		         0.18500	-4.60000e+01	
0.77448   	-1.43344e-01		         0.18667	-4.50000e+01	
0.78115   	-1.92907e-01		         0.18833	-4.30000e+01	
0.78810   	-2.49722e-01		         0.19000	-4.20000e+01	
0.79478   	-3.23120e-01		         0.19167	-4.00000e+01	
0.80146   	-4.23572e-01		         0.19333	-3.90000e+01	
0.80813   	-5.64410e-01		         0.19500	-3.70000e+01	
0.81508   	-7.84678e-01		         0.19667	-3.60000e+01	
0.82176   	-1.12540e+00		         0.19833	-3.40000e+01	
0.82843   	-1.58934e+00		         0.20000	-3.30000e+01	
0.83511   	-2.13577e+00		         0.20167	-3.10000e+01	
0.84206   	-2.76498e+00		         0.20333	-3.00000e+01	
0.84873   	-3.46163e+00		         0.20500	-2.80000e+01	
0.85541   	-4.11816e+00		         0.20667	-2.70000e+01	
0.86209   	-4.75999e+00		         0.20833	-2.60000e+01	
0.86904   	-5.37464e+00		         0.21000	-2.50000e+01	
0.87571   	-5.91307e+00		         0.21167	-2.40000e+01	
0.88239   	-6.30444e+00		         0.21333	-2.30000e+01	
0.88907   	-6.53518e+00		         0.21500	-2.20000e+01	
0.89601   	-6.56137e+00		         0.21667	-2.10000e+01	
0.90269   	-6.42747e+00		         0.21833	-2.00000e+01	
0.90937   	-6.18488e+00		         0.22000	-1.90000e+01	
0.91604   	-5.78318e+00		         0.22167	-1.80000e+01	
0.92299   	-5.35480e+00		         0.22333	-1.80000e+01	
0.92978   	-4.91164e+00		         0.22500	-1.80000e+01	
0.93635   	-4.32179e+00		         0.22667	-1.80000e+01	
0.94302   	-3.73202e+00		         0.22833	-1.80000e+01	
0.94997   	-3.11380e+00		         0.23000	-1.80000e+01	
0.95664   	-2.49799e+00		         0.23167	-1.90000e+01	
0.96332   	-1.89366e+00		         0.23333	-1.90000e+01	
0.97000   	-1.43629e+00		         0.23500	-1.80000e+01	
0.97695   	-9.20713e-01		         0.23667	-1.80000e+01	
0.98362   	-4.87827e-01		         0.23833	-1.70000e+01	
0.99030   	-1.10143e-01		         0.24000	-1.60000e+01	
0.99697   	2.77347e-01		         0.24167	-1.40000e+01	
1.00393   	6.50430e-01		         0.24333	-1.20000e+01	
1.01060   	1.07096e+00		         0.24500	-9.00000e+00	
1.01728   	1.49334e+00		         0.24667	-7.00000e+00	
1.02396   	1.92022e+00		         0.24833	-4.00000e+00	
1.03090   	2.59467e+00		         0.25000	-1.00000e+00	
1.03758   	3.01204e+00		         0.25167	2.00000e+00	
1.04426   	2.98718e+00		         0.25333	4.00000e+00	
1.05093   	2.58811e+00		         0.25500	7.00000e+00	
1.05788   	2.21562e+00		         0.25667	9.00000e+00	
1.06456   	1.39816e+00		         0.25833	1.10000e+01	
1.07124   	8.84033e-01		         0.26000	1.20000e+01	
1.07791   	8.91592e-01		         0.26167	1.30000e+01	
1.08486   	1.23116e+00		         0.26333	1.40000e+01	
1.09154   	1.68294e+00		         0.26500	1.40000e+01	
1.09821   	2.44175e+00		         0.26667	1.50000e+01	
1.10489   	3.23738e+00		         0.26833	1.50000e+01	
1.11184   	3.91659e+00		         0.27000	1.50000e+01	
1.11851   	4.62661e+00		         0.27167	1.50000e+01	
1.12519   	5.17121e+00		         0.27333	1.60000e+01	
1.13187   	5.49271e+00		         0.27500	1.60000e+01	
1.13882   	5.65950e+00		         0.27667	1.70000e+01	
1.14567   	5.67641e+00		         0.27833	1.80000e+01	
1.15217   	5.63532e+00		         0.28000	1.90000e+01	
1.15885   	5.58134e+00		         0.28167	2.00000e+01	
1.16580   	5.51105e+00		         0.28333	2.10000e+01	
1.17247   	5.46295e+00		         0.28500	2.20000e+01	
1.17915   	5.41582e+00		         0.28667	2.40000e+01	
1.18583   	5.33917e+00		         0.28833	2.60000e+01	
1.19277   	5.26587e+00		         0.29000	2.70000e+01	
1.19945   	5.19874e+00		         0.29167	2.90000e+01	
1.20613   	5.12943e+00		         0.29333	3.10000e+01	
1.21280   	5.05278e+00		         0.29500	3.30000e+01	
1.21975   	4.97481e+00		         0.29667	3.40000e+01	
1.22643   	4.91718e+00		         0.29833	3.60000e+01	
1.23311   	4.87326e+00		         0.30000	3.80000e+01	
1.23978   	4.78927e+00		         0.30167	4.00000e+01	
1.24673   	4.73776e+00		         0.30333	4.20000e+01	
1.25341   	4.66500e+00		         0.30500	4.30000e+01	
1.26008   	4.53616e+00		         0.30667	4.40000e+01	
1.26676   	4.39214e+00		         0.30833	4.50000e+01	
1.27371   	4.27760e+00		         0.31000	4.60000e+01	
1.28038   	4.07359e+00		         0.31167	4.60000e+01	
1.28706   	3.88692e+00		         0.31333	4.60000e+01	
1.29373   	3.69633e+00		         0.31500	4.60000e+01	
1.30069   	3.49118e+00		         0.31667	4.50000e+01	
1.30736   	3.26583e+00		         0.31833	4.40000e+01	
1.31404   	3.09510e+00		         0.32000	4.30000e+01	
1.32072   	2.92092e+00		         0.32167	4.10000e+01	
1.32802   	2.75952e+00		         0.32333	3.90000e+01	
1.33434   	2.57400e+00		         0.32500	3.70000e+01	
1.34102   	2.40300e+00		         0.32667	3.50000e+01	
1.34769   	2.22838e+00		         0.32833	3.30000e+01	
1.35464   	2.04262e+00		         0.33000	3.20000e+01	
1.36149   	1.81884e+00		         0.33167	3.00000e+01	
1.36799   	1.60809e+00		         0.33333	2.80000e+01	
1.37467   	1.31913e+00		         0.33500	2.60000e+01	
1.38162   	1.00066e+00		         0.33667	2.40000e+01	
1.38829   	5.35452e-01		         0.33833	2.20000e+01	
1.39497   	-8.37258e-02		         0.34000	2.00000e+01	
1.40165   	-5.75897e-01		         0.34167	1.80000e+01	
1.40860   	-6.81037e-01		         0.34333	1.70000e+01	
1.41528   	-5.55165e-01		         0.34500	1.50000e+01	
1.42195   	-3.21220e-01		         0.34667	1.30000e+01	
1.42863   	3.11883e-02		         0.34833	1.10000e+01	
1.43558   	3.12356e-01		         0.35000	8.00000e+00	
1.44225   	3.13958e-01		         0.35167	6.00000e+00	
1.44893   	2.47059e-01		         0.35333	4.00000e+00	
1.45561   	3.39293e-01		         0.35500	2.00000e+00	
1.46255   	4.34074e-01		         0.35667	0.00000e+00	
1.46923   	4.79127e-01		         0.35833	-2.00000e+00	
1.47591   	5.54052e-01		         0.36000	-4.00000e+00	
1.48259   	3.42569e-01		         0.36167	-6.00000e+00	
1.48953   	-1.96065e-01		         0.36333	-8.00000e+00	
1.49621   	-7.97713e-01		         0.36500	-1.00000e+01	
1.50289   	-1.49998e+00		         0.36667	-1.20000e+01	
1.50956   	-2.41879e+00		         0.36833	-1.40000e+01	
1.51651   	-3.26324e+00		         0.37000	-1.50000e+01	
1.52319   	-3.99598e+00		         0.37167	-1.60000e+01	
1.52986   	-4.54400e+00		         0.37333	-1.70000e+01	
1.53654   	-4.83436e+00		         0.37500	-1.80000e+01	
1.54349   	-5.12389e+00		         0.37667	-1.80000e+01	
1.55016   	-5.32683e+00		         0.37833	-1.90000e+01	
1.55684   	-5.41582e+00		         0.38000	-1.80000e+01	
1.56352   	-5.56134e+00		         0.38167	-1.80000e+01	
1.57047   	-5.81338e+00		         0.38333	-1.70000e+01	
1.57729   	-5.84757e+00		         0.38500	-1.70000e+01	
1.58382   	-5.76684e+00		         0.38667	-1.60000e+01	
1.59050   	-5.63853e+00		         0.38833	-1.50000e+01	
1.59745   	-5.39797e+00		         0.39000	-1.50000e+01	
1.60412   	-5.09270e+00		         0.39167	-1.50000e+01	
1.61080   	-4.76956e+00		         0.39333	-1.50000e+01	
1.61748   	-4.43998e+00		         0.39500	-1.60000e+01	
1.62442   	-4.02519e+00		         0.39667	-1.70000e+01	
1.63110   	-3.55017e+00		         0.39833	-1.80000e+01	
1.63778   	-3.01405e+00		         0.40000	-1.90000e+01	
1.64445   	-2.44354e+00		         0.40167	-2.00000e+01	
1.65140   	-1.89745e+00		         0.40333	-2.20000e+01	
1.65808   	-1.34312e+00		         0.40500	-2.30000e+01	
1.66475   	-8.67882e-01		         0.40667	-2.40000e+01	
1.67143   	-4.82830e-01		         0.40833	-2.50000e+01	
1.67838   	-1.65088e-01		         0.41000	-2.60000e+01	
1.68506   	1.05411e-01		         0.41167	-2.60000e+01	
1.69173   	2.08779e-01		         0.41333	-2.60000e+01	
1.69841   	2.87307e-01		         0.41500	-2.60000e+01	
1.70536   	3.09251e-01		         0.41667	-2.60000e+01	
1.71203   	2.79390e-01		         0.41833	-2.50000e+01	
1.71871   	1.77326e-01		         0.42000	-2.40000e+01	
1.72539   	3.98844e-02		         0.42167	-2.20000e+01	
1.73234   	-2.46755e-01		         0.42333	-2.10000e+01	
1.73901   	-6.40416e-01		         0.42500	-2.00000e+01	
1.74569   	-1.16820e+00		         0.42667	-1.90000e+01	
1.75237   	-1.85416e+00		         0.42833	-1.90000e+01	
1.75931   	-2.59659e+00		         0.43000	-1.80000e+01	
1.76599   	-3.43760e+00		         0.43167	-1.70000e+01	
1.77267   	-4.29916e+00		         0.43333	-1.70000e+01	
1.77934   	-5.18614e+00		         0.43500	-1.70000e+01	
1.78629   	-5.94967e+00		         0.43667	-1.60000e+01	
1.79306   	-6.67772e+00		         0.43833	-1.70000e+01	
1.79964   	-7.10324e+00		         0.44000	-1.70000e+01	
1.80632   	-7.34198e+00		         0.44167	-1.70000e+01	
1.81327   	-7.25262e+00		         0.44333	-1.70000e+01	
1.81994   	-7.01135e+00		         0.44500	-1.70000e+01	
1.82662   	-6.50276e+00		         0.44667	-1.60000e+01	
1.83330   	-6.05116e+00		         0.44833	-1.60000e+01	
1.84025   	-5.44164e+00		         0.45000	-1.50000e+01	
1.84692   	-4.86776e+00		         0.45167	-1.50000e+01	
1.85360   	-4.22580e+00		         0.45333	-1.40000e+01	
1.86028   	-3.67531e+00		         0.45500	-1.40000e+01	
1.86723   	-2.99732e+00		         0.45667	-1.30000e+01	
1.87390   	-2.46371e+00		         0.45833	-1.20000e+01	
1.88058   	-1.89158e+00		         0.46000	-1.20000e+01	
1.88726   	-1.32741e+00		         0.46167	-1.10000e+01	
1.89420   	-8.10228e-01		         0.46333	-1.00000e+01	
1.90088   	-3.96164e-01		         0.46500	-9.00000e+00	
1.90756   	1.49033e-01		         0.46667	-8.00000e+00	
1.91424   	6.28291e-01		         0.46833	-7.00000e+00	
1.92118   	1.09685e+00		         0.47000	-6.00000e+00	
1.92786   	1.64035e+00		         0.47167	-5.00000e+00	
1.93454   	2.39574e+00		         0.47333	-4.00000e+00	
1.94121   	3.16212e+00		         0.47500	-4.00000e+00	
1.94816   	3.56284e+00		         0.47667	-3.00000e+00	
1.95485   	3.48245e+00		         0.47833	-3.00000e+00	
1.96151   	3.03229e+00		         0.48000	-2.00000e+00	
1.96819   	2.33335e+00		         0.48167	-2.00000e+00	
1.97514   	1.29829e+00		         0.48333	-2.00000e+00	
1.98181   	5.32972e-01		         0.48500	-3.00000e+00	
1.98849   	4.24920e-01		         0.48667	-3.00000e+00	
1.99517   	7.63003e-01		         0.48833	-3.00000e+00	
2.00212   	1.17578e+00		         0.49000	-4.00000e+00	
2.00899   	1.92609e+00		         0.49167	-4.00000e+00	
2.01547   	2.84865e+00		         0.49333	-4.00000e+00	
2.02215   	3.59104e+00		         0.49500	-5.00000e+00	
2.02909   	4.20753e+00		         0.49667	-5.00000e+00	
2.03577   	4.75623e+00		         0.49833	-5.00000e+00	
2.04245   	5.17065e+00		         0.50000	-5.00000e+00	
2.04913   	5.39984e+00		         0.50167	-5.00000e+00	
2.05607   	5.49530e+00		         0.50333	-4.00000e+00	
2.06275   	5.49538e+00		         0.50500	-4.00000e+00	
2.06943   	5.46194e+00		         0.50667	-4.00000e+00	
2.07610   	5.34574e+00		         0.50833	-4.00000e+00	
2.08305   	5.25973e+00		         0.51000	-3.00000e+00	
2.08973   	5.22049e+00		         0.51167	-3.00000e+00	
2.09641   	5.21865e+00		         0.51333	-2.00000e+00	
2.10308   	5.20022e+00		         0.51500	-2.00000e+00	
2.11003   	5.17933e+00		         0.51667	-3.00000e+00	
2.11671   	5.12121e+00		         0.51833	-3.00000e+00	
2.12338   	5.04255e+00		         0.52000	-4.00000e+00	
2.13006   	4.97044e+00		         0.52167	-4.00000e+00	
2.13701   	4.89363e+00		         0.52333	-5.00000e+00	
2.14368   	4.82696e+00		         0.52500	-6.00000e+00	
2.15036   	4.81893e+00		         0.52667	-6.00000e+00	
2.15704   	4.78088e+00		         0.52833	-7.00000e+00	
2.16399   	4.68630e+00		         0.53000	-7.00000e+00	
2.17066   	4.58285e+00		         0.53167	-7.00000e+00	
2.17734   	4.45526e+00		         0.53333	-7.00000e+00	
2.18402   	4.26172e+00		         0.53500	-7.00000e+00	
2.19096   	4.03947e+00		         0.53667	-7.00000e+00	
2.19764   	3.83593e+00		         0.53833	-6.00000e+00	
2.20432   	3.60409e+00		         0.54000	-5.00000e+00	
2.21099   	3.35005e+00		         0.54167	-4.00000e+00	
2.21794   	3.13342e+00		         0.54333	-3.00000e+00	
2.22485   	2.94839e+00		         0.54500	-3.00000e+00	
2.23129   	2.76151e+00		         0.54667	-2.00000e+00	
2.23797   	2.62951e+00		         0.54833	-2.00000e+00	
2.24492   	2.50702e+00		         0.55000	-2.00000e+00	
2.25159   	2.39918e+00		         0.55167	-2.00000e+00	
2.25827   	2.28073e+00		         0.55333	-2.00000e+00	
2.26495   	2.15314e+00		         0.55500	-2.00000e+00	
2.27189   	1.95605e+00		         0.55667	-3.00000e+00	
2.27858   	1.79065e+00		         0.55833	-3.00000e+00	
2.28525   	1.46586e+00		         0.56000	-4.00000e+00	
2.29193   	8.67804e-01		         0.56167	-4.00000e+00	
2.29888   	2.04936e-01		         0.56333	-5.00000e+00	
2.30555   	-4.85283e-01		         0.56500	-5.00000e+00	
2.31223   	-8.73237e-01		         0.56667	-6.00000e+00	
2.31891   	-1.00711e+00		         0.56833	-6.00000e+00	
2.32585   	-6.44645e-01		         0.57000	-6.00000e+00	
2.33253   	-2.67954e-01		         0.57167	-7.00000e+00	
2.33921   	1.00919e-01		         0.57333	-7.00000e+00	
2.34589   	2.83688e-01		         0.57500	-8.00000e+00	
2.35284   	3.47170e-01		         0.57667	-8.00000e+00	
2.35951   	2.90836e-01		         0.57833	-8.00000e+00	
2.36619   	4.68403e-01		         0.58000	-8.00000e+00	
2.37286   	7.07495e-01		         0.58167	-8.00000e+00	
2.37981   	8.32608e-01		         0.58333	-8.00000e+00	
2.38649   	8.11177e-01		         0.58500	-8.00000e+00	
2.39316   	5.74928e-01		         0.58667	-7.00000e+00	
2.39984   	-5.09034e-02		         0.58833	-7.00000e+00	
2.40679   	-7.25077e-01		         0.59000	-7.00000e+00	
2.41346   	-1.54736e+00		         0.59167	-7.00000e+00	
2.42014   	-2.36628e+00		         0.59333	-8.00000e+00	
2.42682   	-3.14847e+00		         0.59500	-8.00000e+00	
2.43377   	-3.71086e+00		         0.59667	-8.00000e+00	
2.44076   	-4.24667e+00		         0.59833	-9.00000e+00	
2.44712   	-4.61242e+00		         0.60000	-9.00000e+00	
2.45380   	-4.89945e+00		         0.60167	-1.00000e+01	
2.46074   	-5.19165e+00		         0.60333	-1.00000e+01	
2.46742   	-5.47842e+00		         0.60500	-1.00000e+01	
2.47409   	-5.69996e+00		         0.60667	-1.00000e+01	
2.48078   	-5.95170e+00		         0.60833	-1.10000e+01	
2.48772   	-6.05195e+00		         0.61000	-1.10000e+01	
2.49440   	-6.01659e+00		         0.61167	-1.10000e+01	
2.50108   	-5.88326e+00		         0.61333	-1.10000e+01	
2.50775   	-5.60868e+00		         0.61500	-1.20000e+01	
2.51470   	-5.20471e+00		         0.61667	-1.20000e+01	
2.52138   	-4.75585e+00		         0.61833	-1.20000e+01	
2.52805   	-4.18593e+00		         0.62000	-1.30000e+01	
2.53473   	-3.56798e+00		         0.62167	-1.30000e+01	
2.54168   	-2.96573e+00		         0.62333	-1.40000e+01	
2.54836   	-2.37363e+00		         0.62500	-1.50000e+01	
2.55503   	-1.81664e+00		         0.62667	-1.50000e+01	
2.56171   	-1.35331e+00		         0.62833	-1.60000e+01	
2.56866   	-9.62476e-01		         0.63000	-1.70000e+01	
2.57533   	-6.22814e-01		         0.63167	-1.70000e+01	
2.58201   	-3.31984e-01		         0.63333	-1.70000e+01	
2.58869   	-9.82646e-02		         0.63500	-1.70000e+01	
2.59564   	9.30670e-02		         0.63667	-1.70000e+01	
2.60231   	2.41899e-01		         0.63833	-1.60000e+01	
2.60899   	3.09065e-01		         0.64000	-1.60000e+01	
2.61567   	3.14841e-01		         0.64167	-1.50000e+01	
2.62261   	2.91334e-01		         0.64333	-1.40000e+01	
2.62929   	2.27280e-01		         0.64500	-1.30000e+01	
2.63597   	1.30550e-01		         0.64667	-1.20000e+01	
2.64264   	3.90308e-02		         0.64833	-1.10000e+01	
2.64959   	-3.67819e-02		         0.65000	-1.00000e+01	
2.65654   	-1.11595e-01		         0.65167	-9.00000e+00	
2.66295   	-1.62793e-01		         0.65333	-8.00000e+00	
2.66962   	-2.07649e-01		         0.65500	-7.00000e+00	
2.67657   	-2.58286e-01		         0.65667	-7.00000e+00	
2.68324   	-3.13284e-01		         0.65833	-6.00000e+00	
2.68992   	-4.22626e-01		         0.66000	-6.00000e+00	
2.69660   	-5.97083e-01		         0.66167	-5.00000e+00	
2.70355   	-9.07153e-01		         0.66333	-5.00000e+00	
2.71022   	-1.36037e+00		         0.66500	-6.00000e+00	
2.71690   	-2.05840e+00		         0.66667	-6.00000e+00	
2.72358   	-2.86463e+00		         0.66833	-7.00000e+00	
2.73053   	-3.78434e+00		         0.67000	-7.00000e+00	
2.73720   	-4.75684e+00		         0.67167	-8.00000e+00	
2.74388   	-5.71459e+00		         0.67333	-9.00000e+00	
2.75056   	-6.51148e+00		         0.67500	-1.00000e+01	
2.75750   	-7.12419e+00		         0.67667	-1.10000e+01	
2.76418   	-7.54805e+00		         0.67833	-1.20000e+01	
2.77086   	-7.66761e+00		         0.68000	-1.30000e+01	
2.77754   	-7.56971e+00		         0.68167	-1.40000e+01	
2.78448   	-7.17032e+00		         0.68333	-1.40000e+01	
2.79116   	-6.72615e+00		         0.68500	-1.50000e+01	
2.79784   	-6.06114e+00		         0.68667	-1.50000e+01	
2.80451   	-5.43855e+00		         0.68833	-1.40000e+01	
2.81146   	-4.71441e+00		         0.69000	-1.40000e+01	
2.81814   	-4.15480e+00		         0.69167	-1.30000e+01	
2.82481   	-3.43116e+00		         0.69333	-1.20000e+01	
2.83149   	-2.82593e+00		         0.69500	-1.10000e+01	
2.83844   	-2.16294e+00		         0.69667	-1.00000e+01	
2.84511   	-1.57555e+00		         0.69833	-9.00000e+00	
2.85179   	-9.80672e-01		         0.70000	-8.00000e+00	
2.85847   	-5.57128e-01		         0.70167	-8.00000e+00	
2.86542   	-8.56855e-02		         0.70333	-7.00000e+00	
2.87239   	3.76334e-01		         0.70500	-6.00000e+00	
2.87877   	8.42437e-01		         0.70667	-6.00000e+00	
2.88545   	1.40643e+00		         0.70833	-5.00000e+00	
2.89239   	2.16722e+00		         0.71000	-5.00000e+00	
2.89907   	3.01446e+00		         0.71167	-4.00000e+00	
2.90575   	3.73947e+00		         0.71333	-4.00000e+00	
2.91243   	4.19278e+00		         0.71500	-4.00000e+00	
2.91937   	4.69383e+00		         0.71667	-3.00000e+00	
			         0.71833	-3.00000e+00	
			         0.72000	-2.00000e+00	
			         0.72167	-2.00000e+00	
			         0.72333	-1.00000e+00	
			         0.72500	-1.00000e+00	
			         0.72667	-1.00000e+00	
			         0.72833	-1.00000e+00	
			         0.73000	-1.00000e+00	
			         0.73167	-1.00000e+00	
			         0.73333	-1.00000e+00	
			         0.73500	-2.00000e+00	
			         0.73667	-2.00000e+00	
			         0.73833	-3.00000e+00	
			         0.74000	-4.00000e+00	
			         0.74167	-4.00000e+00	
			         0.74333	-5.00000e+00	
			         0.74500	-6.00000e+00	
			         0.74667	-6.00000e+00	
			         0.74833	-6.00000e+00	
			         0.75000	-6.00000e+00	
			         0.75167	-6.00000e+00	
			         0.75333	-5.00000e+00	
			         0.75500	-5.00000e+00	
			         0.75667	-4.00000e+00	
			         0.75833	-3.00000e+00	
			         0.76000	-2.00000e+00	
			         0.76167	-1.00000e+00	
			         0.76333	1.00000e+00	
			         0.76500	2.00000e+00	
			         0.76667	2.00000e+00	
			         0.76833	3.00000e+00	
			         0.77000	3.00000e+00	
			         0.77167	2.00000e+00	
			         0.77333	2.00000e+00	
			         0.77500	1.00000e+00	
			         0.77667	0.00000e+00	
			         0.77833	-2.00000e+00	
			         0.78000	-4.00000e+00	
			         0.78167	-6.00000e+00	
			         0.78333	-8.00000e+00	
			         0.78500	-1.00000e+01	
			         0.78667	-1.20000e+01	
			         0.78833	-1.30000e+01	
			         0.79000	-1.50000e+01	
			         0.79167	-1.60000e+01	
			         0.79333	-1.60000e+01	
			         0.79500	-1.60000e+01	
			         0.79667	-1.60000e+01	
			         0.79833	-1.60000e+01	
			         0.80000	-1.50000e+01	
			         0.80167	-1.30000e+01	
			         0.80333	-1.20000e+01	
			         0.80500	-1.00000e+01	
			         0.80667	-9.00000e+00	
			         0.80833	-7.00000e+00	
			         0.81000	-6.00000e+00	
			         0.81167	-5.00000e+00	
			         0.81333	-4.00000e+00	
			         0.81500	-3.00000e+00	
			         0.81667	-3.00000e+00	
			         0.81833	-3.00000e+00	
			         0.82000	-3.00000e+00	
			         0.82167	-3.00000e+00	
			         0.82333	-4.00000e+00	
			         0.82500	-4.00000e+00	
			         0.82667	-5.00000e+00	
			         0.82833	-5.00000e+00	
			         0.83000	-6.00000e+00	
			         0.83167	-6.00000e+00	
			         0.83333	-7.00000e+00	
			         0.83500	-8.00000e+00	
			         0.83667	-9.00000e+00	
			         0.83833	-1.00000e+01	
			         0.84000	-1.10000e+01	
			         0.84167	-1.20000e+01	
			         0.84333	-1.30000e+01	
			         0.84500	-1.40000e+01	
			         0.84667	-1.60000e+01	
			         0.84833	-1.70000e+01	
			         0.85000	-1.80000e+01	
			         0.85167	-1.90000e+01	
			         0.85333	-1.90000e+01	
			         0.85500	-1.80000e+01	
			         0.85667	-1.80000e+01	
			         0.85833	-1.70000e+01	
			         0.86000	-1.50000e+01	
			         0.86167	-1.30000e+01	
			         0.86333	-1.10000e+01	
			         0.86500	-9.00000e+00	
			         0.86667	-6.00000e+00	
			         0.86833	-4.00000e+00	
			         0.87000	-2.00000e+00	
			         0.87167	0.00000e+00	
			         0.87333	1.00000e+00	
			         0.87500	3.00000e+00	
			         0.87667	4.00000e+00	
			         0.87833	5.00000e+00	
			         0.88000	5.00000e+00	
			         0.88167	5.00000e+00	
			         0.88333	6.00000e+00	
			         0.88500	6.00000e+00	
			         0.88667	6.00000e+00	
			         0.88833	6.00000e+00	
			         0.89000	6.00000e+00	
			         0.89167	5.00000e+00	
			         0.89333	5.00000e+00	
			         0.89500	4.00000e+00	
			         0.89667	4.00000e+00	
			         0.89833	3.00000e+00	
			         0.90000	3.00000e+00	
			         0.90167	2.00000e+00	
			         0.90333	2.00000e+00	
			         0.90500	2.00000e+00	
			         0.90667	1.00000e+00	
			         0.90833	1.00000e+00	
			         0.91000	1.00000e+00	
			         0.91167	2.00000e+00	
			         0.91333	2.00000e+00	
			         0.91500	2.00000e+00	
			         0.91667	2.00000e+00	
			         0.91833	2.00000e+00	
			         0.92000	2.00000e+00	
			         0.92167	1.00000e+00	
			         0.92333	1.00000e+00	
			         0.92500	1.00000e+00	
			         0.92667	1.00000e+00	
			         0.92833	1.00000e+00	
			         0.93000	1.00000e+00	
			         0.93167	1.00000e+00	
			         0.93333	1.00000e+00	
			         0.93500	1.00000e+00	
			         0.93667	1.00000e+00	
			         0.93833	1.00000e+00	
			         0.94000	1.00000e+00	
			         0.94167	1.00000e+00	
			         0.94333	1.00000e+00	
			         0.94500	1.00000e+00	
			         0.94667	1.00000e+00	
			         0.94833	1.00000e+00	
			         0.95000	2.00000e+00	
			         0.95167	2.00000e+00	
			         0.95333	3.00000e+00	
			         0.95500	4.00000e+00	
			         0.95667	4.00000e+00	
			         0.95833	5.00000e+00	
			         0.96000	6.00000e+00	
			         0.96167	6.00000e+00	
			         0.96333	7.00000e+00	
			         0.96500	8.00000e+00	
			         0.96667	8.00000e+00	
			         0.96833	8.00000e+00	
			         0.97000	8.00000e+00	
			         0.97167	8.00000e+00	
			         0.97333	8.00000e+00	
			         0.97500	8.00000e+00	
			         0.97667	7.00000e+00	
			         0.97833	6.00000e+00	
			         0.98000	6.00000e+00	
			         0.98167	5.00000e+00	
			         0.98333	5.00000e+00	
			         0.98500	5.00000e+00	
			         0.98667	4.00000e+00	
			         0.98833	4.00000e+00	
			         0.99000	4.00000e+00	
			         0.99167	3.00000e+00	
			         0.99333	2.00000e+00	
			         0.99500	1.00000e+00	
			         0.99667	0.00000e+00	
			         0.99833	-1.00000e+00	
			         1.00000	-1.00000e+00	
			         1.00167	-1.00000e+00	
			         1.00333	1.00000e+00	
			         1.00500	4.00000e+00	
			         1.00667	1.00000e+01	
			         1.00833	2.00000e+01	
			         1.01000	3.30000e+01	
			         1.01167	5.00000e+01	
			         1.01333	7.00000e+01	
			         1.01500	9.40000e+01	
			         1.01667	1.20000e+02	
			         1.01833	1.47000e+02	
			         1.02000	1.74000e+02	
			         1.02167	2.02000e+02	
			         1.02333	2.27000e+02	
			         1.02500	2.51000e+02	
			         1.02667	2.71000e+02	
			         1.02833	2.87000e+02	
			         1.03000	2.99000e+02	
			         1.03167	3.05000e+02	
			         1.03333	3.06000e+02	
			         1.03500	3.03000e+02	
			         1.03667	2.95000e+02	
			         1.03833	2.83000e+02	
			         1.04000	2.68000e+02	
			         1.04167	2.51000e+02	
			         1.04333	2.31000e+02	
			         1.04500	2.09000e+02	
			         1.04667	1.86000e+02	
			         1.04833	1.63000e+02	
			         1.05000	1.39000e+02	
			         1.05167	1.15000e+02	
			         1.05333	9.20000e+01	
			         1.05500	6.90000e+01	
			         1.05667	4.80000e+01	
			         1.05833	2.80000e+01	
			         1.06000	9.00000e+00	
			         1.06167	-8.00000e+00	
			         1.06333	-2.30000e+01	
			         1.06500	-3.80000e+01	
			         1.06667	-5.00000e+01	
			         1.06833	-6.20000e+01	
			         1.07000	-7.20000e+01	
			         1.07167	-8.10000e+01	
			         1.07333	-8.80000e+01	
			         1.07500	-9.40000e+01	
			         1.07667	-9.90000e+01	
			         1.07833	-1.03000e+02	
			         1.08000	-1.05000e+02	
			         1.08167	-1.07000e+02	
			         1.08333	-1.07000e+02	
			         1.08500	-1.07000e+02	
			         1.08667	-1.06000e+02	
			         1.08833	-1.05000e+02	
			         1.09000	-1.03000e+02	
			         1.09167	-1.01000e+02	
			         1.09333	-1.00000e+02	
			         1.09500	-9.80000e+01	
			         1.09667	-9.60000e+01	
			         1.09833	-9.50000e+01	
			         1.10000	-9.30000e+01	
			         1.10167	-9.20000e+01	
			         1.10333	-9.10000e+01	
			         1.10500	-9.10000e+01	
			         1.10667	-9.00000e+01	
			         1.10833	-9.00000e+01	
			         1.11000	-8.90000e+01	
			         1.11167	-8.90000e+01	
			         1.11333	-8.90000e+01	
			         1.11500	-8.80000e+01	
			         1.11667	-8.80000e+01	
			         1.11833	-8.70000e+01	
			         1.12000	-8.50000e+01	
			         1.12167	-8.40000e+01	
			         1.12333	-8.20000e+01	
			         1.12500	-7.90000e+01	
			         1.12667	-7.70000e+01	
			         1.12833	-7.40000e+01	
			         1.13000	-7.10000e+01	
			         1.13167	-6.80000e+01	
			         1.13333	-6.50000e+01	
			         1.13500	-6.20000e+01	
			         1.13667	-5.90000e+01	
			         1.13833	-5.70000e+01	
			         1.14000	-5.50000e+01	
			         1.14167	-5.30000e+01	
			         1.14333	-5.20000e+01	
			         1.14500	-5.10000e+01	
			         1.14667	-5.00000e+01	
			         1.14833	-4.90000e+01	
			         1.15000	-4.90000e+01	
			         1.15167	-4.90000e+01	
			         1.15333	-4.90000e+01	
			         1.15500	-4.90000e+01	
			         1.15667	-4.90000e+01	
			         1.15833	-4.90000e+01	
			         1.16000	-4.90000e+01	
			         1.16167	-4.90000e+01	
			         1.16333	-4.80000e+01	
			         1.16500	-4.80000e+01	
			         1.16667	-4.80000e+01	
			         1.16833	-4.80000e+01	
			         1.17000	-4.80000e+01	
			         1.17167	-4.70000e+01	
			         1.17333	-4.70000e+01	
			         1.17500	-4.60000e+01	
			         1.17667	-4.60000e+01	
			         1.17833	-4.50000e+01	
			         1.18000	-4.40000e+01	
			         1.18167	-4.30000e+01	
			         1.18333	-4.20000e+01	
			         1.18500	-4.10000e+01	
			         1.18667	-4.00000e+01	
			         1.18833	-3.80000e+01	
			         1.19000	-3.60000e+01	
			         1.19167	-3.50000e+01	
			         1.19333	-3.30000e+01	
			         1.19500	-3.10000e+01	
			         1.19667	-2.90000e+01	
			         1.19833	-2.70000e+01	
			         1.20000	-2.60000e+01	
			         1.20167	-2.40000e+01	
			         1.20333	-2.30000e+01	
			         1.20500	-2.20000e+01	
			         1.20667	-2.20000e+01	
			         1.20833	-2.20000e+01	
			         1.21000	-2.20000e+01	
			         1.21167	-2.20000e+01	
			         1.21333	-2.30000e+01	
			         1.21500	-2.40000e+01	
			         1.21667	-2.50000e+01	
			         1.21833	-2.60000e+01	
			         1.22000	-2.60000e+01	
			         1.22167	-2.60000e+01	
			         1.22333	-2.60000e+01	
			         1.22500	-2.50000e+01	
			         1.22667	-2.40000e+01	
			         1.22833	-2.20000e+01	
			         1.23000	-2.00000e+01	
			         1.23167	-1.80000e+01	
			         1.23333	-1.50000e+01	
			         1.23500	-1.20000e+01	
			         1.23667	-9.00000e+00	
			         1.23833	-6.00000e+00	
			         1.24000	-3.00000e+00	
			         1.24167	-1.00000e+00	
			         1.24333	1.00000e+00	
			         1.24500	4.00000e+00	
			         1.24667	6.00000e+00	
			         1.24833	7.00000e+00	
			         1.25000	9.00000e+00	
			         1.25167	1.10000e+01	
			         1.25333	1.20000e+01	
			         1.25500	1.40000e+01	
			         1.25667	1.50000e+01	
			         1.25833	1.70000e+01	
			         1.26000	1.80000e+01	
			         1.26167	2.00000e+01	
			         1.26333	2.20000e+01	
			         1.26500	2.30000e+01	
			         1.26667	2.50000e+01	
			         1.26833	2.60000e+01	
			         1.27000	2.70000e+01	
			         1.27167	2.80000e+01	
			         1.27333	2.90000e+01	
			         1.27500	2.90000e+01	
			         1.27667	3.00000e+01	
			         1.27833	3.00000e+01	
			         1.28000	3.10000e+01	
			         1.28167	3.10000e+01	
			         1.28333	3.20000e+01	
			         1.28500	3.20000e+01	
			         1.28667	3.30000e+01	
			         1.28833	3.40000e+01	
			         1.29000	3.50000e+01	
			         1.29167	3.60000e+01	
			         1.29333	3.80000e+01	
			         1.29500	3.90000e+01	
			         1.29667	4.00000e+01	
			         1.29833	4.10000e+01	
			         1.30000	4.20000e+01	
			         1.30167	4.30000e+01	
			         1.30333	4.30000e+01	
			         1.30500	4.30000e+01	
			         1.30667	4.30000e+01	
			         1.30833	4.20000e+01	
			         1.31000	4.10000e+01	
			         1.31167	4.00000e+01	
			         1.31333	3.80000e+01	
			         1.31500	3.60000e+01	
			         1.31667	3.30000e+01	
			         1.31833	3.10000e+01	
			         1.32000	2.90000e+01	
			         1.32167	2.60000e+01	
			         1.32333	2.40000e+01	
			         1.32500	2.20000e+01	
			         1.32667	2.00000e+01	
			         1.32833	1.90000e+01	
			         1.33000	1.80000e+01	
			         1.33167	1.70000e+01	
			         1.33333	1.60000e+01	
			         1.33500	1.60000e+01	
			         1.33667	1.50000e+01	
			         1.33833	1.40000e+01	
			         1.34000	1.30000e+01	
			         1.34167	1.10000e+01	
			         1.34333	1.00000e+01	
			         1.34500	8.00000e+00	
			         1.34667	5.00000e+00	
			         1.34833	3.00000e+00	
			         1.35000	0.00000e+00	
			         1.35167	-3.00000e+00	
			         1.35333	-6.00000e+00	
			         1.35500	-8.00000e+00	
			         1.35667	-1.10000e+01	
			         1.35833	-1.40000e+01	
			         1.36000	-1.60000e+01	
			         1.36167	-1.90000e+01	
			         1.36333	-2.10000e+01	
			         1.36500	-2.30000e+01	
			         1.36667	-2.40000e+01	
			         1.36833	-2.50000e+01	
			         1.37000	-2.60000e+01	
			         1.37167	-2.60000e+01	
			         1.37333	-2.60000e+01	
			         1.37500	-2.60000e+01	
			         1.37667	-2.50000e+01	
			         1.37833	-2.50000e+01	
			         1.38000	-2.40000e+01	
			         1.38167	-2.30000e+01	
			         1.38333	-2.20000e+01	
			         1.38500	-2.10000e+01	
			         1.38667	-2.00000e+01	
			         1.38833	-2.00000e+01	
			         1.39000	-2.00000e+01	
			         1.39167	-2.00000e+01	
			         1.39333	-2.00000e+01	
			         1.39500	-2.10000e+01	
			         1.39667	-2.20000e+01	
			         1.39833	-2.20000e+01	
			         1.40000	-2.30000e+01	
			         1.40167	-2.30000e+01	
			         1.40333	-2.40000e+01	
			         1.40500	-2.40000e+01	
			         1.40667	-2.40000e+01	
			         1.40833	-2.40000e+01	
			         1.41000	-2.40000e+01	
			         1.41167	-2.40000e+01	
			         1.41333	-2.30000e+01	
			         1.41500	-2.30000e+01	
			         1.41667	-2.20000e+01	
			         1.41833	-2.20000e+01	
			         1.42000	-2.10000e+01	
			         1.42167	-2.00000e+01	
			         1.42333	-2.00000e+01	
			         1.42500	-1.90000e+01	
			         1.42667	-1.90000e+01	
			         1.42833	-1.80000e+01	
			         1.43000	-1.80000e+01	
			         1.43167	-1.80000e+01	
			         1.43333	-1.70000e+01	
			         1.43500	-1.70000e+01	
			         1.43667	-1.60000e+01	
			         1.43833	-1.60000e+01	
			         1.44000	-1.50000e+01	
			         1.44167	-1.40000e+01	
			         1.44333	-1.40000e+01	
			         1.44500	-1.30000e+01	
			         1.44667	-1.30000e+01	
			         1.44833	-1.30000e+01	
			         1.45000	-1.30000e+01	
			         1.45167	-1.20000e+01	
			         1.45333	-1.20000e+01	
			         1.45500	-1.30000e+01	
			         1.45667	-1.30000e+01	
			         1.45833	-1.30000e+01	
			         1.46000	-1.40000e+01	
			         1.46167	-1.40000e+01	
			         1.46333	-1.50000e+01	
			         1.46500	-1.50000e+01	
			         1.46667	-1.50000e+01	
			         1.46833	-1.50000e+01	
			         1.47000	-1.50000e+01	
			         1.47167	-1.40000e+01	
			         1.47333	-1.40000e+01	
			         1.47500	-1.40000e+01	
			         1.47667	-1.30000e+01	
			         1.47833	-1.30000e+01	
			         1.48000	-1.20000e+01	
			         1.48167	-1.20000e+01	
			         1.48333	-1.10000e+01	
			         1.48500	-1.00000e+01	
			         1.48667	-1.00000e+01	
			         1.48833	-9.00000e+00	
			         1.49000	-9.00000e+00	
			         1.49167	-8.00000e+00	
			         1.49333	-8.00000e+00	
			         1.49500	-7.00000e+00	
			         1.49667	-6.00000e+00	
			         1.49833	-6.00000e+00	
			         1.50000	-5.00000e+00	
			         1.50167	-4.00000e+00	
			         1.50333	-3.00000e+00	
			         1.50500	-2.00000e+00	
			         1.50667	-1.00000e+00	
			         1.50833	0.00000e+00	
			         1.51000	0.00000e+00	
			         1.51167	0.00000e+00	
			         1.51333	0.00000e+00	
			         1.51500	-1.00000e+00	
			         1.51667	-1.00000e+00	
			         1.51833	-2.00000e+00	
			         1.52000	-3.00000e+00	
			         1.52167	-4.00000e+00	
			         1.52333	-6.00000e+00	
			         1.52500	-7.00000e+00	
			         1.52667	-8.00000e+00	
			         1.52833	-9.00000e+00	
			         1.53000	-9.00000e+00	
			         1.53167	-1.00000e+01	
			         1.53333	-1.00000e+01	
			         1.53500	-9.00000e+00	
			         1.53667	-9.00000e+00	
			         1.53833	-9.00000e+00	
			         1.54000	-8.00000e+00	
			         1.54167	-7.00000e+00	
			         1.54333	-6.00000e+00	
			         1.54500	-5.00000e+00	
			         1.54667	-5.00000e+00	
			         1.54833	-4.00000e+00	
			         1.55000	-3.00000e+00	
			         1.55167	-3.00000e+00	
			         1.55333	-3.00000e+00	
			         1.55500	-3.00000e+00	
			         1.55667	-3.00000e+00	
			         1.55833	-4.00000e+00	
			         1.56000	-4.00000e+00	
			         1.56167	-5.00000e+00	
			         1.56333	-6.00000e+00	
			         1.56500	-7.00000e+00	
			         1.56667	-8.00000e+00	
			         1.56833	-9.00000e+00	
			         1.57000	-1.00000e+01	
			         1.57167	-1.10000e+01	
			         1.57333	-1.20000e+01	
			         1.57500	-1.30000e+01	
			         1.57667	-1.40000e+01	
			         1.57833	-1.50000e+01	
			         1.58000	-1.60000e+01	
			         1.58167	-1.60000e+01	
			         1.58333	-1.70000e+01	
			         1.58500	-1.70000e+01	
			         1.58667	-1.70000e+01	
			         1.58833	-1.70000e+01	
			         1.59000	-1.70000e+01	
			         1.59167	-1.60000e+01	
			         1.59333	-1.50000e+01	
			         1.59500	-1.50000e+01	
			         1.59667	-1.40000e+01	
			         1.59833	-1.30000e+01	
			         1.60000	-1.20000e+01	
			         1.60167	-1.10000e+01	
			         1.60333	-1.00000e+01	
			         1.60500	-1.00000e+01	
			         1.60667	-9.00000e+00	
			         1.60833	-9.00000e+00	
			         1.61000	-8.00000e+00	
			         1.61167	-8.00000e+00	
			         1.61333	-8.00000e+00	
			         1.61500	-8.00000e+00	
			         1.61667	-8.00000e+00	
			         1.61833	-8.00000e+00	
			         1.62000	-7.00000e+00	
			         1.62167	-7.00000e+00	
			         1.62333	-6.00000e+00	
			         1.62500	-5.00000e+00	
			         1.62667	-4.00000e+00	
			         1.62833	-3.00000e+00	
			         1.63000	-2.00000e+00	
			         1.63167	-1.00000e+00	
			         1.63333	-1.00000e+00	
			         1.63500	0.00000e+00	
			         1.63667	1.00000e+00	
			         1.63833	1.00000e+00	
			         1.64000	1.00000e+00	
			         1.64167	1.00000e+00	
			         1.64333	1.00000e+00	
			         1.64500	0.00000e+00	
			         1.64667	0.00000e+00	
			         1.64833	-1.00000e+00	
			         1.65000	-2.00000e+00	
			         1.65167	-2.00000e+00	
			         1.65333	-3.00000e+00	
			         1.65500	-3.00000e+00	
			         1.65667	-3.00000e+00	
			         1.65833	-4.00000e+00	
			         1.66000	-4.00000e+00	
			         1.66167	-4.00000e+00	
			         1.66333	-5.00000e+00	
			         1.66500	-5.00000e+00	
			         1.66667	-6.00000e+00	
			         1.66833	-6.00000e+00	
			         1.67000	-7.00000e+00	
			         1.67167	-9.00000e+00	
			         1.67333	-1.00000e+01	
			         1.67500	-1.10000e+01	
			         1.67667	-1.20000e+01	
			         1.67833	-1.20000e+01	
			         1.68000	-1.20000e+01	
			         1.68167	-1.20000e+01	
			         1.68333	-1.20000e+01	
			         1.68500	-1.20000e+01	
			         1.68667	-1.10000e+01	
			         1.68833	-1.00000e+01	
			         1.69000	-9.00000e+00	
			         1.69167	-9.00000e+00	
			         1.69333	-8.00000e+00	
			         1.69500	-8.00000e+00	
			         1.69667	-8.00000e+00	
			         1.69833	-8.00000e+00	
			         1.70000	-9.00000e+00	
			         1.70167	-1.00000e+01	
			         1.70333	-1.10000e+01	
			         1.70500	-1.20000e+01	
			         1.70667	-1.30000e+01	
			         1.70833	-1.40000e+01	
			         1.71000	-1.40000e+01	
			         1.71167	-1.50000e+01	
			         1.71333	-1.50000e+01	
			         1.71500	-1.50000e+01	
			         1.71667	-1.40000e+01	
			         1.71833	-1.30000e+01	
			         1.72000	-1.20000e+01	
			         1.72167	-1.00000e+01	
			         1.72333	-8.00000e+00	
			         1.72500	-5.00000e+00	
			         1.72667	-3.00000e+00	
			         1.72833	-1.00000e+00	
			         1.73000	2.00000e+00	
			         1.73167	4.00000e+00	
			         1.73333	5.00000e+00	
			         1.73500	6.00000e+00	
			         1.73667	7.00000e+00	
			         1.73833	8.00000e+00	
			         1.74000	7.00000e+00	
			         1.74167	7.00000e+00	
			         1.74333	5.00000e+00	
			         1.74500	4.00000e+00	
			         1.74667	2.00000e+00	
			         1.74833	0.00000e+00	
			         1.75000	-3.00000e+00	
			         1.75167	-5.00000e+00	
			         1.75333	-7.00000e+00	
			         1.75500	-9.00000e+00	
			         1.75667	-1.10000e+01	
			         1.75833	-1.30000e+01	
			         1.76000	-1.40000e+01	
			         1.76167	-1.50000e+01	
			         1.76333	-1.60000e+01	
			         1.76500	-1.60000e+01	
			         1.76667	-1.60000e+01	
			         1.76833	-1.50000e+01	
			         1.77000	-1.40000e+01	
			         1.77167	-1.30000e+01	
			         1.77333	-1.10000e+01	
			         1.77500	-9.00000e+00	
			         1.77667	-7.00000e+00	
			         1.77833	-6.00000e+00	
			         1.78000	-4.00000e+00	
			         1.78167	-3.00000e+00	
			         1.78333	-1.00000e+00	
			         1.78500	0.00000e+00	
			         1.78667	0.00000e+00	
			         1.78833	1.00000e+00	
			         1.79000	2.00000e+00	
			         1.79167	2.00000e+00	
			         1.79333	2.00000e+00	
			         1.79500	2.00000e+00	
			         1.79667	2.00000e+00	
			         1.79833	3.00000e+00	
			         1.80000	3.00000e+00	
			         1.80167	3.00000e+00	
			         1.80333	4.00000e+00	
			         1.80500	4.00000e+00	
			         1.80667	5.00000e+00	
			         1.80833	6.00000e+00	
			         1.81000	7.00000e+00	
			         1.81167	8.00000e+00	
			         1.81333	9.00000e+00	
			         1.81500	1.00000e+01	
			         1.81667	1.10000e+01	
			         1.81833	1.20000e+01	
			         1.82000	1.20000e+01	
			         1.82167	1.30000e+01	
			         1.82333	1.20000e+01	
			         1.82500	1.20000e+01	
			         1.82667	1.10000e+01	
			         1.82833	9.00000e+00	
			         1.83000	8.00000e+00	
			         1.83167	6.00000e+00	
			         1.83333	4.00000e+00	
			         1.83500	3.00000e+00	
			         1.83667	1.00000e+00	
			         1.83833	0.00000e+00	
			         1.84000	0.00000e+00	
			         1.84167	-1.00000e+00	
			         1.84333	-1.00000e+00	
			         1.84500	-1.00000e+00	
			         1.84667	-1.00000e+00	
			         1.84833	0.00000e+00	
			         1.85000	1.00000e+00	
			         1.85167	2.00000e+00	
			         1.85333	2.00000e+00	
			         1.85500	3.00000e+00	
			         1.85667	4.00000e+00	
			         1.85833	4.00000e+00	
			         1.86000	5.00000e+00	
			         1.86167	5.00000e+00	
			         1.86333	5.00000e+00	
			         1.86500	5.00000e+00	
			         1.86667	5.00000e+00	
			         1.86833	5.00000e+00	
			         1.87000	4.00000e+00	
			         1.87167	4.00000e+00	
			         1.87333	3.00000e+00	
			         1.87500	3.00000e+00	
			         1.87667	3.00000e+00	
			         1.87833	2.00000e+00	
			         1.88000	3.00000e+00	
			         1.88167	3.00000e+00	
			         1.88333	4.00000e+00	
			         1.88500	4.00000e+00	
			         1.88667	6.00000e+00	
			         1.88833	7.00000e+00	
			         1.89000	9.00000e+00	
			         1.89167	1.00000e+01	
			         1.89333	1.20000e+01	
			         1.89500	1.30000e+01	
			         1.89667	1.40000e+01	
			         1.89833	1.40000e+01	
			         1.90000	1.40000e+01	
			         1.90167	1.40000e+01	
			         1.90333	1.30000e+01	
			         1.90500	1.20000e+01	
			         1.90667	1.10000e+01	
			         1.90833	1.00000e+01	
			         1.91000	1.00000e+01	
			         1.91167	1.10000e+01	
			         1.91333	1.40000e+01	
			         1.91500	2.00000e+01	
			         1.91667	2.90000e+01	
			         1.91833	4.20000e+01	
			         1.92000	5.90000e+01	
			         1.92167	8.00000e+01	
			         1.92333	1.03000e+02	
			         1.92500	1.29000e+02	
			         1.92667	1.56000e+02	
			         1.92833	1.84000e+02	
			         1.93000	2.12000e+02	
			         1.93167	2.38000e+02	
			         1.93333	2.62000e+02	
			         1.93500	2.83000e+02	
			         1.93667	3.00000e+02	
			         1.93833	3.11000e+02	
			         1.94000	3.17000e+02	
			         1.94167	3.18000e+02	
			         1.94333	3.14000e+02	
			         1.94500	3.05000e+02	
			         1.94667	2.92000e+02	
			         1.94833	2.75000e+02	
			         1.95000	2.56000e+02	
			         1.95167	2.34000e+02	
			         1.95333	2.11000e+02	
			         1.95500	1.86000e+02	
			         1.95667	1.61000e+02	
			         1.95833	1.35000e+02	
			         1.96000	1.10000e+02	
			         1.96167	8.50000e+01	
			         1.96333	6.10000e+01	
			         1.96500	3.90000e+01	
			         1.96667	1.80000e+01	
			         1.96833	-1.00000e+00	
			         1.97000	-1.90000e+01	
			         1.97167	-3.40000e+01	
			         1.97333	-4.90000e+01	
			         1.97500	-6.10000e+01	
			         1.97667	-7.20000e+01	
			         1.97833	-8.10000e+01	
			         1.98000	-8.80000e+01	
			         1.98167	-9.40000e+01	
			         1.98333	-9.80000e+01	
			         1.98500	-1.00000e+02	
			         1.98667	-1.01000e+02	
			         1.98833	-1.01000e+02	
			         1.99000	-1.00000e+02	
			         1.99167	-9.90000e+01	
			         1.99333	-9.70000e+01	
			         1.99500	-9.40000e+01	
			         1.99667	-9.20000e+01	
			         1.99833	-9.00000e+01	
			         2.00000	-8.90000e+01	
			         2.00167	-8.70000e+01	
			         2.00333	-8.60000e+01	
			         2.00500	-8.60000e+01	
			         2.00667	-8.50000e+01	
			         2.00833	-8.50000e+01	
			         2.01000	-8.50000e+01	
			         2.01167	-8.50000e+01	
			         2.01333	-8.60000e+01	
			         2.01500	-8.60000e+01	
			         2.01667	-8.70000e+01	
			         2.01833	-8.70000e+01	
			         2.02000	-8.60000e+01	
			         2.02167	-8.50000e+01	
			         2.02333	-8.40000e+01	
			         2.02500	-8.30000e+01	
			         2.02667	-8.10000e+01	
			         2.02833	-7.80000e+01	
			         2.03000	-7.60000e+01	
			         2.03167	-7.30000e+01	
			         2.03333	-7.00000e+01	
			         2.03500	-6.60000e+01	
			         2.03667	-6.30000e+01	
			         2.03833	-5.90000e+01	
			         2.04000	-5.60000e+01	
			         2.04167	-5.30000e+01	
			         2.04333	-5.10000e+01	
			         2.04500	-4.90000e+01	
			         2.04667	-4.70000e+01	
			         2.04833	-4.60000e+01	
			         2.05000	-4.50000e+01	
			         2.05167	-4.40000e+01	
			         2.05333	-4.30000e+01	
			         2.05500	-4.30000e+01	
			         2.05667	-4.30000e+01	
			         2.05833	-4.40000e+01	
			         2.06000	-4.40000e+01	
			         2.06167	-4.50000e+01	
			         2.06333	-4.60000e+01	
			         2.06500	-4.70000e+01	
			         2.06667	-4.80000e+01	
			         2.06833	-4.90000e+01	
			         2.07000	-5.00000e+01	
			         2.07167	-5.00000e+01	
			         2.07333	-4.90000e+01	
			         2.07500	-4.90000e+01	
			         2.07667	-4.80000e+01	
			         2.07833	-4.60000e+01	
			         2.08000	-4.50000e+01	
			         2.08167	-4.30000e+01	
			         2.08333	-4.10000e+01	
			         2.08500	-4.00000e+01	
			         2.08667	-3.80000e+01	
			         2.08833	-3.70000e+01	
			         2.09000	-3.50000e+01	
			         2.09167	-3.50000e+01	
			         2.09333	-3.40000e+01	
			         2.09500	-3.30000e+01	
			         2.09667	-3.30000e+01	
			         2.09833	-3.20000e+01	
			         2.10000	-3.20000e+01	
			         2.10167	-3.10000e+01	
			         2.10333	-3.10000e+01	
			         2.10500	-3.00000e+01	
			         2.10667	-2.90000e+01	
			         2.10833	-2.70000e+01	
			         2.11000	-2.60000e+01	
			         2.11167	-2.50000e+01	
			         2.11333	-2.40000e+01	
			         2.11500	-2.40000e+01	
			         2.11667	-2.30000e+01	
			         2.11833	-2.30000e+01	
			         2.12000	-2.30000e+01	
			         2.12167	-2.30000e+01	
			         2.12333	-2.40000e+01	
			         2.12500	-2.50000e+01	
			         2.12667	-2.50000e+01	
			         2.12833	-2.60000e+01	
			         2.13000	-2.60000e+01	
			         2.13167	-2.50000e+01	
			         2.13333	-2.50000e+01	
			         2.13500	-2.40000e+01	
			         2.13667	-2.20000e+01	
			         2.13833	-2.00000e+01	
			         2.14000	-1.70000e+01	
			         2.14167	-1.30000e+01	
			         2.14333	-1.00000e+01	
			         2.14500	-6.00000e+00	
			         2.14667	-2.00000e+00	
			         2.14833	2.00000e+00	
			         2.15000	5.00000e+00	
			         2.15167	8.00000e+00	
			         2.15333	1.10000e+01	
			         2.15500	1.30000e+01	
			         2.15667	1.40000e+01	
			         2.15833	1.60000e+01	
			         2.16000	1.60000e+01	
			         2.16167	1.70000e+01	
			         2.16333	1.70000e+01	
			         2.16500	1.60000e+01	
			         2.16667	1.60000e+01	
			         2.16833	1.60000e+01	
			         2.17000	1.50000e+01	
			         2.17167	1.50000e+01	
			         2.17333	1.40000e+01	
			         2.17500	1.40000e+01	
			         2.17667	1.40000e+01	
			         2.17833	1.50000e+01	
			         2.18000	1.60000e+01	
			         2.18167	1.70000e+01	
			         2.18333	1.80000e+01	
			         2.18500	2.00000e+01	
			         2.18667	2.20000e+01	
			         2.18833	2.40000e+01	
			         2.19000	2.60000e+01	
			         2.19167	2.80000e+01	
			         2.19333	3.10000e+01	
			         2.19500	3.30000e+01	
			         2.19667	3.50000e+01	
			         2.19833	3.70000e+01	
			         2.20000	3.90000e+01	
			         2.20167	4.10000e+01	
			         2.20333	4.20000e+01	
			         2.20500	4.30000e+01	
			         2.20667	4.40000e+01	
			         2.20833	4.40000e+01	
			         2.21000	4.40000e+01	
			         2.21167	4.40000e+01	
			         2.21333	4.40000e+01	
			         2.21500	4.30000e+01	
			         2.21667	4.30000e+01	
			         2.21833	4.20000e+01	
			         2.22000	4.10000e+01	
			         2.22167	3.90000e+01	
			         2.22333	3.80000e+01	
			         2.22500	3.60000e+01	
			         2.22667	3.40000e+01	
			         2.22833	3.30000e+01	
			         2.23000	3.10000e+01	
			         2.23167	2.90000e+01	
			         2.23333	2.60000e+01	
			         2.23500	2.40000e+01	
			         2.23667	2.20000e+01	
			         2.23833	1.90000e+01	
			         2.24000	1.60000e+01	
			         2.24167	1.40000e+01	
			         2.24333	1.10000e+01	
			         2.24500	8.00000e+00	
			         2.24667	5.00000e+00	
			         2.24833	3.00000e+00	
			         2.25000	0.00000e+00	
			         2.25167	-3.00000e+00	
			         2.25333	-6.00000e+00	
			         2.25500	-9.00000e+00	
			         2.25667	-1.20000e+01	
			         2.25833	-1.50000e+01	
			         2.26000	-1.70000e+01	
			         2.26167	-1.90000e+01	
			         2.26333	-2.10000e+01	
			         2.26500	-2.20000e+01	
			         2.26667	-2.20000e+01	
			         2.26833	-2.20000e+01	
			         2.27000	-2.20000e+01	
			         2.27167	-2.20000e+01	
			         2.27333	-2.10000e+01	
			         2.27500	-2.00000e+01	
			         2.27667	-1.80000e+01	
			         2.27833	-1.70000e+01	
			         2.28000	-1.60000e+01	
			         2.28167	-1.40000e+01	
			         2.28333	-1.30000e+01	
			         2.28500	-1.30000e+01	
			         2.28667	-1.30000e+01	
			         2.28833	-1.30000e+01	
			         2.29000	-1.30000e+01	
			         2.29167	-1.30000e+01	
			         2.29333	-1.40000e+01	
			         2.29500	-1.50000e+01	
			         2.29667	-1.50000e+01	
			         2.29833	-1.70000e+01	
			         2.30000	-1.80000e+01	
			         2.30167	-1.90000e+01	
			         2.30333	-2.00000e+01	
			         2.30500	-2.10000e+01	
			         2.30667	-2.20000e+01	
			         2.30833	-2.30000e+01	
			         2.31000	-2.30000e+01	
			         2.31167	-2.40000e+01	
			         2.31333	-2.40000e+01	
			         2.31500	-2.40000e+01	
			         2.31667	-2.30000e+01	
			         2.31833	-2.30000e+01	
			         2.32000	-2.20000e+01	
			         2.32167	-2.10000e+01	
			         2.32333	-2.00000e+01	
			         2.32500	-1.80000e+01	
			         2.32667	-1.70000e+01	
			         2.32833	-1.50000e+01	
			         2.33000	-1.30000e+01	
			         2.33167	-1.20000e+01	
			         2.33333	-1.00000e+01	
			         2.33500	-9.00000e+00	
			         2.33667	-8.00000e+00	
			         2.33833	-7.00000e+00	
			         2.34000	-6.00000e+00	
			         2.34167	-6.00000e+00	
			         2.34333	-6.00000e+00	
			         2.34500	-6.00000e+00	
			         2.34667	-6.00000e+00	
			         2.34833	-6.00000e+00	
			         2.35000	-7.00000e+00	
			         2.35167	-7.00000e+00	
			         2.35333	-8.00000e+00	
			         2.35500	-8.00000e+00	
			         2.35667	-9.00000e+00	
			         2.35833	-1.00000e+01	
			         2.36000	-1.10000e+01	
			         2.36167	-1.20000e+01	
			         2.36333	-1.20000e+01	
			         2.36500	-1.30000e+01	
			         2.36667	-1.30000e+01	
			         2.36833	-1.30000e+01	
			         2.37000	-1.20000e+01	
			         2.37167	-1.20000e+01	
			         2.37333	-1.10000e+01	
			         2.37500	-1.10000e+01	
			         2.37667	-1.00000e+01	
			         2.37833	-9.00000e+00	
			         2.38000	-8.00000e+00	
			         2.38167	-7.00000e+00	
			         2.38333	-6.00000e+00	
			         2.38500	-6.00000e+00	
			         2.38667	-6.00000e+00	
			         2.38833	-6.00000e+00	
			         2.39000	-6.00000e+00	
			         2.39167	-6.00000e+00	
			         2.39333	-6.00000e+00	
			         2.39500	-6.00000e+00	
			         2.39667	-6.00000e+00	
			         2.39833	-5.00000e+00	
			         2.40000	-5.00000e+00	
			         2.40167	-4.00000e+00	
			         2.40333	-3.00000e+00	
			         2.40500	-2.00000e+00	
			         2.40667	-1.00000e+00	
			         2.40833	0.00000e+00	
			         2.41000	2.00000e+00	
			         2.41167	3.00000e+00	
			         2.41333	4.00000e+00	
			         2.41500	5.00000e+00	
			         2.41667	5.00000e+00	
			         2.41833	5.00000e+00	
			         2.42000	5.00000e+00	
			         2.42167	5.00000e+00	
			         2.42333	4.00000e+00	
			         2.42500	4.00000e+00	
			         2.42667	3.00000e+00	
			         2.42833	1.00000e+00	
			         2.43000	0.00000e+00	
			         2.43167	-1.00000e+00	
			         2.43333	-2.00000e+00	
			         2.43500	-4.00000e+00	
			         2.43667	-5.00000e+00	
			         2.43833	-5.00000e+00	
			         2.44000	-6.00000e+00	
			         2.44167	-6.00000e+00	
			         2.44333	-6.00000e+00	
			         2.44500	-5.00000e+00	
			         2.44667	-4.00000e+00	
			         2.44833	-3.00000e+00	
			         2.45000	-2.00000e+00	
			         2.45167	0.00000e+00	
			         2.45333	1.00000e+00	
			         2.45500	2.00000e+00	
			         2.45667	3.00000e+00	
			         2.45833	4.00000e+00	
			         2.46000	4.00000e+00	
			         2.46167	4.00000e+00	
			         2.46333	3.00000e+00	
			         2.46500	2.00000e+00	
			         2.46667	1.00000e+00	
			         2.46833	0.00000e+00	
			         2.47000	-1.00000e+00	
			         2.47167	-3.00000e+00	
			         2.47333	-4.00000e+00	
			         2.47500	-6.00000e+00	
			         2.47667	-7.00000e+00	
			         2.47833	-7.00000e+00	
			         2.48000	-8.00000e+00	
			         2.48167	-8.00000e+00	
			         2.48333	-8.00000e+00	
			         2.48500	-9.00000e+00	
			         2.48667	-9.00000e+00	
			         2.48833	-9.00000e+00	
			         2.49000	-9.00000e+00	
			         2.49167	-9.00000e+00	
			         2.49333	-1.00000e+01	
			         2.49500	-1.00000e+01	
			         2.49667	-1.00000e+01	
			         2.49833	-9.00000e+00	
			         2.50000	-9.00000e+00	
			         2.50167	-9.00000e+00	
			         2.50333	-8.00000e+00	
			         2.50500	-8.00000e+00	
			         2.50667	-7.00000e+00	
			         2.50833	-6.00000e+00	
			         2.51000	-5.00000e+00	
			         2.51167	-4.00000e+00	
			         2.51333	-4.00000e+00	
			         2.51500	-3.00000e+00	
			         2.51667	-3.00000e+00	
			         2.51833	-3.00000e+00	
			         2.52000	-4.00000e+00	
			         2.52167	-5.00000e+00	
			         2.52333	-6.00000e+00	
			         2.52500	-6.00000e+00	
			         2.52667	-7.00000e+00	
			         2.52833	-8.00000e+00	
			         2.53000	-8.00000e+00	
			         2.53167	-9.00000e+00	
			         2.53333	-9.00000e+00	
			         2.53500	-1.00000e+01	
			         2.53667	-1.00000e+01	
			         2.53833	-1.00000e+01	
			         2.54000	-1.00000e+01	
			         2.54167	-1.00000e+01	
			         2.54333	-1.00000e+01	
			         2.54500	-9.00000e+00	
			         2.54667	-9.00000e+00	
			         2.54833	-9.00000e+00	
			         2.55000	-9.00000e+00	
			         2.55167	-9.00000e+00	
			         2.55333	-9.00000e+00	
			         2.55500	-9.00000e+00	
			         2.55667	-9.00000e+00	
			         2.55833	-1.00000e+01	
			         2.56000	-1.00000e+01	
			         2.56167	-1.00000e+01	
			         2.56333	-1.10000e+01	
			         2.56500	-1.20000e+01	
			         2.56667	-1.20000e+01	
			         2.56833	-1.30000e+01	
			         2.57000	-1.40000e+01	
			         2.57167	-1.40000e+01	
			         2.57333	-1.40000e+01	
			         2.57500	-1.40000e+01	
			         2.57667	-1.40000e+01	
			         2.57833	-1.30000e+01	
			         2.58000	-1.20000e+01	
			         2.58167	-1.10000e+01	
			         2.58333	-1.00000e+01	
			         2.58500	-8.00000e+00	
			         2.58667	-7.00000e+00	
			         2.58833	-5.00000e+00	
			         2.59000	-3.00000e+00	
			         2.59167	-2.00000e+00	
			         2.59333	-1.00000e+00	
			         2.59500	0.00000e+00	
			         2.59667	1.00000e+00	
			         2.59833	2.00000e+00	
			         2.60000	2.00000e+00	
			         2.60167	3.00000e+00	
			         2.60333	3.00000e+00	
			         2.60500	3.00000e+00	
			         2.60667	3.00000e+00	
			         2.60833	3.00000e+00	
			         2.61000	3.00000e+00	
			         2.61167	2.00000e+00	
			         2.61333	2.00000e+00	
			         2.61500	1.00000e+00	
			         2.61667	0.00000e+00	
			         2.61833	-2.00000e+00	
			         2.62000	-3.00000e+00	
			         2.62167	-5.00000e+00	
			         2.62333	-7.00000e+00	
			         2.62500	-8.00000e+00	
			         2.62667	-9.00000e+00	
			         2.62833	-9.00000e+00	
			         2.63000	-9.00000e+00	
			         2.63167	-8.00000e+00	
			         2.63333	-7.00000e+00	
			         2.63500	-6.00000e+00	
			         2.63667	-4.00000e+00	
			         2.63833	-1.00000e+00	
			         2.64000	1.00000e+00	
			         2.64167	4.00000e+00	
			         2.64333	6.00000e+00	
			         2.64500	8.00000e+00	
			         2.64667	9.00000e+00	
			         2.64833	1.00000e+01	
			         2.65000	9.00000e+00	
			         2.65167	9.00000e+00	
			         2.65333	8.00000e+00	
			         2.65500	6.00000e+00	
			         2.65667	5.00000e+00	
			         2.65833	3.00000e+00	
			         2.66000	1.00000e+00	
			         2.66167	-1.00000e+00	
			         2.66333	-3.00000e+00	
			         2.66500	-4.00000e+00	
			         2.66667	-6.00000e+00	
			         2.66833	-7.00000e+00	
			         2.67000	-8.00000e+00	
			         2.67167	-9.00000e+00	
			         2.67333	-1.00000e+01	
			         2.67500	-1.00000e+01	
			         2.67667	-1.00000e+01	
			         2.67833	-1.00000e+01	
			         2.68000	-1.00000e+01	
			         2.68167	-9.00000e+00	
			         2.68333	-9.00000e+00	
			         2.68500	-8.00000e+00	
			         2.68667	-7.00000e+00	
			         2.68833	-6.00000e+00	
			         2.69000	-6.00000e+00	
			         2.69167	-5.00000e+00	
			         2.69333	-5.00000e+00	
			         2.69500	-5.00000e+00	
			         2.69667	-5.00000e+00	
			         2.69833	-6.00000e+00	
			         2.70000	-6.00000e+00	
			         2.70167	-7.00000e+00	
			         2.70333	-8.00000e+00	
			         2.70500	-9.00000e+00	
			         2.70667	-9.00000e+00	
			         2.70833	-9.00000e+00	
			         2.71000	-9.00000e+00	
			         2.71167	-9.00000e+00	
			         2.71333	-9.00000e+00	
			         2.71500	-8.00000e+00	
			         2.71667	-7.00000e+00	
			         2.71833	-7.00000e+00	
			         2.72000	-6.00000e+00	
			         2.72167	-6.00000e+00	
			         2.72333	-6.00000e+00	
			         2.72500	-6.00000e+00	
			         2.72667	-7.00000e+00	
			         2.72833	-7.00000e+00	
			         2.73000	-8.00000e+00	
			         2.73167	-9.00000e+00	
			         2.73333	-1.00000e+01	
			         2.73500	-1.10000e+01	
			         2.73667	-1.10000e+01	
			         2.73833	-1.10000e+01	
			         2.74000	-1.10000e+01	
			         2.74167	-1.10000e+01	
			         2.74333	-1.00000e+01	
			         2.74500	-1.00000e+01	
			         2.74667	-9.00000e+00	
			         2.74833	-8.00000e+00	
			         2.75000	-7.00000e+00	
			         2.75167	-6.00000e+00	
			         2.75333	-5.00000e+00	
			         2.75500	-4.00000e+00	
			         2.75667	-3.00000e+00	
			         2.75833	-2.00000e+00	
			         2.76000	-1.00000e+00	
			         2.76167	0.00000e+00	
			         2.76333	0.00000e+00	
			         2.76500	1.00000e+00	
			         2.76667	2.00000e+00	
			         2.76833	3.00000e+00	
			         2.77000	4.00000e+00	
			         2.77167	5.00000e+00	
			         2.77333	6.00000e+00	
			         2.77500	7.00000e+00	
			         2.77667	7.00000e+00	
			         2.77833	7.00000e+00	
			         2.78000	7.00000e+00	
			         2.78167	7.00000e+00	
			         2.78333	7.00000e+00	
			         2.78500	6.00000e+00	
			         2.78667	5.00000e+00	
			         2.78833	4.00000e+00	
			         2.79000	3.00000e+00	
			         2.79167	2.00000e+00	
			         2.79333	1.00000e+00	
			         2.79500	0.00000e+00	
			         2.79667	0.00000e+00	
			         2.79833	-1.00000e+00	
			         2.80000	-1.00000e+00	
			         2.80167	-1.00000e+00	
			         2.80333	-1.00000e+00	
			         2.80500	0.00000e+00	
			         2.80667	0.00000e+00	
			         2.80833	1.00000e+00	
			         2.81000	2.00000e+00	
			         2.81167	3.00000e+00	
			         2.81333	4.00000e+00	
			         2.81500	5.00000e+00	
			         2.81667	5.00000e+00	
			         2.81833	6.00000e+00	
			         2.82000	6.00000e+00	
			         2.82167	7.00000e+00	
			         2.82333	7.00000e+00	
			         2.82500	7.00000e+00	
			         2.82667	7.00000e+00	
			         2.82833	7.00000e+00	
			         2.83000	7.00000e+00	
			         2.83167	7.00000e+00	
			         2.83333	7.00000e+00	
			         2.83500	7.00000e+00	
			         2.83667	7.00000e+00	
			         2.83833	7.00000e+00	
			         2.84000	7.00000e+00	
			         2.84167	7.00000e+00	
			         2.84333	7.00000e+00	
			         2.84500	7.00000e+00	
			         2.84667	7.00000e+00	
			         2.84833	7.00000e+00	
			         2.85000	8.00000e+00	
			         2.85167	8.00000e+00	
			         2.85333	8.00000e+00	
			         2.85500	9.00000e+00	
			         2.85667	9.00000e+00	
			         2.85833	9.00000e+00	
			         2.86000	9.00000e+00	
			         2.86167	9.00000e+00	
			         2.86333	8.00000e+00	
			         2.86500	8.00000e+00	
			         2.86667	8.00000e+00	
			         2.86833	8.00000e+00	
			         2.87000	1.00000e+01	
			         2.87167	1.30000e+01	
			         2.87333	1.80000e+01	
			         2.87500	2.70000e+01	
			         2.87667	3.90000e+01	
			         2.87833	5.40000e+01	
			         2.88000	7.30000e+01	
			         2.88167	9.50000e+01	
			         2.88333	1.19000e+02	
			         2.88500	1.45000e+02	
			         2.88667	1.72000e+02	
			         2.88833	1.99000e+02	
			         2.89000	2.25000e+02	
			         2.89167	2.49000e+02	
			         2.89333	2.71000e+02	
			         2.89500	2.89000e+02	
			         2.89667	3.03000e+02	
			         2.89833	3.11000e+02	
			         2.90000	3.15000e+02	
			         2.90167	3.13000e+02	
			         2.90333	3.07000e+02	
			         2.90500	2.96000e+02	
			         2.90667	2.82000e+02	
			         2.90833	2.64000e+02	
			         2.91000	2.43000e+02	
			         2.91167	2.21000e+02	
			         2.91333	1.97000e+02	
			         2.91500	1.72000e+02	
			         2.91667	1.47000e+02	
			         2.91833	1.22000e+02	
			         2.92000	9.80000e+01	
			         2.92167	7.50000e+01	
			         2.92333	5.40000e+01	
			         2.92500	3.40000e+01	
			         2.92667	1.50000e+01	
			         2.92833	-1.00000e+00	
			         2.93000	-1.60000e+01	
			         2.93167	-3.00000e+01	
			         2.93333	-4.20000e+01	
			         2.93500	-5.30000e+01	
			         2.93667	-6.30000e+01	
			         2.93833	-7.20000e+01	
			         2.94000	-7.90000e+01	
			         2.94167	-8.60000e+01	
			         2.94333	-9.20000e+01	
			         2.94500	-9.70000e+01	
			         2.94667	-1.00000e+02	
			         2.94833	-1.03000e+02	
			         2.95000	-1.05000e+02	
			         2.95167	-1.06000e+02	
			         2.95333	-1.06000e+02	
			         2.95500	-1.06000e+02	
			         2.95667	-1.05000e+02	
			         2.95833	-1.04000e+02	
			         2.96000	-1.02000e+02	
			         2.96167	-1.00000e+02	
