Velocity (TVI), in cm/s

Time (s) :	Trace 1 : 		Ecg : 		
0.02359   	-2.69362e+00		         0.00000	-1.00000e+01	
0.02998   	-1.97661e+00		         0.00167	-8.00000e+00	
0.03610   	-1.05567e+00		         0.00333	-7.00000e+00	
0.04222   	-1.24313e-02		         0.00500	-6.00000e+00	
0.04835   	1.28626e+00		         0.00667	-4.00000e+00	
0.05474   	2.44908e+00		         0.00833	-2.00000e+00	
0.06086   	1.95975e+00		         0.01000	0.00000e+00	
0.06698   	1.36619e+00		         0.01167	2.00000e+00	
0.07310   	8.63210e-01		         0.01333	6.00000e+00	
0.07949   	3.78122e-01		         0.01500	1.00000e+01	
0.08562   	5.36352e-01		         0.01667	1.70000e+01	
0.09174   	1.93895e+00		         0.01833	2.60000e+01	
0.09786   	3.02264e+00		         0.02000	3.70000e+01	
0.10425   	4.10524e+00		         0.02167	5.10000e+01	
0.11037   	5.09839e+00		         0.02333	6.80000e+01	
0.11649   	5.72289e+00		         0.02500	8.70000e+01	
0.12261   	6.05187e+00		         0.02667	1.09000e+02	
0.12901   	6.27001e+00		         0.02833	1.31000e+02	
0.13513   	6.28564e+00		         0.03000	1.54000e+02	
0.14125   	6.06113e+00		         0.03167	1.76000e+02	
0.14737   	5.77207e+00		         0.03333	1.96000e+02	
0.15376   	5.55020e+00		         0.03500	2.13000e+02	
0.15989   	5.31910e+00		         0.03667	2.26000e+02	
0.16600   	5.07228e+00		         0.03833	2.34000e+02	
0.17223   	5.06324e+00		         0.04000	2.36000e+02	
0.17852   	5.09330e+00		         0.04167	2.32000e+02	
0.18464   	5.08522e+00		         0.04333	2.22000e+02	
0.19076   	5.13421e+00		         0.04500	2.07000e+02	
0.19688   	5.25003e+00		         0.04667	1.87000e+02	
0.20327   	5.20692e+00		         0.04833	1.63000e+02	
0.20939   	5.12272e+00		         0.05000	1.36000e+02	
0.21552   	5.09803e+00		         0.05167	1.08000e+02	
0.22164   	4.98561e+00		         0.05333	7.90000e+01	
0.22803   	4.87558e+00		         0.05500	5.10000e+01	
0.23415   	4.82979e+00		         0.05667	2.40000e+01	
0.24027   	4.74597e+00		         0.05833	0.00000e+00	
0.24639   	4.61498e+00		         0.06000	-2.20000e+01	
0.25278   	4.52922e+00		         0.06167	-4.10000e+01	
0.25891   	4.38153e+00		         0.06333	-5.70000e+01	
0.26503   	4.18738e+00		         0.06500	-6.90000e+01	
0.27115   	4.05784e+00		         0.06667	-7.90000e+01	
0.27754   	3.89147e+00		         0.06833	-8.60000e+01	
0.28366   	3.72577e+00		         0.07000	-9.10000e+01	
0.28978   	3.58695e+00		         0.07167	-9.40000e+01	
0.29591   	3.54996e+00		         0.07333	-9.60000e+01	
0.30230   	3.39689e+00		         0.07500	-9.50000e+01	
0.30842   	3.30157e+00		         0.07667	-9.40000e+01	
0.31454   	3.19014e+00		         0.07833	-9.20000e+01	
0.32066   	3.11632e+00		         0.08000	-8.90000e+01	
0.32706   	2.86479e+00		         0.08167	-8.60000e+01	
0.33318   	2.72833e+00		         0.08333	-8.20000e+01	
0.33929   	2.51811e+00		         0.08500	-7.90000e+01	
0.34542   	2.31702e+00		         0.08667	-7.50000e+01	
0.35181   	2.09117e+00		         0.08833	-7.20000e+01	
0.35793   	1.91181e+00		         0.09000	-6.90000e+01	
0.36405   	1.68487e+00		         0.09167	-6.60000e+01	
0.37017   	1.43293e+00		         0.09333	-6.40000e+01	
0.37657   	1.12183e+00		         0.09500	-6.10000e+01	
0.38269   	7.40971e-01		         0.09667	-5.90000e+01	
0.38881   	2.78197e-01		         0.09833	-5.70000e+01	
0.39493   	-3.04733e-01		         0.10000	-5.50000e+01	
0.40132   	-9.20500e-01		         0.10167	-5.40000e+01	
0.40744   	-1.28744e+00		         0.10333	-5.20000e+01	
0.41356   	-1.32671e+00		         0.10500	-5.10000e+01	
0.41968   	-1.12458e+00		         0.10667	-4.90000e+01	
0.42608   	-4.47268e-01		         0.10833	-4.80000e+01	
0.43220   	3.63068e-01		         0.11000	-4.60000e+01	
0.43832   	9.88516e-01		         0.11167	-4.50000e+01	
0.44444   	1.58047e+00		         0.11333	-4.40000e+01	
0.45083   	1.96097e+00		         0.11500	-4.20000e+01	
0.45695   	2.09680e+00		         0.11667	-4.10000e+01	
0.46308   	2.15545e+00		         0.11833	-3.90000e+01	
0.46920   	2.29329e+00		         0.12000	-3.80000e+01	
0.47559   	2.19855e+00		         0.12167	-3.70000e+01	
0.48171   	1.98549e+00		         0.12333	-3.60000e+01	
0.48822   	1.78288e+00		         0.12500	-3.40000e+01	
0.49395   	1.44279e+00		         0.12667	-3.30000e+01	
0.50035   	8.68305e-01		         0.12833	-3.20000e+01	
0.50647   	1.88089e-02		         0.13000	-3.10000e+01	
0.51259   	-6.22558e-01		         0.13167	-2.90000e+01	
0.51871   	-1.58788e+00		         0.13333	-2.80000e+01	
0.52510   	-2.44182e+00		         0.13500	-2.70000e+01	
0.53122   	-3.17078e+00		         0.13667	-2.60000e+01	
0.53758   	-3.66748e+00		         0.13833	-2.50000e+01	
0.54347   	-4.20358e+00		         0.14000	-2.50000e+01	
0.54986   	-4.49222e+00		         0.14167	-2.40000e+01	
0.55598   	-4.67537e+00		         0.14333	-2.40000e+01	
0.56210   	-4.76850e+00		         0.14500	-2.30000e+01	
0.56822   	-4.74160e+00		         0.14667	-2.30000e+01	
0.57461   	-4.58470e+00		         0.14833	-2.20000e+01	
0.58074   	-4.36499e+00		         0.15000	-2.20000e+01	
0.58686   	-4.10375e+00		         0.15167	-2.20000e+01	
0.59298   	-3.83513e+00		         0.15333	-2.10000e+01	
0.59937   	-3.58426e+00		         0.15500	-2.00000e+01	
0.60549   	-3.39864e+00		         0.15667	-2.00000e+01	
0.61161   	-3.22959e+00		         0.15833	-1.90000e+01	
0.61773   	-3.01896e+00		         0.16000	-1.80000e+01	
0.62413   	-2.78569e+00		         0.16167	-1.80000e+01	
0.63025   	-2.57536e+00		         0.16333	-1.70000e+01	
0.63637   	-2.33827e+00		         0.16500	-1.60000e+01	
0.64249   	-2.05544e+00		         0.16667	-1.50000e+01	
0.64888   	-1.83549e+00		         0.16833	-1.40000e+01	
0.65500   	-1.64587e+00		         0.17000	-1.30000e+01	
0.66113   	-1.40681e+00		         0.17167	-1.30000e+01	
0.66724   	-1.17139e+00		         0.17333	-1.20000e+01	
0.67364   	-9.26355e-01		         0.17500	-1.20000e+01	
0.67976   	-6.92911e-01		         0.17667	-1.10000e+01	
0.68588   	-4.27271e-01		         0.17833	-1.10000e+01	
0.69200   	-1.94773e-01		         0.18000	-1.10000e+01	
0.69839   	3.59287e-02		         0.18167	-1.10000e+01	
0.70451   	1.36725e-01		         0.18333	-1.00000e+01	
0.71064   	1.99809e-01		         0.18500	-1.00000e+01	
0.71676   	1.99768e-01		         0.18667	-1.00000e+01	
0.72315   	1.62216e-01		         0.18833	-1.00000e+01	
0.72927   	9.55531e-02		         0.19000	-1.00000e+01	
0.73539   	3.11391e-02		         0.19167	-1.00000e+01	
0.74151   	-3.35552e-02		         0.19333	-9.00000e+00	
0.74791   	-7.97655e-02		         0.19500	-9.00000e+00	
0.75403   	-1.07453e-01		         0.19667	-9.00000e+00	
0.76015   	-1.69037e-01		         0.19833	-8.00000e+00	
0.76627   	-2.10682e-01		         0.20000	-7.00000e+00	
0.77266   	-2.27557e-01		         0.20167	-7.00000e+00	
0.77878   	-2.77331e-01		         0.20333	-6.00000e+00	
0.78490   	-3.03276e-01		         0.20500	-6.00000e+00	
0.79103   	-3.23147e-01		         0.20667	-5.00000e+00	
0.79742   	-3.26049e-01		         0.20833	-4.00000e+00	
0.80354   	-3.45657e-01		         0.21000	-4.00000e+00	
0.80966   	-3.41249e-01		         0.21167	-3.00000e+00	
0.81578   	-3.37795e-01		         0.21333	-2.00000e+00	
0.82217   	-3.38102e-01		         0.21500	-2.00000e+00	
0.82830   	-3.30077e-01		         0.21667	-1.00000e+00	
0.83442   	-3.55685e-01		         0.21833	-1.00000e+00	
0.84054   	-3.80722e-01		         0.22000	-1.00000e+00	
0.84693   	-4.29677e-01		         0.22167	0.00000e+00	
0.85327   	-4.51685e-01		         0.22333	0.00000e+00	
0.85917   	-4.77287e-01		         0.22500	0.00000e+00	
0.86529   	-4.73975e-01		         0.22667	0.00000e+00	
0.87169   	-4.65233e-01		         0.22833	1.00000e+00	
0.87781   	-4.51048e-01		         0.23000	1.00000e+00	
0.88393   	-4.51279e-01		         0.23167	1.00000e+00	
0.89005   	-4.52484e-01		         0.23333	1.00000e+00	
0.89645   	-4.53158e-01		         0.23500	1.00000e+00	
0.90256   	-4.58452e-01		         0.23667	1.00000e+00	
0.90869   	-4.55793e-01		         0.23833	1.00000e+00	
0.91481   	-4.44194e-01		         0.24000	1.00000e+00	
0.92120   	-4.51488e-01		         0.24167	2.00000e+00	
0.92732   	-4.81192e-01		         0.24333	2.00000e+00	
0.93344   	-5.49334e-01		         0.24500	3.00000e+00	
0.93956   	-7.43744e-01		         0.24667	3.00000e+00	
0.94595   	-1.06145e+00		         0.24833	4.00000e+00	
0.95208   	-1.48617e+00		         0.25000	4.00000e+00	
0.95820   	-2.15141e+00		         0.25167	5.00000e+00	
0.96432   	-2.89129e+00		         0.25333	5.00000e+00	
0.97071   	-3.70437e+00		         0.25500	6.00000e+00	
0.97683   	-4.59845e+00		         0.25667	6.00000e+00	
0.98295   	-5.44517e+00		         0.25833	7.00000e+00	
0.98908   	-6.25847e+00		         0.26000	7.00000e+00	
0.99547   	-7.03266e+00		         0.26167	7.00000e+00	
1.00159   	-7.59923e+00		         0.26333	7.00000e+00	
1.00771   	-8.20336e+00		         0.26500	8.00000e+00	
1.01383   	-8.49375e+00		         0.26667	8.00000e+00	
1.02022   	-8.48361e+00		         0.26833	8.00000e+00	
1.02634   	-8.24171e+00		         0.27000	9.00000e+00	
1.03246   	-7.77914e+00		         0.27167	1.00000e+01	
1.03859   	-6.90484e+00		         0.27333	1.00000e+01	
1.04498   	-5.97970e+00		         0.27500	1.10000e+01	
1.05110   	-4.97222e+00		         0.27667	1.20000e+01	
1.05722   	-4.02205e+00		         0.27833	1.30000e+01	
1.06334   	-3.45322e+00		         0.28000	1.40000e+01	
1.06973   	-2.99658e+00		         0.28167	1.50000e+01	
1.07586   	-2.49488e+00		         0.28333	1.60000e+01	
1.08198   	-2.17282e+00		         0.28500	1.70000e+01	
1.08810   	-2.12706e+00		         0.28667	1.80000e+01	
1.09449   	-1.48331e+00		         0.28833	1.90000e+01	
1.10061   	-5.40289e-01		         0.29000	2.00000e+01	
1.10673   	5.01790e-01		         0.29167	2.00000e+01	
1.11286   	1.66110e+00		         0.29333	2.10000e+01	
1.11924   	2.56078e+00		         0.29500	2.20000e+01	
1.12537   	2.34725e+00		         0.29667	2.30000e+01	
1.13149   	1.82732e+00		         0.29833	2.30000e+01	
1.13761   	8.85619e-01		         0.30000	2.40000e+01	
1.14400   	1.47578e-01		         0.30167	2.50000e+01	
1.15012   	2.66027e-01		         0.30333	2.50000e+01	
1.15624   	1.30250e+00		         0.30500	2.60000e+01	
1.16237   	2.51289e+00		         0.30667	2.60000e+01	
1.16876   	3.79401e+00		         0.30833	2.70000e+01	
1.17488   	4.81752e+00		         0.31000	2.70000e+01	
1.18100   	5.51876e+00		         0.31167	2.80000e+01	
1.18712   	5.90852e+00		         0.31333	2.90000e+01	
1.19351   	6.06455e+00		         0.31500	2.90000e+01	
1.19963   	5.98953e+00		         0.31667	3.00000e+01	
1.20576   	5.93966e+00		         0.31833	3.00000e+01	
1.21188   	5.74683e+00		         0.32000	3.10000e+01	
1.21827   	5.58008e+00		         0.32167	3.10000e+01	
1.22439   	5.32998e+00		         0.32333	3.10000e+01	
1.23051   	5.24833e+00		         0.32500	3.20000e+01	
1.23663   	5.17155e+00		         0.32667	3.20000e+01	
1.24303   	5.18337e+00		         0.32833	3.30000e+01	
1.24915   	5.12076e+00		         0.33000	3.30000e+01	
1.25527   	5.14542e+00		         0.33167	3.30000e+01	
1.26139   	5.14456e+00		         0.33333	3.40000e+01	
1.26778   	5.03998e+00		         0.33500	3.40000e+01	
1.27390   	4.87516e+00		         0.33667	3.50000e+01	
1.28003   	4.75842e+00		         0.33833	3.50000e+01	
1.28614   	4.60936e+00		         0.34000	3.60000e+01	
1.29254   	4.50690e+00		         0.34167	3.60000e+01	
1.29866   	4.43436e+00		         0.34333	3.70000e+01	
1.30478   	4.35556e+00		         0.34500	3.70000e+01	
1.31090   	4.32867e+00		         0.34667	3.60000e+01	
1.31751   	4.32254e+00		         0.34833	3.60000e+01	
1.32342   	4.24750e+00		         0.35000	3.50000e+01	
1.32954   	4.14940e+00		         0.35167	3.50000e+01	
1.33566   	3.99926e+00		         0.35333	3.40000e+01	
1.34205   	3.82261e+00		         0.35500	3.20000e+01	
1.34817   	3.70384e+00		         0.35667	3.10000e+01	
1.35429   	3.56736e+00		         0.35833	2.90000e+01	
1.36041   	3.41834e+00		         0.36000	2.80000e+01	
1.36681   	3.36830e+00		         0.36167	2.60000e+01	
1.37293   	3.27502e+00		         0.36333	2.40000e+01	
1.37905   	3.12866e+00		         0.36500	2.30000e+01	
1.38517   	2.93921e+00		         0.36667	2.10000e+01	
1.39156   	2.74747e+00		         0.36833	1.90000e+01	
1.39768   	2.55260e+00		         0.37000	1.80000e+01	
1.40380   	2.37830e+00		         0.37167	1.60000e+01	
1.40993   	2.16342e+00		         0.37333	1.40000e+01	
1.41632   	1.99528e+00		         0.37500	1.20000e+01	
1.42244   	1.86431e+00		         0.37667	1.00000e+01	
1.42856   	1.64772e+00		         0.37833	8.00000e+00	
1.43468   	1.41940e+00		         0.38000	6.00000e+00	
1.44108   	1.11973e+00		         0.38167	4.00000e+00	
1.44719   	7.58040e-01		         0.38333	1.00000e+00	
1.45332   	2.88896e-01		         0.38500	-1.00000e+00	
1.45944   	-3.15197e-01		         0.38667	-3.00000e+00	
1.46583   	-9.30206e-01		         0.38833	-6.00000e+00	
1.47195   	-1.49620e+00		         0.39000	-8.00000e+00	
1.47807   	-1.57869e+00		         0.39167	-1.00000e+01	
1.48419   	-1.10957e+00		         0.39333	-1.20000e+01	
1.49059   	-3.22467e-01		         0.39500	-1.40000e+01	
1.49671   	5.41601e-01		         0.39667	-1.60000e+01	
1.50283   	1.38149e+00		         0.39833	-1.80000e+01	
1.50895   	2.07183e+00		         0.40000	-2.00000e+01	
1.51534   	2.20998e+00		         0.40167	-2.10000e+01	
1.52147   	2.15574e+00		         0.40333	-2.20000e+01	
1.52759   	2.20678e+00		         0.40500	-2.40000e+01	
1.53371   	2.37703e+00		         0.40667	-2.50000e+01	
1.54010   	2.22081e+00		         0.40833	-2.60000e+01	
1.54622   	2.04372e+00		         0.41000	-2.70000e+01	
1.55234   	1.72649e+00		         0.41167	-2.90000e+01	
1.55846   	1.26567e+00		         0.41333	-3.00000e+01	
1.56485   	7.47554e-01		         0.41500	-3.10000e+01	
1.57098   	-2.29656e-02		         0.41667	-3.20000e+01	
1.57710   	-8.13629e-01		         0.41833	-3.30000e+01	
1.58335   	-1.50042e+00		         0.42000	-3.30000e+01	
1.58961   	-2.20937e+00		         0.42167	-3.40000e+01	
1.59573   	-3.00550e+00		         0.42333	-3.50000e+01	
1.60185   	-3.51816e+00		         0.42500	-3.50000e+01	
1.60798   	-3.97381e+00		         0.42667	-3.50000e+01	
1.61437   	-4.28079e+00		         0.42833	-3.50000e+01	
1.62049   	-4.59153e+00		         0.43000	-3.50000e+01	
1.62661   	-4.75123e+00		         0.43167	-3.50000e+01	
1.63273   	-4.78327e+00		         0.43333	-3.40000e+01	
1.63912   	-4.61605e+00		         0.43500	-3.40000e+01	
1.64524   	-4.46517e+00		         0.43667	-3.30000e+01	
1.65136   	-4.19139e+00		         0.43833	-3.20000e+01	
1.65749   	-3.90017e+00		         0.44000	-3.20000e+01	
1.66388   	-3.61565e+00		         0.44167	-3.10000e+01	
1.67000   	-3.40662e+00		         0.44333	-3.00000e+01	
1.67612   	-3.12395e+00		         0.44500	-2.90000e+01	
1.68224   	-2.89507e+00		         0.44667	-2.80000e+01	
1.68864   	-2.66935e+00		         0.44833	-2.70000e+01	
1.69476   	-2.49111e+00		         0.45000	-2.60000e+01	
1.70088   	-2.28321e+00		         0.45167	-2.50000e+01	
1.70700   	-2.13050e+00		         0.45333	-2.40000e+01	
1.71339   	-1.87061e+00		         0.45500	-2.30000e+01	
1.71951   	-1.63476e+00		         0.45667	-2.20000e+01	
1.72563   	-1.36642e+00		         0.45833	-2.10000e+01	
1.73175   	-1.09116e+00		         0.46000	-2.00000e+01	
1.73815   	-8.16523e-01		         0.46167	-1.90000e+01	
1.74427   	-6.18440e-01		         0.46333	-1.90000e+01	
1.75039   	-4.11296e-01		         0.46500	-1.80000e+01	
1.75651   	-2.21497e-01		         0.46667	-1.70000e+01	
1.76290   	-5.71268e-02		         0.46833	-1.70000e+01	
1.76902   	4.25480e-02		         0.47000	-1.60000e+01	
1.77515   	1.10686e-01		         0.47167	-1.60000e+01	
1.78127   	1.48707e-01		         0.47333	-1.50000e+01	
1.78766   	1.49002e-01		         0.47500	-1.50000e+01	
1.79378   	1.20520e-01		         0.47667	-1.50000e+01	
1.79990   	9.26851e-02		         0.47833	-1.40000e+01	
1.80602   	4.48818e-02		         0.48000	-1.40000e+01	
1.81242   	-9.98408e-04		         0.48167	-1.30000e+01	
1.81854   	-6.40086e-02		         0.48333	-1.30000e+01	
1.82466   	-1.52621e-01		         0.48500	-1.30000e+01	
1.83078   	-2.34216e-01		         0.48667	-1.20000e+01	
1.83718   	-3.05301e-01		         0.48833	-1.20000e+01	
1.84329   	-3.64831e-01		         0.49000	-1.10000e+01	
1.84941   	-3.85587e-01		         0.49167	-1.10000e+01	
1.85553   	-3.82584e-01		         0.49333	-1.00000e+01	
1.86193   	-3.74412e-01		         0.49500	-9.00000e+00	
1.86805   	-3.54456e-01		         0.49667	-9.00000e+00	
1.87417   	-3.29935e-01		         0.49833	-8.00000e+00	
1.88029   	-3.19722e-01		         0.50000	-8.00000e+00	
1.88668   	-3.37099e-01		         0.50167	-7.00000e+00	
1.89280   	-3.61997e-01		         0.50333	-7.00000e+00	
1.89892   	-3.97301e-01		         0.50500	-6.00000e+00	
1.90505   	-4.44455e-01		         0.50667	-6.00000e+00	
1.91144   	-4.71980e-01		         0.50833	-6.00000e+00	
1.91756   	-4.77591e-01		         0.51000	-5.00000e+00	
1.92368   	-4.64439e-01		         0.51167	-5.00000e+00	
1.92980   	-4.55237e-01		         0.51333	-5.00000e+00	
1.93619   	-4.38097e-01		         0.51500	-5.00000e+00	
1.94232   	-4.43204e-01		         0.51667	-5.00000e+00	
1.94862   	-4.33653e-01		         0.51833	-5.00000e+00	
1.95456   	-4.40995e-01		         0.52000	-6.00000e+00	
1.96095   	-4.46082e-01		         0.52167	-6.00000e+00	
1.96706   	-4.77106e-01		         0.52333	-6.00000e+00	
1.97319   	-5.71296e-01		         0.52500	-6.00000e+00	
1.97931   	-7.18394e-01		         0.52667	-6.00000e+00	
1.98571   	-8.86902e-01		         0.52833	-5.00000e+00	
1.99183   	-1.13343e+00		         0.53000	-5.00000e+00	
1.99833   	-1.65657e+00		         0.53167	-5.00000e+00	
2.00406   	-2.31390e+00		         0.53333	-4.00000e+00	
2.01046   	-3.04703e+00		         0.53500	-4.00000e+00	
2.01658   	-3.94731e+00		         0.53667	-3.00000e+00	
2.02271   	-4.90657e+00		         0.53833	-3.00000e+00	
2.02883   	-5.73175e+00		         0.54000	-2.00000e+00	
2.03522   	-6.56631e+00		         0.54167	-1.00000e+00	
2.04134   	-7.34602e+00		         0.54333	-1.00000e+00	
2.04746   	-7.87833e+00		         0.54500	0.00000e+00	
2.05358   	-8.16909e+00		         0.54667	0.00000e+00	
2.05998   	-8.36227e+00		         0.54833	0.00000e+00	
2.06610   	-8.27787e+00		         0.55000	0.00000e+00	
2.07222   	-7.92773e+00		         0.55167	0.00000e+00	
2.07834   	-7.27169e+00		         0.55333	0.00000e+00	
2.08473   	-6.38828e+00		         0.55500	-1.00000e+00	
2.09085   	-5.29722e+00		         0.55667	-1.00000e+00	
2.09697   	-4.27391e+00		         0.55833	-2.00000e+00	
2.10310   	-3.38853e+00		         0.56000	-3.00000e+00	
2.10949   	-2.94954e+00		         0.56167	-3.00000e+00	
2.11561   	-2.69177e+00		         0.56333	-4.00000e+00	
2.12173   	-2.93608e+00		         0.56500	-5.00000e+00	
2.12785   	-2.47583e+00		         0.56667	-6.00000e+00	
2.13424   	-2.20996e+00		         0.56833	-6.00000e+00	
2.14037   	-1.39684e+00		         0.57000	-6.00000e+00	
2.14648   	-3.39233e-01		         0.57167	-7.00000e+00	
2.15261   	1.30640e+00		         0.57333	-7.00000e+00	
2.15900   	2.17891e+00		         0.57500	-7.00000e+00	
2.16512   	2.53173e+00		         0.57667	-8.00000e+00	
2.17124   	1.85383e+00		         0.57833	-8.00000e+00	
2.17736   	1.14016e+00		         0.58000	-8.00000e+00	
2.18375   	3.96263e-01		         0.58167	-8.00000e+00	
2.18988   	-9.61365e-02		         0.58333	-8.00000e+00	
2.19600   	4.96596e-01		         0.58500	-8.00000e+00	
2.20212   	1.86686e+00		         0.58667	-9.00000e+00	
2.20851   	3.01916e+00		         0.58833	-9.00000e+00	
2.21471   	4.06097e+00		         0.59000	-9.00000e+00	
2.22075   	5.06207e+00		         0.59167	-9.00000e+00	
2.22688   	5.56304e+00		         0.59333	-9.00000e+00	
2.23327   	5.95653e+00		         0.59500	-9.00000e+00	
2.23939   	6.05988e+00		         0.59667	-9.00000e+00	
2.24551   	6.05224e+00		         0.59833	-9.00000e+00	
2.25163   	5.84567e+00		         0.60000	-9.00000e+00	
