Velocity (TVI), in cm/s

Time (s) :	Trace 1 : 		Ecg : 		
0.00850   	-1.44635e+00		         0.00000	3.07000e+02	
0.01816   	-4.94666e-01		         0.00167	3.41000e+02	
0.02782   	4.11076e-01		         0.00333	3.70000e+02	
0.03747   	-6.96695e-01		         0.00500	3.93000e+02	
0.04741   	-3.24359e+00		         0.00667	4.09000e+02	
0.05706   	-3.79263e+00		         0.00833	4.17000e+02	
0.06673   	-1.84375e+00		         0.01000	4.15000e+02	
0.07639   	1.06803e+00		         0.01167	4.04000e+02	
0.08632   	2.72796e+00		         0.01333	3.84000e+02	
0.09598   	3.81181e+00		         0.01500	3.55000e+02	
0.10564   	4.52394e+00		         0.01667	3.19000e+02	
0.11530   	4.64807e+00		         0.01833	2.77000e+02	
0.12524   	4.61026e+00		         0.02000	2.31000e+02	
0.13489   	4.48583e+00		         0.02167	1.83000e+02	
0.14456   	4.35590e+00		         0.02333	1.34000e+02	
0.15421   	4.28811e+00		         0.02500	8.60000e+01	
0.16414   	4.41122e+00		         0.02667	4.00000e+01	
0.17381   	4.50088e+00		         0.02833	-4.00000e+00	
0.18348   	4.57669e+00		         0.03000	-4.30000e+01	
0.19313   	4.46353e+00		         0.03167	-7.60000e+01	
0.20305   	4.37504e+00		         0.03333	-1.04000e+02	
0.21272   	4.28679e+00		         0.03500	-1.26000e+02	
0.22239   	4.28013e+00		         0.03667	-1.41000e+02	
0.23204   	4.19809e+00		         0.03833	-1.51000e+02	
0.24198   	4.03739e+00		         0.04000	-1.56000e+02	
0.25163   	3.87609e+00		         0.04167	-1.57000e+02	
0.26129   	3.68765e+00		         0.04333	-1.54000e+02	
0.27095   	3.64192e+00		         0.04500	-1.50000e+02	
0.28088   	3.49155e+00		         0.04667	-1.43000e+02	
0.29055   	3.40082e+00		         0.04833	-1.35000e+02	
0.30020   	3.16934e+00		         0.05000	-1.28000e+02	
0.30987   	2.96746e+00		         0.05167	-1.20000e+02	
0.31979   	2.63195e+00		         0.05333	-1.13000e+02	
0.32946   	2.22900e+00		         0.05500	-1.06000e+02	
0.33912   	1.77849e+00		         0.05667	-1.01000e+02	
0.34877   	1.16880e+00		         0.05833	-9.60000e+01	
0.35871   	3.15381e-01		         0.06000	-9.30000e+01	
0.36837   	-9.79692e-01		         0.06167	-9.00000e+01	
0.37803   	-2.01108e+00		         0.06333	-8.70000e+01	
0.38770   	-1.77111e+00		         0.06500	-8.40000e+01	
0.39762   	-6.44125e-01		         0.06667	-8.20000e+01	
0.40728   	7.32894e-01		         0.06833	-8.00000e+01	
0.41694   	1.70929e+00		         0.07000	-7.70000e+01	
0.42660   	2.62365e+00		         0.07167	-7.50000e+01	
0.43654   	3.50920e+00		         0.07333	-7.30000e+01	
0.44619   	3.77794e+00		         0.07500	-7.20000e+01	
0.45586   	3.77798e+00		         0.07667	-7.00000e+01	
0.46551   	3.05105e+00		         0.07833	-6.90000e+01	
0.47546   	2.08784e+00		         0.08000	-6.80000e+01	
0.48510   	3.12165e-01		         0.08167	-6.60000e+01	
0.49477   	-1.02085e+00		         0.08333	-6.60000e+01	
0.50443   	-2.29640e+00		         0.08500	-6.50000e+01	
0.51436   	-2.87528e+00		         0.08667	-6.50000e+01	
0.52402   	-3.24439e+00		         0.08833	-6.40000e+01	
0.53368   	-3.32001e+00		         0.09000	-6.40000e+01	
0.54334   	-3.47877e+00		         0.09167	-6.30000e+01	
0.55329   	-3.52027e+00		         0.09333	-6.30000e+01	
0.56293   	-3.26325e+00		         0.09500	-6.20000e+01	
0.57259   	-2.68443e+00		         0.09667	-6.20000e+01	
0.58224   	-2.11544e+00		         0.09833	-6.10000e+01	
0.59218   	-1.68321e+00		         0.10000	-6.00000e+01	
0.60184   	-1.24146e+00		         0.10167	-5.90000e+01	
0.61151   	-7.60033e-01		         0.10333	-5.80000e+01	
0.62116   	-4.23464e-01		         0.10500	-5.70000e+01	
0.63109   	-1.09903e-01		         0.10667	-5.60000e+01	
0.64076   	-1.03102e-02		         0.10833	-5.50000e+01	
0.65041   	1.40655e-01		         0.11000	-5.30000e+01	
0.66008   	2.05282e-01		         0.11167	-5.20000e+01	
0.67001   	2.38333e-01		         0.11333	-5.10000e+01	
0.67967   	2.30193e-01		         0.11500	-4.90000e+01	
0.68933   	1.51302e-01		         0.11667	-4.70000e+01	
0.69899   	5.06462e-02		         0.11833	-4.50000e+01	
0.70892   	-4.64270e-02		         0.12000	-4.40000e+01	
0.71858   	-1.47869e-01		         0.12167	-4.20000e+01	
0.72824   	-2.39170e-01		         0.12333	-4.10000e+01	
0.73791   	-3.92275e-01		         0.12500	-3.90000e+01	
0.74794   	-4.96521e-01		         0.12667	-3.80000e+01	
0.75750   	-7.80488e-01		         0.12833	-3.80000e+01	
0.76715   	-1.26553e+00		         0.13000	-3.70000e+01	
0.77682   	-2.29022e+00		         0.13167	-3.70000e+01	
0.78677   	-3.73650e+00		         0.13333	-3.80000e+01	
0.79640   	-5.27587e+00		         0.13500	-3.80000e+01	
0.80606   	-6.65338e+00		         0.13667	-3.80000e+01	
0.81572   	-7.50181e+00		         0.13833	-3.80000e+01	
0.82567   	-7.95447e+00		         0.14000	-3.80000e+01	
0.83531   	-7.93012e+00		         0.14167	-3.70000e+01	
0.84498   	-7.34542e+00		         0.14333	-3.70000e+01	
0.85464   	-6.42092e+00		         0.14500	-3.60000e+01	
0.86457   	-4.94468e+00		         0.14667	-3.50000e+01	
0.87423   	-3.76498e+00		         0.14833	-3.30000e+01	
0.88389   	-2.49765e+00		         0.15000	-3.10000e+01	
0.89355   	-1.73605e+00		         0.15167	-2.90000e+01	
0.90349   	-3.00464e-01		         0.15333	-2.60000e+01	
0.91314   	5.36100e-01		         0.15500	-2.40000e+01	
0.92280   	-4.60461e-01		         0.15667	-2.10000e+01	
0.93246   	-2.50717e+00		         0.15833	-1.90000e+01	
0.94240   	-4.04921e+00		         0.16000	-1.70000e+01	
0.95206   	-2.99928e+00		         0.16167	-1.50000e+01	
0.96171   	-5.96934e-01		         0.16333	-1.30000e+01	
0.97138   	1.94220e+00		         0.16500	-1.10000e+01	
0.98131   	3.87097e+00		         0.16667	-9.00000e+00	
0.99097   	4.62789e+00		         0.16833	-7.00000e+00	
1.00063   	4.80619e+00		         0.17000	-5.00000e+00	
1.01029   	4.62879e+00		         0.17167	-3.00000e+00	
1.02022   	4.43656e+00		         0.17333	-1.00000e+00	
1.02988   	4.32355e+00		         0.17500	0.00000e+00	
1.03954   	4.34072e+00		         0.17667	2.00000e+00	
1.04920   	4.41739e+00		         0.17833	3.00000e+00	
1.05913   	4.49829e+00		         0.18000	3.00000e+00	
1.06879   	4.56119e+00		         0.18167	4.00000e+00	
1.07845   	4.49299e+00		         0.18333	4.00000e+00	
1.08811   	4.41293e+00		         0.18500	5.00000e+00	
1.09805   	4.32869e+00		         0.18667	5.00000e+00	
1.10771   	4.31101e+00		         0.18833	6.00000e+00	
1.11736   	4.27590e+00		         0.19000	6.00000e+00	
1.12702   	4.09054e+00		         0.19167	7.00000e+00	
1.13698   	3.84783e+00		         0.19333	7.00000e+00	
1.14662   	3.67965e+00		         0.19500	8.00000e+00	
1.15628   	3.51029e+00		         0.19667	9.00000e+00	
1.16594   	3.40358e+00		         0.19833	1.00000e+01	
1.17587   	3.14355e+00		         0.20000	1.00000e+01	
1.18553   	2.82481e+00		         0.20167	1.10000e+01	
1.19519   	2.66764e+00		         0.20333	1.10000e+01	
1.20485   	2.52048e+00		         0.20500	1.20000e+01	
1.21478   	2.43104e+00		         0.20667	1.30000e+01	
1.22445   	2.08724e+00		         0.20833	1.30000e+01	
1.23411   	1.74800e+00		         0.21000	1.40000e+01	
1.24376   	1.38893e+00		         0.21167	1.50000e+01	
1.25370   	9.67311e-01		         0.21333	1.50000e+01	
1.26335   	4.08419e-01		         0.21500	1.60000e+01	
1.27302   	8.40723e-01		         0.21667	1.60000e+01	
1.28267   	1.58142e+00		         0.21833	1.70000e+01	
1.29261   	2.93145e+00		         0.22000	1.80000e+01	
1.30227   	3.47483e+00		         0.22167	2.00000e+01	
1.31193   	4.04152e+00		         0.22333	2.20000e+01	
1.32159   	4.16939e+00		         0.22500	2.40000e+01	
1.33152   	4.23115e+00		         0.22667	2.60000e+01	
1.34117   	3.83870e+00		         0.22833	2.70000e+01	
1.35085   	2.49602e+00		         0.23000	2.90000e+01	
1.36050   	5.12981e-01		         0.23167	3.00000e+01	
1.37043   	-1.29507e+00		         0.23333	3.20000e+01	
1.38009   	-2.34775e+00		         0.23500	3.30000e+01	
1.38975   	-2.82482e+00		         0.23667	3.40000e+01	
1.39941   	-3.43238e+00		         0.23833	3.50000e+01	
1.40934   	-3.75612e+00		         0.24000	3.60000e+01	
1.41901   	-4.05115e+00		         0.24167	3.80000e+01	
1.42866   	-3.95093e+00		         0.24333	4.00000e+01	
1.43833   	-3.83808e+00		         0.24500	4.20000e+01	
1.44826   	-3.34566e+00		         0.24667	4.50000e+01	
1.45792   	-2.76698e+00		         0.24833	4.80000e+01	
1.46758   	-1.96794e+00		         0.25000	5.10000e+01	
1.47724   	-1.41931e+00		         0.25167	5.40000e+01	
1.48717   	-9.70517e-01		         0.25333	5.70000e+01	
1.49683   	-7.07829e-01		         0.25500	6.00000e+01	
1.50649   	-5.58831e-01		         0.25667	6.30000e+01	
1.51616   	-5.59414e-01		         0.25833	6.50000e+01	
1.52608   	-5.94621e-01		         0.26000	6.60000e+01	
1.53574   	-6.35324e-01		         0.26167	6.60000e+01	
1.54540   	-5.45330e-01		         0.26333	6.60000e+01	
1.55506   	-5.35620e-01		         0.26500	6.60000e+01	
1.56499   	-4.84336e-01		         0.26667	6.60000e+01	
1.57466   	-4.82844e-01		         0.26833	6.50000e+01	
1.58432   	-4.57796e-01		         0.27000	6.50000e+01	
1.59397   	-4.51186e-01		         0.27167	6.40000e+01	
1.60391   	-4.70994e-01		         0.27333	6.30000e+01	
1.61356   	-5.41334e-01		         0.27500	6.30000e+01	
1.62323   	-7.11975e-01		         0.27667	6.20000e+01	
1.63289   	-1.01922e+00		         0.27833	6.10000e+01	
1.64283   	-1.41763e+00		         0.28000	6.00000e+01	
1.65248   	-1.99487e+00		         0.28167	5.90000e+01	
1.66214   	-3.06013e+00		         0.28333	5.70000e+01	
1.67180   	-4.49940e+00		         0.28500	5.60000e+01	
1.68172   	-6.15447e+00		         0.28667	5.40000e+01	
1.69139   	-7.47688e+00		         0.28833	5.20000e+01	
1.70106   	-8.29246e+00		         0.29000	4.90000e+01	
1.71074   	-8.42871e+00		         0.29167	4.60000e+01	
1.72065   	-7.98701e+00		         0.29333	4.30000e+01	
1.73030   	-7.07753e+00		         0.29500	4.00000e+01	
1.73997   	-5.92747e+00		         0.29667	3.60000e+01	
1.74963   	-4.64965e+00		         0.29833	3.30000e+01	
1.75955   	-3.40699e+00		         0.30000	2.90000e+01	
1.76922   	-2.54476e+00		         0.30167	2.60000e+01	
1.77888   	-1.50326e+00		         0.30333	2.10000e+01	
1.78854   	-3.98233e-01		         0.30500	1.70000e+01	
1.79847   	-1.16483e-01		         0.30667	1.10000e+01	
1.80814   	-1.62778e+00		         0.30833	6.00000e+00	
1.81779   	-4.04133e+00		         0.31000	1.00000e+00	
1.82745   	-4.22027e+00		         0.31167	-4.00000e+00	
1.83738   	-2.19088e+00		         0.31333	-1.00000e+01	
1.84704   	7.88607e-01		         0.31500	-1.50000e+01	
1.85670   	2.72384e+00		         0.31667	-2.00000e+01	
1.86636   	3.67016e+00		         0.31833	-2.50000e+01	
1.87629   	4.06445e+00		         0.32000	-3.00000e+01	
1.88595   	3.98652e+00		         0.32167	-3.50000e+01	
1.89561   	3.72969e+00		         0.32333	-3.90000e+01	
1.90528   	3.60131e+00		         0.32500	-4.20000e+01	
1.91521   	3.54721e+00		         0.32667	-4.50000e+01	
1.92486   	3.71905e+00		         0.32833	-4.80000e+01	
1.93453   	3.85948e+00		         0.33000	-5.00000e+01	
1.94419   	3.96705e+00		         0.33167	-5.20000e+01	
1.95412   	3.94354e+00		         0.33333	-5.40000e+01	
1.96378   	3.91453e+00		         0.33500	-5.50000e+01	
1.97344   	3.84938e+00		         0.33667	-5.60000e+01	
1.98310   	3.77235e+00		         0.33833	-5.70000e+01	
1.99303   	3.64128e+00		         0.34000	-5.70000e+01	
2.00269   	3.47338e+00		         0.34167	-5.80000e+01	
2.01235   	3.50084e+00		         0.34333	-5.80000e+01	
2.02201   	3.38291e+00		         0.34500	-5.80000e+01	
2.03195   	3.38397e+00		         0.34667	-5.90000e+01	
2.04160   	3.08736e+00		         0.34833	-5.90000e+01	
2.05127   	3.02564e+00		         0.35000	-6.00000e+01	
2.06092   	2.74409e+00		         0.35167	-6.00000e+01	
2.07086   	2.69978e+00		         0.35333	-6.10000e+01	
2.08051   	2.43529e+00		         0.35500	-6.10000e+01	
2.09017   	2.22940e+00		         0.35667	-6.10000e+01	
2.09984   	1.92977e+00		         0.35833	-6.10000e+01	
2.10978   	1.56952e+00		         0.36000	-6.10000e+01	
2.11943   	1.17556e+00		         0.36167	-6.00000e+01	
2.12909   	2.49933e-01		         0.36333	-5.90000e+01	
2.13875   	-9.02159e-01		         0.36500	-5.70000e+01	
2.14868   	-1.60856e+00		         0.36667	-5.50000e+01	
2.15834   	-1.10621e+00		         0.36833	-5.30000e+01	
2.16800   	1.29787e-02		         0.37000	-5.10000e+01	
2.17766   	1.20601e+00		         0.37167	-4.90000e+01	
2.18761   	1.87308e+00		         0.37333	-4.70000e+01	
2.19725   	2.66036e+00		         0.37500	-4.60000e+01	
2.20691   	3.17397e+00		         0.37667	-4.50000e+01	
2.21658   	3.54788e+00		         0.37833	-4.40000e+01	
2.22650   	3.58690e+00		         0.38000	-4.40000e+01	
2.23616   	3.05048e+00		         0.38167	-4.40000e+01	
2.24582   	1.99223e+00		         0.38333	-4.40000e+01	
2.25549   	1.68420e-01		         0.38500	-4.50000e+01	
2.26542   	-1.43036e+00		         0.38667	-4.50000e+01	
2.27508   	-2.60305e+00		         0.38833	-4.50000e+01	
2.28474   	-3.04518e+00		         0.39000	-4.40000e+01	
2.29440   	-3.37274e+00		         0.39167	-4.40000e+01	
2.30433   	-3.58163e+00		         0.39333	-4.30000e+01	
2.31399   	-3.67450e+00		         0.39500	-4.20000e+01	
2.32365   	-3.49797e+00		         0.39667	-4.10000e+01	
2.33331   	-3.15451e+00		         0.39833	-3.90000e+01	
2.34324   	-2.81429e+00		         0.40000	-3.80000e+01	
2.35290   	-2.41350e+00		         0.40167	-3.60000e+01	
2.36256   	-1.91061e+00		         0.40333	-3.50000e+01	
2.37222   	-1.44990e+00		         0.40500	-3.30000e+01	
2.38216   	-9.62955e-01		         0.40667	-3.10000e+01	
2.39181   	-7.06399e-01		         0.40833	-3.00000e+01	
2.40148   	-4.74916e-01		         0.41000	-2.80000e+01	
2.41114   	-3.41282e-01		         0.41167	-2.70000e+01	
2.42108   	-2.60438e-01		         0.41333	-2.50000e+01	
2.43073   	-1.86296e-01		         0.41500	-2.40000e+01	
2.44038   	-1.96708e-01		         0.41667	-2.20000e+01	
2.45005   	-1.96073e-01		         0.41833	-2.20000e+01	
2.45998   	-2.59942e-01		         0.42000	-2.10000e+01	
2.46964   	-3.66743e-01		         0.42167	-2.10000e+01	
2.47931   	-4.82177e-01		         0.42333	-2.10000e+01	
2.48896   	-5.63809e-01		         0.42500	-2.10000e+01	
2.49889   	-6.66457e-01		         0.42667	-2.10000e+01	
2.50855   	-7.99102e-01		         0.42833	-2.10000e+01	
2.51822   	-9.22003e-01		         0.43000	-2.20000e+01	
2.52787   	-1.06065e+00		         0.43167	-2.30000e+01	
2.53781   	-1.47286e+00		         0.43333	-2.30000e+01	
2.54747   	-2.41023e+00		         0.43500	-2.30000e+01	
2.55713   	-3.79650e+00		         0.43667	-2.30000e+01	
2.56679   	-5.44428e+00		         0.43833	-2.30000e+01	
2.57672   	-6.76114e+00		         0.44000	-2.30000e+01	
2.58638   	-7.61709e+00		         0.44167	-2.20000e+01	
2.59604   	-7.92808e+00		         0.44333	-2.10000e+01	
2.60570   	-8.04230e+00		         0.44500	-2.00000e+01	
2.61563   	-7.58604e+00		         0.44667	-1.90000e+01	
2.62529   	-6.82522e+00		         0.44833	-1.70000e+01	
2.63495   	-5.76012e+00		         0.45000	-1.50000e+01	
2.64462   	-4.59975e+00		         0.45167	-1.40000e+01	
2.65454   	-3.23228e+00		         0.45333	-1.20000e+01	
2.66421   	-2.37569e+00		         0.45500	-1.00000e+01	
2.67386   	-1.64258e+00		         0.45667	-9.00000e+00	
2.68352   	-1.63130e+00		         0.45833	-8.00000e+00	
			         0.46000	-7.00000e+00	
			         0.46167	-6.00000e+00	
			         0.46333	-5.00000e+00	
			         0.46500	-4.00000e+00	
			         0.46667	-4.00000e+00	
			         0.46833	-3.00000e+00	
			         0.47000	-2.00000e+00	
			         0.47167	-2.00000e+00	
			         0.47333	-1.00000e+00	
			         0.47500	0.00000e+00	
			         0.47667	0.00000e+00	
			         0.47833	0.00000e+00	
			         0.48000	0.00000e+00	
			         0.48167	0.00000e+00	
			         0.48333	0.00000e+00	
			         0.48500	-1.00000e+00	
			         0.48667	-2.00000e+00	
			         0.48833	-3.00000e+00	
			         0.49000	-4.00000e+00	
			         0.49167	-5.00000e+00	
			         0.49333	-7.00000e+00	
			         0.49500	-8.00000e+00	
			         0.49667	-1.00000e+01	
			         0.49833	-1.10000e+01	
			         0.50000	-1.20000e+01	
			         0.50167	-1.30000e+01	
			         0.50333	-1.30000e+01	
			         0.50500	-1.20000e+01	
			         0.50667	-1.20000e+01	
			         0.50833	-1.10000e+01	
			         0.51000	-1.00000e+01	
			         0.51167	-9.00000e+00	
			         0.51333	-7.00000e+00	
			         0.51500	-6.00000e+00	
			         0.51667	-4.00000e+00	
			         0.51833	-3.00000e+00	
			         0.52000	-2.00000e+00	
			         0.52167	-1.00000e+00	
			         0.52333	-1.00000e+00	
			         0.52500	-1.00000e+00	
			         0.52667	-2.00000e+00	
			         0.52833	-3.00000e+00	
			         0.53000	-4.00000e+00	
			         0.53167	-6.00000e+00	
			         0.53333	-7.00000e+00	
			         0.53500	-8.00000e+00	
			         0.53667	-9.00000e+00	
			         0.53833	-9.00000e+00	
			         0.54000	-8.00000e+00	
			         0.54167	-8.00000e+00	
			         0.54333	-7.00000e+00	
			         0.54500	-6.00000e+00	
			         0.54667	-5.00000e+00	
			         0.54833	-4.00000e+00	
			         0.55000	-3.00000e+00	
			         0.55167	-2.00000e+00	
			         0.55333	-1.00000e+00	
			         0.55500	0.00000e+00	
			         0.55667	0.00000e+00	
			         0.55833	-1.00000e+00	
			         0.56000	-2.00000e+00	
			         0.56167	-4.00000e+00	
			         0.56333	-5.00000e+00	
			         0.56500	-7.00000e+00	
			         0.56667	-8.00000e+00	
			         0.56833	-1.00000e+01	
			         0.57000	-1.10000e+01	
			         0.57167	-1.10000e+01	
			         0.57333	-1.10000e+01	
			         0.57500	-1.10000e+01	
			         0.57667	-1.10000e+01	
			         0.57833	-1.00000e+01	
			         0.58000	-9.00000e+00	
			         0.58167	-8.00000e+00	
			         0.58333	-6.00000e+00	
			         0.58500	-5.00000e+00	
			         0.58667	-4.00000e+00	
			         0.58833	-3.00000e+00	
			         0.59000	-2.00000e+00	
			         0.59167	-2.00000e+00	
			         0.59333	-2.00000e+00	
			         0.59500	-3.00000e+00	
			         0.59667	-4.00000e+00	
			         0.59833	-6.00000e+00	
			         0.60000	-7.00000e+00	
			         0.60167	-9.00000e+00	
			         0.60333	-1.10000e+01	
			         0.60500	-1.30000e+01	
			         0.60667	-1.40000e+01	
			         0.60833	-1.50000e+01	
			         0.61000	-1.60000e+01	
			         0.61167	-1.70000e+01	
			         0.61333	-1.70000e+01	
			         0.61500	-1.70000e+01	
			         0.61667	-1.70000e+01	
			         0.61833	-1.60000e+01	
			         0.62000	-1.50000e+01	
			         0.62167	-1.40000e+01	
			         0.62333	-1.30000e+01	
			         0.62500	-1.10000e+01	
			         0.62667	-9.00000e+00	
			         0.62833	-7.00000e+00	
			         0.63000	-5.00000e+00	
			         0.63167	-3.00000e+00	
			         0.63333	-1.00000e+00	
			         0.63500	0.00000e+00	
			         0.63667	0.00000e+00	
			         0.63833	1.00000e+00	
			         0.64000	1.00000e+00	
			         0.64167	1.00000e+00	
			         0.64333	0.00000e+00	
			         0.64500	-1.00000e+00	
			         0.64667	-2.00000e+00	
			         0.64833	-4.00000e+00	
			         0.65000	-5.00000e+00	
			         0.65167	-6.00000e+00	
			         0.65333	-7.00000e+00	
			         0.65500	-8.00000e+00	
			         0.65667	-9.00000e+00	
			         0.65833	-9.00000e+00	
			         0.66000	-1.00000e+01	
			         0.66167	-1.00000e+01	
			         0.66333	-1.10000e+01	
			         0.66500	-1.10000e+01	
			         0.66667	-1.10000e+01	
			         0.66833	-1.10000e+01	
			         0.67000	-1.10000e+01	
			         0.67167	-1.10000e+01	
			         0.67333	-1.10000e+01	
			         0.67500	-1.10000e+01	
			         0.67667	-1.00000e+01	
			         0.67833	-1.00000e+01	
			         0.68000	-9.00000e+00	
			         0.68167	-8.00000e+00	
			         0.68333	-7.00000e+00	
			         0.68500	-7.00000e+00	
			         0.68667	-6.00000e+00	
			         0.68833	-6.00000e+00	
			         0.69000	-6.00000e+00	
			         0.69167	-7.00000e+00	
			         0.69333	-7.00000e+00	
			         0.69500	-8.00000e+00	
			         0.69667	-8.00000e+00	
			         0.69833	-9.00000e+00	
			         0.70000	-9.00000e+00	
			         0.70167	-9.00000e+00	
			         0.70333	-9.00000e+00	
			         0.70500	-9.00000e+00	
			         0.70667	-8.00000e+00	
			         0.70833	-7.00000e+00	
			         0.71000	-5.00000e+00	
			         0.71167	-3.00000e+00	
			         0.71333	-1.00000e+00	
			         0.71500	1.00000e+00	
			         0.71667	3.00000e+00	
			         0.71833	4.00000e+00	
			         0.72000	6.00000e+00	
			         0.72167	7.00000e+00	
			         0.72333	7.00000e+00	
			         0.72500	8.00000e+00	
			         0.72667	8.00000e+00	
			         0.72833	8.00000e+00	
			         0.73000	9.00000e+00	
			         0.73167	9.00000e+00	
			         0.73333	9.00000e+00	
			         0.73500	9.00000e+00	
			         0.73667	9.00000e+00	
			         0.73833	9.00000e+00	
			         0.74000	9.00000e+00	
			         0.74167	9.00000e+00	
			         0.74333	8.00000e+00	
			         0.74500	8.00000e+00	
			         0.74667	7.00000e+00	
			         0.74833	6.00000e+00	
			         0.75000	5.00000e+00	
			         0.75167	4.00000e+00	
			         0.75333	3.00000e+00	
			         0.75500	2.00000e+00	
			         0.75667	0.00000e+00	
			         0.75833	-1.00000e+00	
			         0.76000	-2.00000e+00	
			         0.76167	-3.00000e+00	
			         0.76333	-4.00000e+00	
			         0.76500	-4.00000e+00	
			         0.76667	-4.00000e+00	
			         0.76833	-4.00000e+00	
			         0.77000	-2.00000e+00	
			         0.77167	-1.00000e+00	
			         0.77333	1.00000e+00	
			         0.77500	4.00000e+00	
			         0.77667	6.00000e+00	
			         0.77833	8.00000e+00	
			         0.78000	9.00000e+00	
			         0.78167	1.00000e+01	
			         0.78333	1.10000e+01	
			         0.78500	1.10000e+01	
			         0.78667	1.10000e+01	
			         0.78833	1.00000e+01	
			         0.79000	8.00000e+00	
			         0.79167	6.00000e+00	
			         0.79333	3.00000e+00	
			         0.79500	0.00000e+00	
			         0.79667	-3.00000e+00	
			         0.79833	-6.00000e+00	
			         0.80000	-9.00000e+00	
			         0.80167	-1.10000e+01	
			         0.80333	-1.30000e+01	
			         0.80500	-1.30000e+01	
			         0.80667	-1.40000e+01	
			         0.80833	-1.30000e+01	
			         0.81000	-1.30000e+01	
			         0.81167	-1.20000e+01	
			         0.81333	-1.10000e+01	
			         0.81500	-1.00000e+01	
			         0.81667	-9.00000e+00	
			         0.81833	-8.00000e+00	
			         0.82000	-7.00000e+00	
			         0.82167	-6.00000e+00	
			         0.82333	-5.00000e+00	
			         0.82500	-4.00000e+00	
			         0.82667	-4.00000e+00	
			         0.82833	-4.00000e+00	
			         0.83000	-4.00000e+00	
			         0.83167	-4.00000e+00	
			         0.83333	-5.00000e+00	
			         0.83500	-5.00000e+00	
			         0.83667	-5.00000e+00	
			         0.83833	-6.00000e+00	
			         0.84000	-6.00000e+00	
			         0.84167	-7.00000e+00	
			         0.84333	-7.00000e+00	
			         0.84500	-8.00000e+00	
			         0.84667	-8.00000e+00	
			         0.84833	-7.00000e+00	
			         0.85000	-7.00000e+00	
			         0.85167	-6.00000e+00	
			         0.85333	-5.00000e+00	
			         0.85500	-5.00000e+00	
			         0.85667	-4.00000e+00	
			         0.85833	-3.00000e+00	
			         0.86000	-3.00000e+00	
			         0.86167	-2.00000e+00	
			         0.86333	-1.00000e+00	
			         0.86500	1.00000e+00	
			         0.86667	3.00000e+00	
			         0.86833	8.00000e+00	
			         0.87000	1.50000e+01	
			         0.87167	2.40000e+01	
			         0.87333	3.70000e+01	
			         0.87500	5.40000e+01	
			         0.87667	7.60000e+01	
			         0.87833	1.02000e+02	
			         0.88000	1.33000e+02	
			         0.88167	1.67000e+02	
			         0.88333	2.04000e+02	
			         0.88500	2.42000e+02	
			         0.88667	2.78000e+02	
			         0.88833	3.12000e+02	
			         0.89000	3.42000e+02	
			         0.89167	3.66000e+02	
			         0.89333	3.83000e+02	
			         0.89500	3.93000e+02	
			         0.89667	3.94000e+02	
			         0.89833	3.85000e+02	
			         0.90000	3.68000e+02	
			         0.90167	3.41000e+02	
			         0.90333	3.08000e+02	
			         0.90500	2.69000e+02	
			         0.90667	2.26000e+02	
			         0.90833	1.81000e+02	
			         0.91000	1.35000e+02	
			         0.91167	9.00000e+01	
			         0.91333	4.70000e+01	
			         0.91500	7.00000e+00	
			         0.91667	-2.90000e+01	
			         0.91833	-6.00000e+01	
			         0.92000	-8.60000e+01	
			         0.92167	-1.06000e+02	
			         0.92333	-1.21000e+02	
			         0.92500	-1.31000e+02	
			         0.92667	-1.36000e+02	
			         0.92833	-1.37000e+02	
			         0.93000	-1.35000e+02	
			         0.93167	-1.31000e+02	
			         0.93333	-1.25000e+02	
			         0.93500	-1.19000e+02	
			         0.93667	-1.12000e+02	
			         0.93833	-1.05000e+02	
			         0.94000	-9.80000e+01	
			         0.94167	-9.20000e+01	
			         0.94333	-8.70000e+01	
			         0.94500	-8.20000e+01	
			         0.94667	-7.80000e+01	
			         0.94833	-7.50000e+01	
			         0.95000	-7.30000e+01	
			         0.95167	-7.20000e+01	
			         0.95333	-7.10000e+01	
			         0.95500	-7.00000e+01	
			         0.95667	-7.00000e+01	
			         0.95833	-6.90000e+01	
			         0.96000	-6.90000e+01	
			         0.96167	-6.90000e+01	
			         0.96333	-7.00000e+01	
			         0.96500	-7.00000e+01	
			         0.96667	-7.00000e+01	
			         0.96833	-7.00000e+01	
			         0.97000	-7.00000e+01	
			         0.97167	-6.90000e+01	
			         0.97333	-6.80000e+01	
			         0.97500	-6.60000e+01	
			         0.97667	-6.40000e+01	
			         0.97833	-6.20000e+01	
			         0.98000	-6.00000e+01	
			         0.98167	-5.70000e+01	
			         0.98333	-5.50000e+01	
			         0.98500	-5.20000e+01	
			         0.98667	-4.90000e+01	
			         0.98833	-4.60000e+01	
			         0.99000	-4.40000e+01	
			         0.99167	-4.20000e+01	
			         0.99333	-4.00000e+01	
			         0.99500	-3.90000e+01	
			         0.99667	-3.80000e+01	
			         0.99833	-3.80000e+01	
			         1.00000	-3.80000e+01	
			         1.00167	-3.90000e+01	
			         1.00333	-3.90000e+01	
			         1.00500	-4.00000e+01	
			         1.00667	-4.00000e+01	
			         1.00833	-4.00000e+01	
			         1.01000	-4.00000e+01	
			         1.01167	-3.90000e+01	
			         1.01333	-3.80000e+01	
			         1.01500	-3.60000e+01	
			         1.01667	-3.30000e+01	
			         1.01833	-3.00000e+01	
			         1.02000	-2.70000e+01	
			         1.02167	-2.30000e+01	
			         1.02333	-1.90000e+01	
			         1.02500	-1.50000e+01	
			         1.02667	-1.20000e+01	
			         1.02833	-9.00000e+00	
			         1.03000	-7.00000e+00	
			         1.03167	-5.00000e+00	
			         1.03333	-4.00000e+00	
			         1.03500	-4.00000e+00	
			         1.03667	-4.00000e+00	
			         1.03833	-5.00000e+00	
			         1.04000	-6.00000e+00	
			         1.04167	-7.00000e+00	
			         1.04333	-9.00000e+00	
			         1.04500	-1.10000e+01	
			         1.04667	-1.20000e+01	
			         1.04833	-1.40000e+01	
			         1.05000	-1.50000e+01	
			         1.05167	-1.70000e+01	
			         1.05333	-1.70000e+01	
			         1.05500	-1.70000e+01	
			         1.05667	-1.70000e+01	
			         1.05833	-1.70000e+01	
			         1.06000	-1.60000e+01	
			         1.06167	-1.50000e+01	
			         1.06333	-1.30000e+01	
			         1.06500	-1.20000e+01	
			         1.06667	-1.00000e+01	
			         1.06833	-9.00000e+00	
			         1.07000	-7.00000e+00	
			         1.07167	-5.00000e+00	
			         1.07333	-3.00000e+00	
			         1.07500	-1.00000e+00	
			         1.07667	1.00000e+00	
			         1.07833	2.00000e+00	
			         1.08000	3.00000e+00	
			         1.08167	4.00000e+00	
			         1.08333	4.00000e+00	
			         1.08500	4.00000e+00	
			         1.08667	5.00000e+00	
			         1.08833	5.00000e+00	
			         1.09000	6.00000e+00	
			         1.09167	6.00000e+00	
			         1.09333	7.00000e+00	
			         1.09500	7.00000e+00	
			         1.09667	8.00000e+00	
			         1.09833	9.00000e+00	
			         1.10000	1.10000e+01	
			         1.10167	1.30000e+01	
			         1.10333	1.60000e+01	
			         1.10500	1.80000e+01	
			         1.10667	2.10000e+01	
			         1.10833	2.40000e+01	
			         1.11000	2.60000e+01	
			         1.11167	2.80000e+01	
			         1.11333	3.00000e+01	
			         1.11500	3.10000e+01	
			         1.11667	3.30000e+01	
			         1.11833	3.50000e+01	
			         1.12000	3.70000e+01	
			         1.12167	3.80000e+01	
			         1.12333	3.90000e+01	
			         1.12500	4.00000e+01	
			         1.12667	4.10000e+01	
			         1.12833	4.20000e+01	
			         1.13000	4.30000e+01	
			         1.13167	4.30000e+01	
			         1.13333	4.40000e+01	
			         1.13500	4.40000e+01	
			         1.13667	4.30000e+01	
			         1.13833	4.30000e+01	
			         1.14000	4.20000e+01	
			         1.14167	4.20000e+01	
			         1.14333	4.20000e+01	
			         1.14500	4.30000e+01	
			         1.14667	4.40000e+01	
			         1.14833	4.50000e+01	
			         1.15000	4.60000e+01	
			         1.15167	4.80000e+01	
			         1.15333	5.00000e+01	
			         1.15500	5.10000e+01	
			         1.15667	5.30000e+01	
			         1.15833	5.40000e+01	
			         1.16000	5.50000e+01	
			         1.16167	5.60000e+01	
			         1.16333	5.50000e+01	
			         1.16500	5.40000e+01	
			         1.16667	5.20000e+01	
			         1.16833	5.00000e+01	
			         1.17000	4.80000e+01	
			         1.17167	4.60000e+01	
			         1.17333	4.30000e+01	
			         1.17500	4.00000e+01	
			         1.17667	3.70000e+01	
			         1.17833	3.40000e+01	
			         1.18000	3.10000e+01	
			         1.18167	2.80000e+01	
			         1.18333	2.50000e+01	
			         1.18500	2.20000e+01	
			         1.18667	1.90000e+01	
			         1.18833	1.60000e+01	
			         1.19000	1.30000e+01	
			         1.19167	9.00000e+00	
			         1.19333	6.00000e+00	
			         1.19500	2.00000e+00	
			         1.19667	-2.00000e+00	
			         1.19833	-5.00000e+00	
			         1.20000	-9.00000e+00	
			         1.20167	-1.30000e+01	
			         1.20333	-1.70000e+01	
			         1.20500	-2.00000e+01	
			         1.20667	-2.40000e+01	
			         1.20833	-2.70000e+01	
			         1.21000	-3.00000e+01	
			         1.21167	-3.40000e+01	
			         1.21333	-3.70000e+01	
			         1.21500	-4.00000e+01	
			         1.21667	-4.30000e+01	
			         1.21833	-4.60000e+01	
			         1.22000	-4.80000e+01	
			         1.22167	-4.90000e+01	
			         1.22333	-5.10000e+01	
			         1.22500	-5.20000e+01	
			         1.22667	-5.30000e+01	
			         1.22833	-5.30000e+01	
			         1.23000	-5.30000e+01	
			         1.23167	-5.30000e+01	
			         1.23333	-5.20000e+01	
			         1.23500	-5.10000e+01	
			         1.23667	-5.00000e+01	
			         1.23833	-4.80000e+01	
			         1.24000	-4.70000e+01	
			         1.24167	-4.60000e+01	
			         1.24333	-4.50000e+01	
			         1.24500	-4.40000e+01	
			         1.24667	-4.40000e+01	
			         1.24833	-4.40000e+01	
			         1.25000	-4.40000e+01	
			         1.25167	-4.50000e+01	
			         1.25333	-4.60000e+01	
			         1.25500	-4.60000e+01	
			         1.25667	-4.70000e+01	
			         1.25833	-4.80000e+01	
			         1.26000	-4.80000e+01	
			         1.26167	-4.80000e+01	
			         1.26333	-4.80000e+01	
			         1.26500	-4.80000e+01	
			         1.26667	-4.70000e+01	
			         1.26833	-4.50000e+01	
			         1.27000	-4.40000e+01	
			         1.27167	-4.20000e+01	
			         1.27333	-4.10000e+01	
			         1.27500	-3.90000e+01	
			         1.27667	-3.80000e+01	
			         1.27833	-3.70000e+01	
			         1.28000	-3.60000e+01	
			         1.28167	-3.60000e+01	
			         1.28333	-3.50000e+01	
			         1.28500	-3.50000e+01	
			         1.28667	-3.50000e+01	
			         1.28833	-3.40000e+01	
			         1.29000	-3.40000e+01	
			         1.29167	-3.40000e+01	
			         1.29333	-3.30000e+01	
			         1.29500	-3.30000e+01	
			         1.29667	-3.20000e+01	
			         1.29833	-3.00000e+01	
			         1.30000	-2.90000e+01	
			         1.30167	-2.80000e+01	
			         1.30333	-2.70000e+01	
			         1.30500	-2.60000e+01	
			         1.30667	-2.50000e+01	
			         1.30833	-2.40000e+01	
			         1.31000	-2.30000e+01	
			         1.31167	-2.30000e+01	
			         1.31333	-2.20000e+01	
			         1.31500	-2.10000e+01	
			         1.31667	-2.10000e+01	
			         1.31833	-2.00000e+01	
			         1.32000	-2.00000e+01	
			         1.32167	-1.90000e+01	
			         1.32333	-1.90000e+01	
			         1.32500	-1.80000e+01	
			         1.32667	-1.70000e+01	
			         1.32833	-1.70000e+01	
			         1.33000	-1.60000e+01	
			         1.33167	-1.50000e+01	
			         1.33333	-1.40000e+01	
			         1.33500	-1.40000e+01	
			         1.33667	-1.30000e+01	
			         1.33833	-1.30000e+01	
			         1.34000	-1.30000e+01	
			         1.34167	-1.30000e+01	
			         1.34333	-1.30000e+01	
			         1.34500	-1.30000e+01	
			         1.34667	-1.20000e+01	
			         1.34833	-1.10000e+01	
			         1.35000	-1.10000e+01	
			         1.35167	-1.00000e+01	
			         1.35333	-9.00000e+00	
			         1.35500	-8.00000e+00	
			         1.35667	-7.00000e+00	
			         1.35833	-7.00000e+00	
			         1.36000	-6.00000e+00	
			         1.36167	-5.00000e+00	
			         1.36333	-4.00000e+00	
			         1.36500	-4.00000e+00	
			         1.36667	-3.00000e+00	
			         1.36833	-3.00000e+00	
			         1.37000	-4.00000e+00	
			         1.37167	-4.00000e+00	
			         1.37333	-5.00000e+00	
			         1.37500	-6.00000e+00	
			         1.37667	-7.00000e+00	
			         1.37833	-8.00000e+00	
			         1.38000	-8.00000e+00	
			         1.38167	-9.00000e+00	
			         1.38333	-9.00000e+00	
			         1.38500	-9.00000e+00	
			         1.38667	-9.00000e+00	
			         1.38833	-9.00000e+00	
			         1.39000	-9.00000e+00	
			         1.39167	-9.00000e+00	
			         1.39333	-8.00000e+00	
			         1.39500	-8.00000e+00	
			         1.39667	-7.00000e+00	
			         1.39833	-7.00000e+00	
			         1.40000	-6.00000e+00	
			         1.40167	-5.00000e+00	
			         1.40333	-5.00000e+00	
			         1.40500	-4.00000e+00	
			         1.40667	-3.00000e+00	
			         1.40833	-2.00000e+00	
			         1.41000	0.00000e+00	
			         1.41167	1.00000e+00	
			         1.41333	2.00000e+00	
			         1.41500	3.00000e+00	
			         1.41667	4.00000e+00	
			         1.41833	3.00000e+00	
			         1.42000	3.00000e+00	
			         1.42167	2.00000e+00	
			         1.42333	1.00000e+00	
			         1.42500	0.00000e+00	
			         1.42667	-1.00000e+00	
			         1.42833	-2.00000e+00	
			         1.43000	-3.00000e+00	
			         1.43167	-5.00000e+00	
			         1.43333	-6.00000e+00	
			         1.43500	-7.00000e+00	
			         1.43667	-7.00000e+00	
			         1.43833	-8.00000e+00	
			         1.44000	-8.00000e+00	
			         1.44167	-8.00000e+00	
			         1.44333	-8.00000e+00	
			         1.44500	-8.00000e+00	
			         1.44667	-8.00000e+00	
			         1.44833	-8.00000e+00	
			         1.45000	-8.00000e+00	
			         1.45167	-8.00000e+00	
			         1.45333	-7.00000e+00	
			         1.45500	-7.00000e+00	
			         1.45667	-7.00000e+00	
			         1.45833	-7.00000e+00	
			         1.46000	-7.00000e+00	
			         1.46167	-7.00000e+00	
			         1.46333	-6.00000e+00	
			         1.46500	-6.00000e+00	
			         1.46667	-6.00000e+00	
			         1.46833	-5.00000e+00	
			         1.47000	-4.00000e+00	
			         1.47167	-4.00000e+00	
			         1.47333	-3.00000e+00	
			         1.47500	-2.00000e+00	
			         1.47667	-2.00000e+00	
			         1.47833	-1.00000e+00	
			         1.48000	-1.00000e+00	
			         1.48167	0.00000e+00	
			         1.48333	0.00000e+00	
			         1.48500	0.00000e+00	
			         1.48667	0.00000e+00	
			         1.48833	0.00000e+00	
			         1.49000	-1.00000e+00	
			         1.49167	-1.00000e+00	
			         1.49333	-1.00000e+00	
			         1.49500	-2.00000e+00	
			         1.49667	-2.00000e+00	
			         1.49833	-2.00000e+00	
			         1.50000	-2.00000e+00	
			         1.50167	-2.00000e+00	
			         1.50333	-2.00000e+00	
			         1.50500	-2.00000e+00	
			         1.50667	-2.00000e+00	
			         1.50833	-2.00000e+00	
			         1.51000	-2.00000e+00	
			         1.51167	-2.00000e+00	
			         1.51333	-2.00000e+00	
			         1.51500	-2.00000e+00	
			         1.51667	-3.00000e+00	
			         1.51833	-3.00000e+00	
			         1.52000	-4.00000e+00	
			         1.52167	-5.00000e+00	
			         1.52333	-6.00000e+00	
			         1.52500	-7.00000e+00	
			         1.52667	-7.00000e+00	
			         1.52833	-7.00000e+00	
			         1.53000	-7.00000e+00	
			         1.53167	-7.00000e+00	
			         1.53333	-6.00000e+00	
			         1.53500	-6.00000e+00	
			         1.53667	-5.00000e+00	
			         1.53833	-4.00000e+00	
			         1.54000	-3.00000e+00	
			         1.54167	-2.00000e+00	
			         1.54333	-1.00000e+00	
			         1.54500	0.00000e+00	
			         1.54667	0.00000e+00	
			         1.54833	1.00000e+00	
			         1.55000	1.00000e+00	
			         1.55167	0.00000e+00	
			         1.55333	0.00000e+00	
			         1.55500	-1.00000e+00	
			         1.55667	-2.00000e+00	
			         1.55833	-2.00000e+00	
			         1.56000	-3.00000e+00	
			         1.56167	-3.00000e+00	
			         1.56333	-3.00000e+00	
			         1.56500	-3.00000e+00	
			         1.56667	-2.00000e+00	
			         1.56833	-2.00000e+00	
			         1.57000	-2.00000e+00	
			         1.57167	-3.00000e+00	
			         1.57333	-3.00000e+00	
			         1.57500	-3.00000e+00	
			         1.57667	-3.00000e+00	
			         1.57833	-4.00000e+00	
			         1.58000	-4.00000e+00	
			         1.58167	-4.00000e+00	
			         1.58333	-4.00000e+00	
			         1.58500	-4.00000e+00	
			         1.58667	-3.00000e+00	
			         1.58833	-2.00000e+00	
			         1.59000	0.00000e+00	
			         1.59167	1.00000e+00	
			         1.59333	3.00000e+00	
			         1.59500	5.00000e+00	
			         1.59667	7.00000e+00	
			         1.59833	9.00000e+00	
			         1.60000	1.20000e+01	
			         1.60167	1.30000e+01	
			         1.60333	1.50000e+01	
			         1.60500	1.60000e+01	
			         1.60667	1.70000e+01	
			         1.60833	1.70000e+01	
			         1.61000	1.70000e+01	
			         1.61167	1.70000e+01	
			         1.61333	1.60000e+01	
			         1.61500	1.50000e+01	
			         1.61667	1.40000e+01	
			         1.61833	1.20000e+01	
			         1.62000	1.10000e+01	
			         1.62167	1.00000e+01	
			         1.62333	8.00000e+00	
			         1.62500	7.00000e+00	
			         1.62667	5.00000e+00	
			         1.62833	4.00000e+00	
			         1.63000	3.00000e+00	
			         1.63167	3.00000e+00	
			         1.63333	2.00000e+00	
			         1.63500	2.00000e+00	
			         1.63667	2.00000e+00	
			         1.63833	2.00000e+00	
			         1.64000	2.00000e+00	
			         1.64167	3.00000e+00	
			         1.64333	3.00000e+00	
			         1.64500	3.00000e+00	
			         1.64667	3.00000e+00	
			         1.64833	3.00000e+00	
			         1.65000	4.00000e+00	
			         1.65167	4.00000e+00	
			         1.65333	5.00000e+00	
			         1.65500	5.00000e+00	
			         1.65667	5.00000e+00	
			         1.65833	5.00000e+00	
			         1.66000	5.00000e+00	
			         1.66167	5.00000e+00	
			         1.66333	5.00000e+00	
			         1.66500	5.00000e+00	
			         1.66667	4.00000e+00	
			         1.66833	4.00000e+00	
			         1.67000	4.00000e+00	
			         1.67167	3.00000e+00	
			         1.67333	3.00000e+00	
			         1.67500	2.00000e+00	
			         1.67667	2.00000e+00	
			         1.67833	2.00000e+00	
			         1.68000	2.00000e+00	
			         1.68167	1.00000e+00	
			         1.68333	1.00000e+00	
			         1.68500	1.00000e+00	
			         1.68667	0.00000e+00	
			         1.68833	0.00000e+00	
			         1.69000	-1.00000e+00	
			         1.69167	-3.00000e+00	
			         1.69333	-4.00000e+00	
			         1.69500	-5.00000e+00	
			         1.69667	-7.00000e+00	
			         1.69833	-8.00000e+00	
			         1.70000	-9.00000e+00	
			         1.70167	-1.00000e+01	
			         1.70333	-1.00000e+01	
			         1.70500	-1.00000e+01	
			         1.70667	-9.00000e+00	
			         1.70833	-8.00000e+00	
			         1.71000	-7.00000e+00	
			         1.71167	-5.00000e+00	
			         1.71333	-4.00000e+00	
			         1.71500	-3.00000e+00	
			         1.71667	-2.00000e+00	
			         1.71833	-1.00000e+00	
			         1.72000	0.00000e+00	
			         1.72167	0.00000e+00	
			         1.72333	1.00000e+00	
			         1.72500	1.00000e+00	
			         1.72667	0.00000e+00	
			         1.72833	0.00000e+00	
			         1.73000	0.00000e+00	
			         1.73167	-1.00000e+00	
			         1.73333	-1.00000e+00	
			         1.73500	-1.00000e+00	
			         1.73667	-1.00000e+00	
			         1.73833	0.00000e+00	
			         1.74000	0.00000e+00	
			         1.74167	1.00000e+00	
			         1.74333	3.00000e+00	
			         1.74500	5.00000e+00	
			         1.74667	9.00000e+00	
			         1.74833	1.40000e+01	
			         1.75000	2.20000e+01	
			         1.75167	3.10000e+01	
			         1.75333	4.40000e+01	
			         1.75500	5.90000e+01	
			         1.75667	7.90000e+01	
			         1.75833	1.02000e+02	
			         1.76000	1.29000e+02	
			         1.76167	1.58000e+02	
			         1.76333	1.90000e+02	
			         1.76500	2.22000e+02	
			         1.76667	2.54000e+02	
			         1.76833	2.84000e+02	
			         1.77000	3.11000e+02	
			         1.77167	3.34000e+02	
			         1.77333	3.51000e+02	
			         1.77500	3.61000e+02	
			         1.77667	3.65000e+02	
			         1.77833	3.60000e+02	
			         1.78000	3.47000e+02	
			         1.78167	3.26000e+02	
			         1.78333	2.98000e+02	
			         1.78500	2.65000e+02	
			         1.78667	2.27000e+02	
			         1.78833	1.87000e+02	
			         1.79000	1.46000e+02	
			         1.79167	1.05000e+02	
			         1.79333	6.50000e+01	
			         1.79500	2.70000e+01	
			         1.79667	-7.00000e+00	
			         1.79833	-3.80000e+01	
			         1.80000	-6.30000e+01	
			         1.80167	-8.40000e+01	
			         1.80333	-1.00000e+02	
			         1.80500	-1.12000e+02	
			         1.80667	-1.20000e+02	
			         1.80833	-1.24000e+02	
			         1.81000	-1.26000e+02	
			         1.81167	-1.25000e+02	
			         1.81333	-1.23000e+02	
			         1.81500	-1.20000e+02	
			         1.81667	-1.16000e+02	
			         1.81833	-1.12000e+02	
			         1.82000	-1.07000e+02	
			         1.82167	-1.02000e+02	
			         1.82333	-9.70000e+01	
			         1.82500	-9.20000e+01	
			         1.82667	-8.70000e+01	
			         1.82833	-8.20000e+01	
			         1.83000	-7.70000e+01	
			         1.83167	-7.20000e+01	
			         1.83333	-6.70000e+01	
			         1.83500	-6.30000e+01	
			         1.83667	-5.90000e+01	
			         1.83833	-5.60000e+01	
			         1.84000	-5.40000e+01	
			         1.84167	-5.20000e+01	
			         1.84333	-5.10000e+01	
			         1.84500	-5.10000e+01	
			         1.84667	-5.20000e+01	
			         1.84833	-5.20000e+01	
			         1.85000	-5.30000e+01	
			         1.85167	-5.40000e+01	
			         1.85333	-5.50000e+01	
			         1.85500	-5.50000e+01	
			         1.85667	-5.50000e+01	
			         1.85833	-5.50000e+01	
			         1.86000	-5.40000e+01	
			         1.86167	-5.30000e+01	
			         1.86333	-5.20000e+01	
			         1.86500	-5.10000e+01	
			         1.86667	-5.00000e+01	
			         1.86833	-5.00000e+01	
			         1.87000	-4.90000e+01	
			         1.87167	-4.80000e+01	
			         1.87333	-4.80000e+01	
			         1.87500	-4.70000e+01	
			         1.87667	-4.70000e+01	
			         1.87833	-4.60000e+01	
			         1.88000	-4.50000e+01	
			         1.88167	-4.40000e+01	
			         1.88333	-4.30000e+01	
			         1.88500	-4.10000e+01	
			         1.88667	-3.90000e+01	
			         1.88833	-3.70000e+01	
			         1.89000	-3.40000e+01	
			         1.89167	-3.20000e+01	
			         1.89333	-3.00000e+01	
			         1.89500	-2.90000e+01	
			         1.89667	-2.80000e+01	
			         1.89833	-2.70000e+01	
			         1.90000	-2.70000e+01	
			         1.90167	-2.70000e+01	
			         1.90333	-2.70000e+01	
			         1.90500	-2.60000e+01	
			         1.90667	-2.60000e+01	
			         1.90833	-2.50000e+01	
			         1.91000	-2.40000e+01	
			         1.91167	-2.20000e+01	
			         1.91333	-2.00000e+01	
			         1.91500	-1.80000e+01	
			         1.91667	-1.50000e+01	
			         1.91833	-1.20000e+01	
			         1.92000	-1.00000e+01	
			         1.92167	-7.00000e+00	
			         1.92333	-4.00000e+00	
			         1.92500	-1.00000e+00	
			         1.92667	1.00000e+00	
			         1.92833	3.00000e+00	
			         1.93000	5.00000e+00	
			         1.93167	6.00000e+00	
			         1.93333	6.00000e+00	
			         1.93500	6.00000e+00	
			         1.93667	6.00000e+00	
			         1.93833	5.00000e+00	
			         1.94000	4.00000e+00	
			         1.94167	3.00000e+00	
			         1.94333	1.00000e+00	
			         1.94500	0.00000e+00	
			         1.94667	-1.00000e+00	
			         1.94833	-1.00000e+00	
			         1.95000	-2.00000e+00	
			         1.95167	-2.00000e+00	
			         1.95333	-1.00000e+00	
			         1.95500	0.00000e+00	
			         1.95667	1.00000e+00	
			         1.95833	3.00000e+00	
			         1.96000	5.00000e+00	
			         1.96167	7.00000e+00	
			         1.96333	9.00000e+00	
			         1.96500	1.10000e+01	
			         1.96667	1.20000e+01	
			         1.96833	1.30000e+01	
			         1.97000	1.30000e+01	
			         1.97167	1.30000e+01	
			         1.97333	1.30000e+01	
			         1.97500	1.40000e+01	
			         1.97667	1.40000e+01	
			         1.97833	1.40000e+01	
			         1.98000	1.50000e+01	
			         1.98167	1.60000e+01	
			         1.98333	1.70000e+01	
			         1.98500	1.80000e+01	
			         1.98667	1.90000e+01	
			         1.98833	2.10000e+01	
			         1.99000	2.30000e+01	
			         1.99167	2.50000e+01	
			         1.99333	2.60000e+01	
			         1.99500	2.80000e+01	
			         1.99667	3.00000e+01	
			         1.99833	3.30000e+01	
			         2.00000	3.50000e+01	
			         2.00167	3.70000e+01	
			         2.00333	3.90000e+01	
			         2.00500	4.20000e+01	
			         2.00667	4.50000e+01	
			         2.00833	4.80000e+01	
			         2.01000	5.00000e+01	
			         2.01167	5.30000e+01	
			         2.01333	5.50000e+01	
			         2.01500	5.70000e+01	
			         2.01667	5.80000e+01	
			         2.01833	5.90000e+01	
			         2.02000	6.00000e+01	
			         2.02167	6.10000e+01	
			         2.02333	6.10000e+01	
			         2.02500	6.10000e+01	
			         2.02667	6.10000e+01	
			         2.02833	6.10000e+01	
			         2.03000	6.10000e+01	
			         2.03167	6.10000e+01	
			         2.03333	6.10000e+01	
			         2.03500	6.10000e+01	
			         2.03667	6.10000e+01	
			         2.03833	6.00000e+01	
			         2.04000	5.80000e+01	
			         2.04167	5.60000e+01	
			         2.04333	5.40000e+01	
			         2.04500	5.10000e+01	
			         2.04667	4.80000e+01	
			         2.04833	4.40000e+01	
			         2.05000	4.10000e+01	
			         2.05167	3.80000e+01	
			         2.05333	3.50000e+01	
			         2.05500	3.20000e+01	
			         2.05667	3.00000e+01	
			         2.05833	2.90000e+01	
			         2.06000	2.80000e+01	
			         2.06167	2.70000e+01	
			         2.06333	2.70000e+01	
			         2.06500	2.70000e+01	
			         2.06667	2.70000e+01	
			         2.06833	2.60000e+01	
			         2.07000	2.50000e+01	
			         2.07167	2.40000e+01	
			         2.07333	2.20000e+01	
			         2.07500	1.80000e+01	
			         2.07667	1.40000e+01	
			         2.07833	1.00000e+01	
			         2.08000	5.00000e+00	
			         2.08167	-1.00000e+00	
			         2.08333	-6.00000e+00	
			         2.08500	-1.20000e+01	
			         2.08667	-1.70000e+01	
			         2.08833	-2.20000e+01	
			         2.09000	-2.70000e+01	
			         2.09167	-3.10000e+01	
			         2.09333	-3.40000e+01	
			         2.09500	-3.70000e+01	
			         2.09667	-4.00000e+01	
			         2.09833	-4.20000e+01	
			         2.10000	-4.40000e+01	
			         2.10167	-4.50000e+01	
			         2.10333	-4.60000e+01	
			         2.10500	-4.70000e+01	
			         2.10667	-4.70000e+01	
			         2.10833	-4.80000e+01	
			         2.11000	-4.80000e+01	
			         2.11167	-4.90000e+01	
			         2.11333	-4.90000e+01	
			         2.11500	-5.00000e+01	
			         2.11667	-5.00000e+01	
			         2.11833	-5.10000e+01	
			         2.12000	-5.10000e+01	
			         2.12167	-5.10000e+01	
			         2.12333	-5.10000e+01	
			         2.12500	-5.10000e+01	
			         2.12667	-5.10000e+01	
			         2.12833	-5.10000e+01	
			         2.13000	-5.00000e+01	
			         2.13167	-5.00000e+01	
			         2.13333	-4.90000e+01	
			         2.13500	-4.80000e+01	
			         2.13667	-4.70000e+01	
			         2.13833	-4.60000e+01	
			         2.14000	-4.50000e+01	
			         2.14167	-4.40000e+01	
			         2.14333	-4.40000e+01	
			         2.14500	-4.30000e+01	
			         2.14667	-4.20000e+01	
			         2.14833	-4.20000e+01	
			         2.15000	-4.10000e+01	
			         2.15167	-4.00000e+01	
			         2.15333	-4.00000e+01	
			         2.15500	-3.90000e+01	
			         2.15667	-3.90000e+01	
			         2.15833	-3.80000e+01	
			         2.16000	-3.80000e+01	
			         2.16167	-3.70000e+01	
			         2.16333	-3.60000e+01	
			         2.16500	-3.60000e+01	
			         2.16667	-3.50000e+01	
			         2.16833	-3.40000e+01	
			         2.17000	-3.30000e+01	
			         2.17167	-3.20000e+01	
			         2.17333	-3.10000e+01	
			         2.17500	-3.00000e+01	
			         2.17667	-2.80000e+01	
			         2.17833	-2.70000e+01	
			         2.18000	-2.60000e+01	
			         2.18167	-2.40000e+01	
			         2.18333	-2.40000e+01	
			         2.18500	-2.30000e+01	
			         2.18667	-2.20000e+01	
			         2.18833	-2.20000e+01	
			         2.19000	-2.10000e+01	
			         2.19167	-2.10000e+01	
			         2.19333	-2.00000e+01	
			         2.19500	-2.00000e+01	
			         2.19667	-1.90000e+01	
			         2.19833	-1.80000e+01	
			         2.20000	-1.80000e+01	
			         2.20167	-1.80000e+01	
			         2.20333	-1.70000e+01	
			         2.20500	-1.70000e+01	
			         2.20667	-1.60000e+01	
			         2.20833	-1.50000e+01	
			         2.21000	-1.40000e+01	
			         2.21167	-1.30000e+01	
			         2.21333	-1.30000e+01	
			         2.21500	-1.20000e+01	
			         2.21667	-1.20000e+01	
			         2.21833	-1.20000e+01	
			         2.22000	-1.10000e+01	
			         2.22167	-1.00000e+01	
			         2.22333	-9.00000e+00	
			         2.22500	-8.00000e+00	
			         2.22667	-8.00000e+00	
			         2.22833	-8.00000e+00	
			         2.23000	-9.00000e+00	
			         2.23167	-1.00000e+01	
			         2.23333	-1.10000e+01	
			         2.23500	-1.20000e+01	
			         2.23667	-1.20000e+01	
			         2.23833	-1.30000e+01	
			         2.24000	-1.30000e+01	
			         2.24167	-1.30000e+01	
			         2.24333	-1.30000e+01	
			         2.24500	-1.20000e+01	
			         2.24667	-1.10000e+01	
			         2.24833	-9.00000e+00	
			         2.25000	-7.00000e+00	
			         2.25167	-5.00000e+00	
			         2.25333	-3.00000e+00	
			         2.25500	-2.00000e+00	
			         2.25667	-1.00000e+00	
			         2.25833	0.00000e+00	
			         2.26000	0.00000e+00	
			         2.26167	-1.00000e+00	
			         2.26333	-1.00000e+00	
			         2.26500	-2.00000e+00	
			         2.26667	-3.00000e+00	
			         2.26833	-3.00000e+00	
			         2.27000	-4.00000e+00	
			         2.27167	-3.00000e+00	
			         2.27333	-3.00000e+00	
			         2.27500	-2.00000e+00	
			         2.27667	-2.00000e+00	
			         2.27833	-1.00000e+00	
			         2.28000	0.00000e+00	
			         2.28167	0.00000e+00	
			         2.28333	0.00000e+00	
			         2.28500	0.00000e+00	
			         2.28667	0.00000e+00	
			         2.28833	0.00000e+00	
			         2.29000	0.00000e+00	
			         2.29167	0.00000e+00	
			         2.29333	0.00000e+00	
			         2.29500	1.00000e+00	
			         2.29667	1.00000e+00	
			         2.29833	2.00000e+00	
			         2.30000	3.00000e+00	
			         2.30167	3.00000e+00	
			         2.30333	4.00000e+00	
			         2.30500	5.00000e+00	
			         2.30667	5.00000e+00	
			         2.30833	5.00000e+00	
			         2.31000	4.00000e+00	
			         2.31167	3.00000e+00	
			         2.31333	2.00000e+00	
			         2.31500	0.00000e+00	
			         2.31667	-1.00000e+00	
			         2.31833	-3.00000e+00	
			         2.32000	-5.00000e+00	
			         2.32167	-7.00000e+00	
			         2.32333	-8.00000e+00	
			         2.32500	-9.00000e+00	
			         2.32667	-1.00000e+01	
			         2.32833	-1.00000e+01	
			         2.33000	-1.00000e+01	
			         2.33167	-1.00000e+01	
			         2.33333	-9.00000e+00	
			         2.33500	-8.00000e+00	
			         2.33667	-7.00000e+00	
			         2.33833	-7.00000e+00	
			         2.34000	-6.00000e+00	
			         2.34167	-5.00000e+00	
			         2.34333	-5.00000e+00	
			         2.34500	-5.00000e+00	
			         2.34667	-4.00000e+00	
			         2.34833	-4.00000e+00	
			         2.35000	-4.00000e+00	
			         2.35167	-4.00000e+00	
			         2.35333	-4.00000e+00	
			         2.35500	-4.00000e+00	
			         2.35667	-4.00000e+00	
			         2.35833	-4.00000e+00	
			         2.36000	-5.00000e+00	
			         2.36167	-5.00000e+00	
			         2.36333	-6.00000e+00	
			         2.36500	-7.00000e+00	
			         2.36667	-7.00000e+00	
			         2.36833	-8.00000e+00	
			         2.37000	-8.00000e+00	
			         2.37167	-9.00000e+00	
			         2.37333	-9.00000e+00	
			         2.37500	-9.00000e+00	
			         2.37667	-9.00000e+00	
			         2.37833	-9.00000e+00	
			         2.38000	-8.00000e+00	
			         2.38167	-7.00000e+00	
			         2.38333	-6.00000e+00	
			         2.38500	-4.00000e+00	
			         2.38667	-2.00000e+00	
			         2.38833	0.00000e+00	
			         2.39000	1.00000e+00	
			         2.39167	3.00000e+00	
			         2.39333	4.00000e+00	
			         2.39500	5.00000e+00	
			         2.39667	5.00000e+00	
			         2.39833	6.00000e+00	
			         2.40000	5.00000e+00	
			         2.40167	5.00000e+00	
			         2.40333	4.00000e+00	
			         2.40500	3.00000e+00	
			         2.40667	2.00000e+00	
			         2.40833	0.00000e+00	
			         2.41000	-1.00000e+00	
			         2.41167	-2.00000e+00	
			         2.41333	-2.00000e+00	
			         2.41500	-3.00000e+00	
			         2.41667	-3.00000e+00	
			         2.41833	-3.00000e+00	
			         2.42000	-4.00000e+00	
			         2.42167	-4.00000e+00	
			         2.42333	-4.00000e+00	
			         2.42500	-3.00000e+00	
			         2.42667	-3.00000e+00	
			         2.42833	-3.00000e+00	
			         2.43000	-3.00000e+00	
			         2.43167	-3.00000e+00	
			         2.43333	-3.00000e+00	
			         2.43500	-4.00000e+00	
			         2.43667	-4.00000e+00	
			         2.43833	-5.00000e+00	
			         2.44000	-5.00000e+00	
			         2.44167	-4.00000e+00	
			         2.44333	-4.00000e+00	
			         2.44500	-3.00000e+00	
			         2.44667	-2.00000e+00	
			         2.44833	-1.00000e+00	
			         2.45000	0.00000e+00	
			         2.45167	1.00000e+00	
			         2.45333	2.00000e+00	
			         2.45500	3.00000e+00	
			         2.45667	4.00000e+00	
			         2.45833	5.00000e+00	
			         2.46000	5.00000e+00	
			         2.46167	5.00000e+00	
			         2.46333	5.00000e+00	
			         2.46500	4.00000e+00	
			         2.46667	3.00000e+00	
			         2.46833	2.00000e+00	
			         2.47000	1.00000e+00	
			         2.47167	0.00000e+00	
			         2.47333	-1.00000e+00	
			         2.47500	-1.00000e+00	
			         2.47667	-2.00000e+00	
			         2.47833	-2.00000e+00	
			         2.48000	-2.00000e+00	
			         2.48167	-2.00000e+00	
			         2.48333	0.00000e+00	
			         2.48500	1.00000e+00	
			         2.48667	3.00000e+00	
			         2.48833	6.00000e+00	
			         2.49000	8.00000e+00	
			         2.49167	1.10000e+01	
			         2.49333	1.40000e+01	
			         2.49500	1.60000e+01	
			         2.49667	1.80000e+01	
			         2.49833	2.10000e+01	
			         2.50000	2.20000e+01	
			         2.50167	2.30000e+01	
			         2.50333	2.30000e+01	
			         2.50500	2.30000e+01	
			         2.50667	2.20000e+01	
			         2.50833	2.00000e+01	
			         2.51000	1.80000e+01	
			         2.51167	1.50000e+01	
			         2.51333	1.30000e+01	
			         2.51500	1.00000e+01	
			         2.51667	8.00000e+00	
			         2.51833	6.00000e+00	
			         2.52000	4.00000e+00	
			         2.52167	2.00000e+00	
			         2.52333	0.00000e+00	
			         2.52500	-1.00000e+00	
			         2.52667	-2.00000e+00	
			         2.52833	-2.00000e+00	
			         2.53000	-2.00000e+00	
			         2.53167	-2.00000e+00	
			         2.53333	-2.00000e+00	
			         2.53500	-1.00000e+00	
			         2.53667	-1.00000e+00	
			         2.53833	0.00000e+00	
			         2.54000	0.00000e+00	
			         2.54167	0.00000e+00	
			         2.54333	0.00000e+00	
			         2.54500	0.00000e+00	
			         2.54667	1.00000e+00	
			         2.54833	1.00000e+00	
			         2.55000	1.00000e+00	
			         2.55167	2.00000e+00	
			         2.55333	2.00000e+00	
			         2.55500	3.00000e+00	
			         2.55667	3.00000e+00	
			         2.55833	4.00000e+00	
			         2.56000	4.00000e+00	
			         2.56167	5.00000e+00	
			         2.56333	5.00000e+00	
			         2.56500	6.00000e+00	
			         2.56667	6.00000e+00	
			         2.56833	6.00000e+00	
			         2.57000	5.00000e+00	
			         2.57167	4.00000e+00	
			         2.57333	3.00000e+00	
			         2.57500	2.00000e+00	
			         2.57667	0.00000e+00	
			         2.57833	-2.00000e+00	
			         2.58000	-5.00000e+00	
			         2.58167	-7.00000e+00	
			         2.58333	-8.00000e+00	
			         2.58500	-1.00000e+01	
			         2.58667	-1.10000e+01	
			         2.58833	-1.20000e+01	
			         2.59000	-1.30000e+01	
			         2.59167	-1.40000e+01	
			         2.59333	-1.40000e+01	
			         2.59500	-1.50000e+01	
			         2.59667	-1.50000e+01	
			         2.59833	-1.40000e+01	
			         2.60000	-1.40000e+01	
			         2.60167	-1.30000e+01	
			         2.60333	-1.30000e+01	
			         2.60500	-1.20000e+01	
			         2.60667	-1.20000e+01	
			         2.60833	-1.10000e+01	
			         2.61000	-1.10000e+01	
			         2.61167	-1.00000e+01	
			         2.61333	-9.00000e+00	
			         2.61500	-8.00000e+00	
			         2.61667	-7.00000e+00	
			         2.61833	-7.00000e+00	
			         2.62000	-7.00000e+00	
			         2.62167	-6.00000e+00	
			         2.62333	-6.00000e+00	
			         2.62500	-7.00000e+00	
			         2.62667	-7.00000e+00	
			         2.62833	-8.00000e+00	
			         2.63000	-9.00000e+00	
			         2.63167	-1.00000e+01	
			         2.63333	-1.00000e+01	
			         2.63500	-1.00000e+01	
			         2.63667	-9.00000e+00	
			         2.63833	-6.00000e+00	
			         2.64000	-2.00000e+00	
			         2.64167	6.00000e+00	
			         2.64333	1.60000e+01	
			         2.64500	3.10000e+01	
			         2.64667	5.00000e+01	
			         2.64833	7.40000e+01	
			         2.65000	1.03000e+02	
			         2.65167	1.37000e+02	
			         2.65333	1.74000e+02	
			         2.65500	2.14000e+02	
			         2.65667	2.55000e+02	
			         2.65833	2.96000e+02	
			         2.66000	3.34000e+02	
			         2.66167	3.69000e+02	
			         2.66333	3.98000e+02	
			         2.66500	4.20000e+02	
			         2.66667	4.34000e+02	
			         2.66833	4.38000e+02	
			         2.67000	4.32000e+02	
			         2.67167	4.16000e+02	
			         2.67333	3.90000e+02	
			         2.67500	3.56000e+02	
			         2.67667	3.14000e+02	
			         2.67833	2.68000e+02	
			         2.68000	2.19000e+02	
			         2.68167	1.69000e+02	
			         2.68333	1.19000e+02	
			         2.68500	7.10000e+01	
			         2.68667	2.60000e+01	
			         2.68833	-1.50000e+01	
			         2.69000	-5.10000e+01	
			         2.69167	-8.10000e+01	
			         2.69333	-1.05000e+02	
			         2.69500	-1.24000e+02	
			         2.69667	-1.37000e+02	
			         2.69833	-1.46000e+02	
			         2.70000	-1.50000e+02	
			         2.70167	-1.51000e+02	
			         2.70333	-1.49000e+02	
			         2.70500	-1.46000e+02	
			         2.70667	-1.41000e+02	
			         2.70833	-1.36000e+02	
			         2.71000	-1.29000e+02	
			         2.71167	-1.23000e+02	
			         2.71333	-1.17000e+02	
			         2.71500	-1.11000e+02	
			         2.71667	-1.05000e+02	
			         2.71833	-1.00000e+02	
			         2.72000	-9.50000e+01	
			         2.72167	-9.10000e+01	
			         2.72333	-8.70000e+01	
			         2.72500	-8.40000e+01	
