Velocity (TVI), in cm/s

Time (s) :	Trace 1 : 		Ecg : 		
0.00655   	-8.96266e-01		         0.00000	1.45000e+02	
0.01387   	4.04539e-03		         0.00167	1.66000e+02	
0.02119   	1.16966e+00		         0.00333	1.86000e+02	
0.02851   	2.22128e+00		         0.00500	2.03000e+02	
0.03611   	2.84383e+00		         0.00667	2.16000e+02	
0.04343   	2.95352e+00		         0.00833	2.25000e+02	
0.05075   	2.64952e+00		         0.01000	2.29000e+02	
0.05807   	1.64566e+00		         0.01167	2.27000e+02	
0.06566   	6.88029e-01		         0.01333	2.18000e+02	
0.07298   	8.51005e-01		         0.01500	2.04000e+02	
0.08030   	1.65577e+00		         0.01667	1.84000e+02	
0.08762   	2.31552e+00		         0.01833	1.60000e+02	
0.09521   	3.19157e+00		         0.02000	1.33000e+02	
0.10254   	4.39234e+00		         0.02167	1.04000e+02	
0.10985   	4.91119e+00		         0.02333	7.40000e+01	
0.11717   	5.17251e+00		         0.02500	4.50000e+01	
0.12476   	5.34472e+00		         0.02667	1.70000e+01	
0.13209   	5.31513e+00		         0.02833	-8.00000e+00	
0.13941   	5.25937e+00		         0.03000	-2.90000e+01	
0.14673   	5.17547e+00		         0.03167	-4.60000e+01	
0.15432   	5.07186e+00		         0.03333	-5.90000e+01	
0.16164   	4.91111e+00		         0.03500	-6.80000e+01	
0.16896   	4.83219e+00		         0.03667	-7.30000e+01	
0.17628   	4.72030e+00		         0.03833	-7.60000e+01	
0.18387   	4.61776e+00		         0.04000	-7.70000e+01	
0.19119   	4.55897e+00		         0.04167	-7.50000e+01	
0.19851   	4.57357e+00		         0.04333	-7.30000e+01	
0.20583   	4.52730e+00		         0.04500	-7.00000e+01	
0.21343   	4.41763e+00		         0.04667	-6.60000e+01	
0.22075   	4.32267e+00		         0.04833	-6.20000e+01	
0.22806   	4.17213e+00		         0.05000	-5.90000e+01	
0.23538   	3.91559e+00		         0.05167	-5.70000e+01	
0.24298   	3.69798e+00		         0.05333	-5.50000e+01	
0.25030   	3.57207e+00		         0.05500	-5.40000e+01	
0.25762   	3.32280e+00		         0.05667	-5.30000e+01	
0.26494   	3.15809e+00		         0.05833	-5.20000e+01	
0.27253   	3.07442e+00		         0.06000	-5.10000e+01	
0.27985   	2.90998e+00		         0.06167	-5.00000e+01	
0.28717   	2.77660e+00		         0.06333	-4.90000e+01	
0.29449   	2.64390e+00		         0.06500	-4.90000e+01	
0.30208   	2.50249e+00		         0.06667	-4.80000e+01	
0.30940   	2.26533e+00		         0.06833	-4.70000e+01	
0.31672   	2.10603e+00		         0.07000	-4.60000e+01	
0.32404   	1.89094e+00		         0.07167	-4.50000e+01	
0.33164   	1.72291e+00		         0.07333	-4.50000e+01	
0.33896   	1.54430e+00		         0.07500	-4.40000e+01	
0.34628   	1.35552e+00		         0.07667	-4.40000e+01	
0.35360   	1.14735e+00		         0.07833	-4.40000e+01	
0.36119   	9.20270e-01		         0.08000	-4.30000e+01	
0.36851   	6.01532e-01		         0.08167	-4.20000e+01	
0.37583   	3.47082e-01		         0.08333	-4.20000e+01	
0.38315   	-4.63965e-02		         0.08500	-4.10000e+01	
0.39074   	-3.09320e-01		         0.08667	-4.10000e+01	
0.39806   	-3.69197e-01		         0.08833	-4.00000e+01	
0.40538   	-1.14986e-01		         0.09000	-4.00000e+01	
0.41270   	-1.64509e-01		         0.09167	-3.90000e+01	
0.42030   	-1.44699e-02		         0.09333	-3.70000e+01	
0.42762   	5.07378e-02		         0.09500	-3.60000e+01	
0.43493   	-1.58627e-01		         0.09667	-3.50000e+01	
0.44225   	-5.01491e-01		         0.09833	-3.40000e+01	
0.44985   	-5.77330e-01		         0.10000	-3.30000e+01	
0.45717   	-6.74894e-01		         0.10167	-3.30000e+01	
0.46449   	-7.67830e-01		         0.10333	-3.30000e+01	
0.47181   	-7.75799e-01		         0.10500	-3.20000e+01	
0.47941   	-8.03387e-01		         0.10667	-3.20000e+01	
0.48672   	-9.02580e-01		         0.10833	-3.10000e+01	
0.49404   	-1.05225e+00		         0.11000	-3.00000e+01	
0.50136   	-1.32574e+00		         0.11167	-2.90000e+01	
0.50895   	-1.73574e+00		         0.11333	-2.70000e+01	
0.51627   	-2.21677e+00		         0.11500	-2.50000e+01	
0.52359   	-2.81621e+00		         0.11667	-2.30000e+01	
0.53091   	-3.34728e+00		         0.11833	-2.10000e+01	
0.53851   	-3.82390e+00		         0.12000	-2.00000e+01	
0.54583   	-4.20782e+00		         0.12167	-1.80000e+01	
0.55315   	-4.51251e+00		         0.12333	-1.70000e+01	
0.56047   	-4.61949e+00		         0.12500	-1.60000e+01	
0.56806   	-4.70296e+00		         0.12667	-1.50000e+01	
0.57538   	-4.64881e+00		         0.12833	-1.50000e+01	
0.58270   	-4.50958e+00		         0.13000	-1.40000e+01	
0.59002   	-4.28945e+00		         0.13167	-1.40000e+01	
0.59762   	-4.03842e+00		         0.13333	-1.40000e+01	
0.60493   	-3.65885e+00		         0.13500	-1.40000e+01	
0.61226   	-3.25497e+00		         0.13667	-1.50000e+01	
0.61957   	-2.74110e+00		         0.13833	-1.50000e+01	
0.62717   	-2.23358e+00		         0.14000	-1.60000e+01	
0.63449   	-1.73951e+00		         0.14167	-1.60000e+01	
0.64180   	-1.34030e+00		         0.14333	-1.70000e+01	
0.64913   	-1.01435e+00		         0.14500	-1.70000e+01	
0.65672   	-8.06888e-01		         0.14667	-1.70000e+01	
0.66404   	-6.29879e-01		         0.14833	-1.70000e+01	
0.67136   	-4.79483e-01		         0.15000	-1.60000e+01	
0.67868   	-2.77729e-01		         0.15167	-1.50000e+01	
0.68627   	-1.01987e-01		         0.15333	-1.30000e+01	
0.69359   	6.94595e-02		         0.15500	-1.10000e+01	
0.70091   	2.09210e-01		         0.15667	-9.00000e+00	
0.70823   	3.14249e-01		         0.15833	-6.00000e+00	
0.71583   	3.81781e-01		         0.16000	-4.00000e+00	
0.72343   	4.18765e-01		         0.16167	-1.00000e+00	
0.73046   	4.40856e-01		         0.16333	1.00000e+00	
0.73778   	4.46182e-01		         0.16500	3.00000e+00	
0.74538   	4.52196e-01		         0.16667	4.00000e+00	
0.75270   	4.43942e-01		         0.16833	5.00000e+00	
0.76002   	4.36250e-01		         0.17000	6.00000e+00	
0.76734   	3.95398e-01		         0.17167	7.00000e+00	
0.77493   	3.43478e-01		         0.17333	8.00000e+00	
0.78225   	2.75269e-01		         0.17500	8.00000e+00	
0.78957   	1.56376e-01		         0.17667	8.00000e+00	
0.79689   	4.23989e-02		         0.17833	7.00000e+00	
0.80448   	-4.20428e-02		         0.18000	6.00000e+00	
0.81180   	-1.25724e-01		         0.18167	5.00000e+00	
0.81912   	-2.36369e-01		         0.18333	4.00000e+00	
0.82644   	-2.93281e-01		         0.18500	3.00000e+00	
0.83404   	-3.51062e-01		         0.18667	3.00000e+00	
0.84136   	-4.14071e-01		         0.18833	3.00000e+00	
0.84868   	-4.59882e-01		         0.19000	2.00000e+00	
0.85600   	-4.69775e-01		         0.19167	2.00000e+00	
0.86359   	-4.83309e-01		         0.19333	2.00000e+00	
0.87091   	-4.82967e-01		         0.19500	2.00000e+00	
0.87823   	-4.68845e-01		         0.19667	2.00000e+00	
0.88555   	-4.59615e-01		         0.19833	2.00000e+00	
0.89314   	-4.53676e-01		         0.20000	3.00000e+00	
0.90047   	-4.87796e-01		         0.20167	4.00000e+00	
0.90778   	-5.85904e-01		         0.20333	5.00000e+00	
0.91510   	-8.04429e-01		         0.20500	7.00000e+00	
0.92293   	-1.26742e+00		         0.20667	8.00000e+00	
0.93002   	-2.03808e+00		         0.20833	1.00000e+01	
0.93733   	-3.08581e+00		         0.21000	1.10000e+01	
0.94466   	-4.27900e+00		         0.21167	1.20000e+01	
0.95225   	-5.47735e+00		         0.21333	1.30000e+01	
0.95957   	-6.46364e+00		         0.21500	1.40000e+01	
0.96689   	-7.08474e+00		         0.21667	1.60000e+01	
0.97421   	-7.29423e+00		         0.21833	1.70000e+01	
0.98180   	-7.10854e+00		         0.22000	1.90000e+01	
0.98912   	-6.51352e+00		         0.22167	2.10000e+01	
0.99644   	-5.62574e+00		         0.22333	2.30000e+01	
1.00376   	-4.54444e+00		         0.22500	2.50000e+01	
1.01136   	-3.40392e+00		         0.22667	2.70000e+01	
1.01867   	-2.40954e+00		         0.22833	2.80000e+01	
1.02599   	-1.70179e+00		         0.23000	2.90000e+01	
1.03331   	-1.28183e+00		         0.23167	3.00000e+01	
1.04091   	-1.07670e+00		         0.23333	3.10000e+01	
1.04823   	-4.28987e-01		         0.23500	3.10000e+01	
1.05554   	8.68671e-01		         0.23667	3.20000e+01	
1.06287   	2.06546e+00		         0.23833	3.20000e+01	
1.07046   	2.87081e+00		         0.24000	3.20000e+01	
1.07778   	2.89653e+00		         0.24167	3.20000e+01	
1.08510   	2.71564e+00		         0.24333	3.20000e+01	
1.09242   	1.76545e+00		         0.24500	3.20000e+01	
1.10002   	4.80618e-01		         0.24667	3.30000e+01	
1.10733   	5.03246e-01		         0.24833	3.40000e+01	
1.11465   	1.47008e+00		         0.25000	3.60000e+01	
1.12209   	2.14111e+00		         0.25167	3.70000e+01	
1.12957   	2.95420e+00		         0.25333	3.90000e+01	
1.13689   	4.28646e+00		         0.25500	4.10000e+01	
1.14421   	4.74371e+00		         0.25667	4.20000e+01	
1.15152   	5.03801e+00		         0.25833	4.40000e+01	
1.15912   	5.19474e+00		         0.26000	4.50000e+01	
1.16644   	5.22851e+00		         0.26167	4.70000e+01	
1.17376   	5.15758e+00		         0.26333	5.00000e+01	
1.18108   	5.09582e+00		         0.26500	5.20000e+01	
1.18867   	4.89167e+00		         0.26667	5.50000e+01	
1.19599   	4.69136e+00		         0.26833	5.80000e+01	
1.20331   	4.52535e+00		         0.27000	6.10000e+01	
1.21063   	4.34039e+00		         0.27167	6.30000e+01	
1.21823   	4.12585e+00		         0.27333	6.60000e+01	
1.22555   	4.01205e+00		         0.27500	6.90000e+01	
1.23287   	3.95134e+00		         0.27667	7.20000e+01	
1.24018   	3.87006e+00		         0.27833	7.40000e+01	
1.24778   	3.89032e+00		         0.28000	7.60000e+01	
1.25510   	3.84776e+00		         0.28167	7.70000e+01	
1.26242   	3.84706e+00		         0.28333	7.80000e+01	
1.26974   	3.72961e+00		         0.28500	7.80000e+01	
1.27733   	3.59508e+00		         0.28667	7.70000e+01	
1.28465   	3.43149e+00		         0.28833	7.70000e+01	
1.29197   	3.27891e+00		         0.29000	7.60000e+01	
1.29929   	3.05406e+00		         0.29167	7.50000e+01	
1.30688   	2.94204e+00		         0.29333	7.40000e+01	
1.31421   	2.87861e+00		         0.29500	7.30000e+01	
1.32161   	2.67020e+00		         0.29667	7.20000e+01	
1.32884   	2.48966e+00		         0.29833	7.20000e+01	
1.33644   	2.32670e+00		         0.30000	7.10000e+01	
1.34376   	2.15396e+00		         0.30167	7.10000e+01	
1.35108   	1.93975e+00		         0.30333	7.10000e+01	
1.35839   	1.79466e+00		         0.30500	7.10000e+01	
1.36599   	1.65358e+00		         0.30667	7.00000e+01	
1.37331   	1.47835e+00		         0.30833	6.90000e+01	
1.38063   	1.28846e+00		         0.31000	6.80000e+01	
1.38795   	1.20046e+00		         0.31167	6.60000e+01	
1.39555   	9.40973e-01		         0.31333	6.40000e+01	
1.40286   	6.73732e-01		         0.31500	6.10000e+01	
1.41018   	4.11643e-01		         0.31667	5.70000e+01	
1.41750   	9.04236e-02		         0.31833	5.30000e+01	
1.42510   	-4.59318e-01		         0.32000	4.90000e+01	
1.43242   	-4.21947e-01		         0.32167	4.50000e+01	
1.43973   	-1.86207e-01		         0.32333	4.10000e+01	
1.44706   	-1.16870e-01		         0.32500	3.60000e+01	
1.45465   	1.22800e-02		         0.32667	3.10000e+01	
1.46197   	2.83619e-01		         0.32833	2.70000e+01	
1.46929   	1.79072e-01		         0.33000	2.20000e+01	
1.47661   	-1.45261e-01		         0.33167	1.70000e+01	
1.48420   	-2.81755e-01		         0.33333	1.20000e+01	
1.49152   	-3.62771e-01		         0.33500	8.00000e+00	
1.49884   	-4.67358e-01		         0.33667	4.00000e+00	
1.50616   	-6.14809e-01		         0.33833	-1.00000e+00	
1.51376   	-6.97434e-01		         0.34000	-5.00000e+00	
1.52108   	-7.66379e-01		         0.34167	-9.00000e+00	
1.52839   	-9.65241e-01		         0.34333	-1.30000e+01	
1.53571   	-1.24682e+00		         0.34500	-1.70000e+01	
1.54331   	-1.56859e+00		         0.34667	-2.00000e+01	
1.55063   	-2.04146e+00		         0.34833	-2.30000e+01	
1.55795   	-2.63562e+00		         0.35000	-2.60000e+01	
1.56527   	-3.16924e+00		         0.35167	-2.90000e+01	
1.57286   	-3.67121e+00		         0.35333	-3.10000e+01	
1.58018   	-4.08778e+00		         0.35500	-3.40000e+01	
1.58750   	-4.43581e+00		         0.35667	-3.60000e+01	
1.59482   	-4.62568e+00		         0.35833	-3.80000e+01	
1.60242   	-4.78105e+00		         0.36000	-4.00000e+01	
1.60974   	-4.79779e+00		         0.36167	-4.20000e+01	
1.61705   	-4.72916e+00		         0.36333	-4.50000e+01	
1.62438   	-4.55424e+00		         0.36500	-4.80000e+01	
1.63197   	-4.30450e+00		         0.36667	-5.10000e+01	
1.63929   	-3.94567e+00		         0.36833	-5.30000e+01	
1.64661   	-3.51067e+00		         0.37000	-5.50000e+01	
1.65392   	-3.02822e+00		         0.37167	-5.70000e+01	
1.66152   	-2.51831e+00		         0.37333	-5.80000e+01	
1.66884   	-2.01878e+00		         0.37500	-5.90000e+01	
1.67616   	-1.61330e+00		         0.37667	-5.90000e+01	
1.68348   	-1.25268e+00		         0.37833	-6.00000e+01	
1.69107   	-9.79779e-01		         0.38000	-6.10000e+01	
1.69839   	-7.90132e-01		         0.38167	-6.20000e+01	
1.70571   	-6.38578e-01		         0.38333	-6.30000e+01	
1.71303   	-4.90001e-01		         0.38500	-6.40000e+01	
1.72063   	-4.04848e-01		         0.38667	-6.40000e+01	
1.72795   	-3.51170e-01		         0.38833	-6.50000e+01	
1.73526   	-2.63372e-01		         0.39000	-6.50000e+01	
1.74259   	-1.93469e-01		         0.39167	-6.50000e+01	
1.75018   	-1.45973e-01		         0.39333	-6.60000e+01	
1.75750   	-7.05621e-02		         0.39500	-6.60000e+01	
1.76482   	-6.68791e-03		         0.39667	-6.60000e+01	
1.77214   	6.41283e-02		         0.39833	-6.50000e+01	
1.77973   	9.86021e-02		         0.40000	-6.40000e+01	
1.78705   	1.39430e-01		         0.40167	-6.30000e+01	
1.79437   	1.49402e-01		         0.40333	-6.20000e+01	
1.80169   	1.59807e-01		         0.40500	-6.00000e+01	
1.80929   	1.39483e-01		         0.40667	-5.90000e+01	
1.81660   	1.32984e-01		         0.40833	-5.70000e+01	
1.82393   	1.20578e-01		         0.41000	-5.50000e+01	
1.83125   	7.93244e-02		         0.41167	-5.40000e+01	
1.83884   	1.96274e-02		         0.41333	-5.20000e+01	
1.84616   	-2.84399e-02		         0.41500	-5.10000e+01	
1.85347   	-9.12777e-02		         0.41667	-4.90000e+01	
1.86080   	-1.75939e-01		         0.41833	-4.80000e+01	
1.86839   	-2.40923e-01		         0.42000	-4.70000e+01	
1.87571   	-2.93288e-01		         0.42167	-4.60000e+01	
1.88303   	-3.33534e-01		         0.42333	-4.40000e+01	
1.89035   	-3.61861e-01		         0.42500	-4.30000e+01	
1.89794   	-3.61921e-01		         0.42667	-4.20000e+01	
1.90527   	-3.48694e-01		         0.42833	-4.10000e+01	
1.91258   	-3.59654e-01		         0.43000	-4.00000e+01	
1.91990   	-3.80674e-01		         0.43167	-3.90000e+01	
1.92750   	-4.38247e-01		         0.43333	-3.80000e+01	
1.93482   	-5.62915e-01		         0.43500	-3.70000e+01	
1.94214   	-8.73659e-01		         0.43667	-3.70000e+01	
1.94946   	-1.41942e+00		         0.43833	-3.60000e+01	
1.95705   	-2.28824e+00		         0.44000	-3.50000e+01	
1.96437   	-3.43336e+00		         0.44167	-3.30000e+01	
1.97169   	-4.64665e+00		         0.44333	-3.20000e+01	
1.97901   	-5.71455e+00		         0.44500	-3.10000e+01	
1.98660   	-6.54362e+00		         0.44667	-3.10000e+01	
1.99392   	-7.01148e+00		         0.44833	-3.00000e+01	
2.00124   	-7.09168e+00		         0.45000	-3.00000e+01	
2.00856   	-6.76079e+00		         0.45167	-2.90000e+01	
2.01616   	-6.10879e+00		         0.45333	-2.90000e+01	
2.02348   	-5.16116e+00		         0.45500	-2.80000e+01	
2.03080   	-4.01972e+00		         0.45667	-2.70000e+01	
2.03811   	-2.82040e+00		         0.45833	-2.70000e+01	
2.04571   	-1.90828e+00		         0.46000	-2.60000e+01	
2.05303   	-1.31008e+00		         0.46167	-2.60000e+01	
2.06035   	-9.76561e-01		         0.46333	-2.60000e+01	
2.06767   	-6.78593e-01		         0.46500	-2.50000e+01	
2.07526   	1.30387e-01		         0.46667	-2.40000e+01	
2.08258   	1.50923e+00		         0.46833	-2.30000e+01	
2.08990   	2.55827e+00		         0.47000	-2.20000e+01	
2.09722   	2.81003e+00		         0.47167	-2.20000e+01	
2.10482   	2.80207e+00		         0.47333	-2.10000e+01	
2.11214   	2.35045e+00		         0.47500	-2.10000e+01	
2.11946   	1.14950e+00		         0.47667	-2.00000e+01	
2.12677   	7.97266e-02		         0.47833	-2.00000e+01	
2.13437   	6.14326e-01		         0.48000	-2.00000e+01	
2.14169   	1.44486e+00		         0.48167	-2.00000e+01	
2.14901   	2.17191e+00		         0.48333	-1.90000e+01	
2.15633   	3.15155e+00		         0.48500	-1.90000e+01	
2.16392   	4.44056e+00		         0.48667	-1.90000e+01	
2.17124   	4.93473e+00		         0.48833	-1.90000e+01	
2.17856   	5.16984e+00		         0.49000	-1.90000e+01	
2.18588   	5.25919e+00		         0.49167	-1.90000e+01	
2.19347   	5.27088e+00		         0.49333	-1.80000e+01	
2.20079   	5.18948e+00		         0.49500	-1.70000e+01	
2.20811   	5.01167e+00		         0.49667	-1.50000e+01	
2.21543   	4.82645e+00		         0.49833	-1.30000e+01	
2.22303   	4.67289e+00		         0.50000	-1.10000e+01	
2.23035   	4.48468e+00		         0.50167	-8.00000e+00	
2.23767   	4.26635e+00		         0.50333	-6.00000e+00	
2.24499   	4.15066e+00		         0.50500	-4.00000e+00	
2.25258   	4.07696e+00		         0.50667	-2.00000e+00	
2.25990   	3.99473e+00		         0.50833	-1.00000e+00	
2.26757   	3.90344e+00		         0.51000	0.00000e+00	
2.27454   	3.88615e+00		         0.51167	0.00000e+00	
2.28213   	3.80821e+00		         0.51333	0.00000e+00	
2.28945   	3.65949e+00		         0.51500	-1.00000e+00	
2.29677   	3.55540e+00		         0.51667	-3.00000e+00	
2.30409   	3.45913e+00		         0.51833	-5.00000e+00	
2.31169   	3.27368e+00		         0.52000	-7.00000e+00	
2.31901   	3.16117e+00		         0.52167	-1.00000e+01	
2.32633   	3.11104e+00		         0.52333	-1.20000e+01	
2.33364   	3.01624e+00		         0.52500	-1.40000e+01	
2.34124   	2.90497e+00		         0.52667	-1.60000e+01	
2.34856   	2.81457e+00		         0.52833	-1.60000e+01	
2.35588   	2.65332e+00		         0.53000	-1.70000e+01	
2.36320   	2.46504e+00		         0.53167	-1.70000e+01	
2.37079   	2.24866e+00		         0.53333	-1.60000e+01	
2.37811   	2.05641e+00		         0.53500	-1.60000e+01	
2.38543   	1.92053e+00		         0.53667	-1.50000e+01	
2.39275   	1.73963e+00		         0.53833	-1.40000e+01	
2.40038   	1.53070e+00		         0.54000	-1.40000e+01	
2.40767   	1.38674e+00		         0.54167	-1.40000e+01	
2.41498   	1.21901e+00		         0.54333	-1.40000e+01	
2.42230   	9.57695e-01		         0.54500	-1.40000e+01	
2.42990   	6.51626e-01		         0.54667	-1.40000e+01	
2.43722   	3.92992e-01		         0.54833	-1.50000e+01	
2.44454   	-1.31596e-02		         0.55000	-1.50000e+01	
2.45186   	-2.87992e-01		         0.55167	-1.50000e+01	
2.45945   	-1.94429e-01		         0.55333	-1.60000e+01	
2.46680   	-1.23094e-02		         0.55500	-1.60000e+01	
2.47409   	-6.57724e-02		         0.55667	-1.50000e+01	
2.48141   	1.02326e-01		         0.55833	-1.50000e+01	
2.48900   	1.48800e-01		         0.56000	-1.40000e+01	
2.49632   	-1.01643e-01		         0.56167	-1.30000e+01	
2.50364   	-3.03167e-01		         0.56333	-1.20000e+01	
2.51096   	-3.13071e-01		         0.56500	-1.10000e+01	
2.51856   	-4.20762e-01		         0.56667	-9.00000e+00	
2.52588   	-5.28590e-01		         0.56833	-8.00000e+00	
2.53326   	-6.40791e-01		         0.57000	-7.00000e+00	
2.54051   	-7.97986e-01		         0.57167	-6.00000e+00	
2.54811   	-9.03031e-01		         0.57333	-6.00000e+00	
2.55543   	-1.08257e+00		         0.57500	-7.00000e+00	
2.56275   	-1.37810e+00		         0.57667	-8.00000e+00	
2.57007   	-1.74451e+00		         0.57833	-1.00000e+01	
2.57766   	-2.21487e+00		         0.58000	-1.10000e+01	
2.58498   	-2.85952e+00		         0.58167	-1.30000e+01	
2.59230   	-3.46992e+00		         0.58333	-1.40000e+01	
2.59962   	-3.93701e+00		         0.58500	-1.40000e+01	
2.60722   	-4.27814e+00		         0.58667	-1.40000e+01	
2.61453   	-4.50999e+00		         0.58833	-1.40000e+01	
2.62186   	-4.59023e+00		         0.59000	-1.40000e+01	
2.62917   	-4.59069e+00		         0.59167	-1.30000e+01	
2.63677   	-4.48352e+00		         0.59333	-1.10000e+01	
2.64409   	-4.40538e+00		         0.59500	-9.00000e+00	
2.65141   	-4.25394e+00		         0.59667	-6.00000e+00	
2.65873   	-3.98782e+00		         0.59833	-4.00000e+00	
2.66632   	-3.62971e+00		         0.60000	-3.00000e+00	
2.67364   	-3.25692e+00		         0.60167	-2.00000e+00	
2.68096   	-2.79504e+00		         0.60333	-2.00000e+00	
2.68828   	-2.36140e+00		         0.60500	-2.00000e+00	
2.69587   	-1.87779e+00		         0.60667	-3.00000e+00	
2.70320   	-1.49815e+00		         0.60833	-4.00000e+00	
2.71052   	-1.19916e+00		         0.61000	-5.00000e+00	
2.71783   	-9.57451e-01		         0.61167	-6.00000e+00	
2.72543   	-7.38850e-01		         0.61333	-7.00000e+00	
2.73275   	-6.21805e-01		         0.61500	-8.00000e+00	
2.74007   	-5.16382e-01		         0.61667	-8.00000e+00	
2.74739   	-4.03362e-01		         0.61833	-9.00000e+00	
2.75498   	-3.05843e-01		         0.62000	-8.00000e+00	
2.76230   	-1.95952e-01		         0.62167	-8.00000e+00	
2.76962   	-1.22283e-01		         0.62333	-8.00000e+00	
2.77694   	-5.45839e-02		         0.62500	-7.00000e+00	
2.78453   	-5.82113e-03		         0.62667	-7.00000e+00	
2.79185   	-3.42095e-03		         0.62833	-7.00000e+00	
2.79917   	1.95836e-02		         0.63000	-7.00000e+00	
2.80649   	5.45864e-02		         0.63167	-7.00000e+00	
2.81408   	7.92558e-02		         0.63333	-8.00000e+00	
2.82141   	1.07145e-01		         0.63500	-9.00000e+00	
2.82873   	1.50863e-01		         0.63667	-1.10000e+01	
2.83604   	1.60143e-01		         0.63833	-1.20000e+01	
2.84364   	1.48095e-01		         0.64000	-1.20000e+01	
2.85096   	1.17933e-01		         0.64167	-1.30000e+01	
2.85828   	6.02608e-02		         0.64333	-1.40000e+01	
2.86560   	-2.20772e-03		         0.64500	-1.40000e+01	
2.87319   	-6.50767e-02		         0.64667	-1.50000e+01	
2.88051   	-1.20689e-01		         0.64833	-1.50000e+01	
2.88783   	-1.54652e-01		         0.65000	-1.60000e+01	
2.89515   	-1.70411e-01		         0.65167	-1.50000e+01	
2.90275   	-1.76587e-01		         0.65333	-1.50000e+01	
2.91007   	-1.79351e-01		         0.65500	-1.40000e+01	
2.91738   	-1.84090e-01		         0.65667	-1.30000e+01	
2.92470   	-1.97765e-01		         0.65833	-1.20000e+01	
2.93230   	-2.27990e-01		         0.66000	-1.10000e+01	
2.93961   	-3.01228e-01		         0.66167	-1.10000e+01	
2.94693   	-4.25838e-01		         0.66333	-1.00000e+01	
2.95426   	-5.84708e-01		         0.66500	-9.00000e+00	
2.96185   	-8.17335e-01		         0.66667	-8.00000e+00	
2.96917   	-1.23624e+00		         0.66833	-6.00000e+00	
2.97649   	-1.87987e+00		         0.67000	-5.00000e+00	
2.98381   	-2.79572e+00		         0.67167	-4.00000e+00	
2.99141   	-3.94584e+00		         0.67333	-4.00000e+00	
2.99872   	-5.09878e+00		         0.67500	-3.00000e+00	
3.00604   	-6.10580e+00		         0.67667	-3.00000e+00	
3.01336   	-6.83626e+00		         0.67833	-3.00000e+00	
3.02096   	-7.17445e+00		         0.68000	-3.00000e+00	
3.02828   	-7.10048e+00		         0.68167	-3.00000e+00	
3.03560   	-6.66032e+00		         0.68333	-2.00000e+00	
3.04292   	-5.80661e+00		         0.68500	-1.00000e+00	
3.05051   	-4.82331e+00		         0.68667	-1.00000e+00	
3.05783   	-3.66062e+00		         0.68833	-2.00000e+00	
3.06549   	-2.64296e+00		         0.69000	-2.00000e+00	
3.07247   	-1.80468e+00		         0.69167	-3.00000e+00	
3.08006   	-1.35247e+00		         0.69333	-4.00000e+00	
3.08738   	-1.09864e+00		         0.69500	-4.00000e+00	
3.09470   	-5.63133e-01		         0.69667	-5.00000e+00	
3.10203   	7.15083e-01		         0.69833	-6.00000e+00	
3.10962   	1.09269e+00		         0.70000	-6.00000e+00	
3.11694   	1.77503e+00		         0.70167	-7.00000e+00	
			         0.70333	-8.00000e+00	
			         0.70500	-9.00000e+00	
			         0.70667	-1.00000e+01	
			         0.70833	-1.00000e+01	
			         0.71000	-1.00000e+01	
			         0.71167	-9.00000e+00	
			         0.71333	-8.00000e+00	
			         0.71500	-7.00000e+00	
			         0.71667	-6.00000e+00	
			         0.71833	-5.00000e+00	
			         0.72000	-4.00000e+00	
			         0.72167	-3.00000e+00	
			         0.72333	-2.00000e+00	
			         0.72500	-2.00000e+00	
			         0.72667	-2.00000e+00	
			         0.72833	-2.00000e+00	
			         0.73000	-2.00000e+00	
			         0.73167	-3.00000e+00	
			         0.73333	-4.00000e+00	
			         0.73500	-4.00000e+00	
			         0.73667	-5.00000e+00	
			         0.73833	-6.00000e+00	
			         0.74000	-7.00000e+00	
			         0.74167	-8.00000e+00	
			         0.74333	-8.00000e+00	
			         0.74500	-9.00000e+00	
			         0.74667	-8.00000e+00	
			         0.74833	-8.00000e+00	
			         0.75000	-8.00000e+00	
			         0.75167	-8.00000e+00	
			         0.75333	-8.00000e+00	
			         0.75500	-9.00000e+00	
			         0.75667	-1.00000e+01	
			         0.75833	-1.10000e+01	
			         0.76000	-1.20000e+01	
			         0.76167	-1.30000e+01	
			         0.76333	-1.50000e+01	
			         0.76500	-1.60000e+01	
			         0.76667	-1.70000e+01	
			         0.76833	-1.70000e+01	
			         0.77000	-1.60000e+01	
			         0.77167	-1.50000e+01	
			         0.77333	-1.30000e+01	
			         0.77500	-1.10000e+01	
			         0.77667	-8.00000e+00	
			         0.77833	-5.00000e+00	
			         0.78000	-3.00000e+00	
			         0.78167	0.00000e+00	
			         0.78333	2.00000e+00	
			         0.78500	4.00000e+00	
			         0.78667	6.00000e+00	
			         0.78833	7.00000e+00	
			         0.79000	6.00000e+00	
			         0.79167	6.00000e+00	
			         0.79333	4.00000e+00	
			         0.79500	3.00000e+00	
			         0.79667	1.00000e+00	
			         0.79833	-1.00000e+00	
			         0.80000	-2.00000e+00	
			         0.80167	-3.00000e+00	
			         0.80333	-3.00000e+00	
			         0.80500	-3.00000e+00	
			         0.80667	-3.00000e+00	
			         0.80833	-2.00000e+00	
			         0.81000	-1.00000e+00	
			         0.81167	0.00000e+00	
			         0.81333	1.00000e+00	
			         0.81500	2.00000e+00	
			         0.81667	2.00000e+00	
			         0.81833	3.00000e+00	
			         0.82000	3.00000e+00	
			         0.82167	2.00000e+00	
			         0.82333	2.00000e+00	
			         0.82500	1.00000e+00	
			         0.82667	1.00000e+00	
			         0.82833	0.00000e+00	
			         0.83000	0.00000e+00	
			         0.83167	0.00000e+00	
			         0.83333	-1.00000e+00	
			         0.83500	-1.00000e+00	
			         0.83667	-1.00000e+00	
			         0.83833	-1.00000e+00	
			         0.84000	0.00000e+00	
			         0.84167	0.00000e+00	
			         0.84333	0.00000e+00	
			         0.84500	0.00000e+00	
			         0.84667	0.00000e+00	
			         0.84833	0.00000e+00	
			         0.85000	0.00000e+00	
			         0.85167	0.00000e+00	
			         0.85333	0.00000e+00	
			         0.85500	-1.00000e+00	
			         0.85667	-1.00000e+00	
			         0.85833	-2.00000e+00	
			         0.86000	-3.00000e+00	
			         0.86167	-4.00000e+00	
			         0.86333	-5.00000e+00	
			         0.86500	-5.00000e+00	
			         0.86667	-5.00000e+00	
			         0.86833	-5.00000e+00	
			         0.87000	-5.00000e+00	
			         0.87167	-5.00000e+00	
			         0.87333	-5.00000e+00	
			         0.87500	-5.00000e+00	
			         0.87667	-4.00000e+00	
			         0.87833	-4.00000e+00	
			         0.88000	-3.00000e+00	
			         0.88167	-2.00000e+00	
			         0.88333	-1.00000e+00	
			         0.88500	-1.00000e+00	
			         0.88667	0.00000e+00	
			         0.88833	0.00000e+00	
			         0.89000	1.00000e+00	
			         0.89167	1.00000e+00	
			         0.89333	1.00000e+00	
			         0.89500	2.00000e+00	
			         0.89667	3.00000e+00	
			         0.89833	4.00000e+00	
			         0.90000	5.00000e+00	
			         0.90167	7.00000e+00	
			         0.90333	8.00000e+00	
			         0.90500	9.00000e+00	
			         0.90667	1.00000e+01	
			         0.90833	1.10000e+01	
			         0.91000	1.20000e+01	
			         0.91167	1.20000e+01	
			         0.91333	1.20000e+01	
			         0.91500	1.20000e+01	
			         0.91667	1.10000e+01	
			         0.91833	1.00000e+01	
			         0.92000	9.00000e+00	
			         0.92167	8.00000e+00	
			         0.92333	7.00000e+00	
			         0.92500	6.00000e+00	
			         0.92667	5.00000e+00	
			         0.92833	4.00000e+00	
			         0.93000	3.00000e+00	
			         0.93167	3.00000e+00	
			         0.93333	2.00000e+00	
			         0.93500	2.00000e+00	
			         0.93667	2.00000e+00	
			         0.93833	1.00000e+00	
			         0.94000	0.00000e+00	
			         0.94167	-1.00000e+00	
			         0.94333	-2.00000e+00	
			         0.94500	-4.00000e+00	
			         0.94667	-6.00000e+00	
			         0.94833	-8.00000e+00	
			         0.95000	-1.00000e+01	
			         0.95167	-1.20000e+01	
			         0.95333	-1.40000e+01	
			         0.95500	-1.50000e+01	
			         0.95667	-1.70000e+01	
			         0.95833	-1.80000e+01	
			         0.96000	-1.90000e+01	
			         0.96167	-1.90000e+01	
			         0.96333	-1.90000e+01	
			         0.96500	-1.80000e+01	
			         0.96667	-1.60000e+01	
			         0.96833	-1.40000e+01	
			         0.97000	-1.30000e+01	
			         0.97167	-1.10000e+01	
			         0.97333	-1.00000e+01	
			         0.97500	-9.00000e+00	
			         0.97667	-8.00000e+00	
			         0.97833	-7.00000e+00	
			         0.98000	-6.00000e+00	
			         0.98167	-5.00000e+00	
			         0.98333	-5.00000e+00	
			         0.98500	-6.00000e+00	
			         0.98667	-6.00000e+00	
			         0.98833	-7.00000e+00	
			         0.99000	-8.00000e+00	
			         0.99167	-9.00000e+00	
			         0.99333	-9.00000e+00	
			         0.99500	-9.00000e+00	
			         0.99667	-9.00000e+00	
			         0.99833	-1.00000e+01	
			         1.00000	-1.00000e+01	
			         1.00167	-1.10000e+01	
			         1.00333	-1.10000e+01	
			         1.00500	-1.20000e+01	
			         1.00667	-1.40000e+01	
			         1.00833	-1.50000e+01	
			         1.01000	-1.50000e+01	
			         1.01167	-1.60000e+01	
			         1.01333	-1.50000e+01	
			         1.01500	-1.40000e+01	
			         1.01667	-1.20000e+01	
			         1.01833	-9.00000e+00	
			         1.02000	-4.00000e+00	
			         1.02167	3.00000e+00	
			         1.02333	1.20000e+01	
			         1.02500	2.40000e+01	
			         1.02667	3.80000e+01	
			         1.02833	5.40000e+01	
			         1.03000	7.30000e+01	
			         1.03167	9.20000e+01	
			         1.03333	1.13000e+02	
			         1.03500	1.34000e+02	
			         1.03667	1.55000e+02	
			         1.03833	1.75000e+02	
			         1.04000	1.92000e+02	
			         1.04167	2.06000e+02	
			         1.04333	2.16000e+02	
			         1.04500	2.20000e+02	
			         1.04667	2.19000e+02	
			         1.04833	2.12000e+02	
			         1.05000	2.00000e+02	
			         1.05167	1.84000e+02	
			         1.05333	1.63000e+02	
			         1.05500	1.38000e+02	
			         1.05667	1.12000e+02	
			         1.05833	8.40000e+01	
			         1.06000	5.60000e+01	
			         1.06167	2.90000e+01	
			         1.06333	3.00000e+00	
			         1.06500	-1.90000e+01	
			         1.06667	-3.80000e+01	
			         1.06833	-5.30000e+01	
			         1.07000	-6.40000e+01	
			         1.07167	-7.20000e+01	
			         1.07333	-7.60000e+01	
			         1.07500	-7.80000e+01	
			         1.07667	-7.90000e+01	
			         1.07833	-7.80000e+01	
			         1.08000	-7.50000e+01	
			         1.08167	-7.20000e+01	
			         1.08333	-6.90000e+01	
			         1.08500	-6.50000e+01	
			         1.08667	-6.10000e+01	
			         1.08833	-5.80000e+01	
			         1.09000	-5.60000e+01	
			         1.09167	-5.50000e+01	
			         1.09333	-5.40000e+01	
			         1.09500	-5.40000e+01	
			         1.09667	-5.30000e+01	
			         1.09833	-5.30000e+01	
			         1.10000	-5.20000e+01	
			         1.10167	-5.20000e+01	
			         1.10333	-5.10000e+01	
			         1.10500	-5.00000e+01	
			         1.10667	-4.90000e+01	
			         1.10833	-4.80000e+01	
			         1.11000	-4.70000e+01	
			         1.11167	-4.60000e+01	
			         1.11333	-4.40000e+01	
			         1.11500	-4.30000e+01	
			         1.11667	-4.10000e+01	
			         1.11833	-4.00000e+01	
			         1.12000	-3.90000e+01	
			         1.12167	-3.90000e+01	
			         1.12333	-3.80000e+01	
			         1.12500	-3.70000e+01	
			         1.12667	-3.60000e+01	
			         1.12833	-3.50000e+01	
			         1.13000	-3.40000e+01	
			         1.13167	-3.40000e+01	
			         1.13333	-3.30000e+01	
			         1.13500	-3.20000e+01	
			         1.13667	-3.10000e+01	
			         1.13833	-3.10000e+01	
			         1.14000	-3.00000e+01	
			         1.14167	-2.90000e+01	
			         1.14333	-2.90000e+01	
			         1.14500	-2.90000e+01	
			         1.14667	-2.80000e+01	
			         1.14833	-2.80000e+01	
			         1.15000	-2.60000e+01	
			         1.15167	-2.50000e+01	
			         1.15333	-2.40000e+01	
			         1.15500	-2.30000e+01	
			         1.15667	-2.20000e+01	
			         1.15833	-2.10000e+01	
			         1.16000	-2.10000e+01	
			         1.16167	-2.00000e+01	
			         1.16333	-2.10000e+01	
			         1.16500	-2.10000e+01	
			         1.16667	-2.20000e+01	
			         1.16833	-2.30000e+01	
			         1.17000	-2.40000e+01	
			         1.17167	-2.50000e+01	
			         1.17333	-2.50000e+01	
			         1.17500	-2.50000e+01	
			         1.17667	-2.40000e+01	
			         1.17833	-2.20000e+01	
			         1.18000	-2.00000e+01	
			         1.18167	-1.70000e+01	
			         1.18333	-1.40000e+01	
			         1.18500	-1.10000e+01	
			         1.18667	-8.00000e+00	
			         1.18833	-5.00000e+00	
			         1.19000	-3.00000e+00	
			         1.19167	-1.00000e+00	
			         1.19333	0.00000e+00	
			         1.19500	1.00000e+00	
			         1.19667	1.00000e+00	
			         1.19833	1.00000e+00	
			         1.20000	1.00000e+00	
			         1.20167	1.00000e+00	
			         1.20333	1.00000e+00	
			         1.20500	0.00000e+00	
			         1.20667	0.00000e+00	
			         1.20833	-1.00000e+00	
			         1.21000	-1.00000e+00	
			         1.21167	-2.00000e+00	
			         1.21333	-2.00000e+00	
			         1.21500	-2.00000e+00	
			         1.21667	-2.00000e+00	
			         1.21833	-2.00000e+00	
			         1.22000	-2.00000e+00	
			         1.22167	-2.00000e+00	
			         1.22333	-1.00000e+00	
			         1.22500	0.00000e+00	
			         1.22667	2.00000e+00	
			         1.22833	3.00000e+00	
			         1.23000	5.00000e+00	
			         1.23167	7.00000e+00	
			         1.23333	8.00000e+00	
			         1.23500	1.00000e+01	
			         1.23667	1.10000e+01	
			         1.23833	1.20000e+01	
			         1.24000	1.20000e+01	
			         1.24167	1.30000e+01	
			         1.24333	1.30000e+01	
			         1.24500	1.30000e+01	
			         1.24667	1.30000e+01	
			         1.24833	1.40000e+01	
			         1.25000	1.50000e+01	
			         1.25167	1.60000e+01	
			         1.25333	1.80000e+01	
			         1.25500	1.90000e+01	
			         1.25667	2.20000e+01	
			         1.25833	2.40000e+01	
			         1.26000	2.70000e+01	
			         1.26167	2.90000e+01	
			         1.26333	3.10000e+01	
			         1.26500	3.20000e+01	
			         1.26667	3.30000e+01	
			         1.26833	3.30000e+01	
			         1.27000	3.30000e+01	
			         1.27167	3.30000e+01	
			         1.27333	3.30000e+01	
			         1.27500	3.20000e+01	
			         1.27667	3.10000e+01	
			         1.27833	3.10000e+01	
			         1.28000	3.10000e+01	
			         1.28167	3.10000e+01	
			         1.28333	3.30000e+01	
			         1.28500	3.50000e+01	
			         1.28667	3.80000e+01	
			         1.28833	4.10000e+01	
			         1.29000	4.50000e+01	
			         1.29167	4.80000e+01	
			         1.29333	5.20000e+01	
			         1.29500	5.60000e+01	
			         1.29667	5.90000e+01	
			         1.29833	6.20000e+01	
			         1.30000	6.40000e+01	
			         1.30167	6.60000e+01	
			         1.30333	6.80000e+01	
			         1.30500	6.90000e+01	
			         1.30667	6.90000e+01	
			         1.30833	7.00000e+01	
			         1.31000	7.00000e+01	
			         1.31167	7.00000e+01	
			         1.31333	7.00000e+01	
			         1.31500	7.00000e+01	
			         1.31667	6.90000e+01	
			         1.31833	6.80000e+01	
			         1.32000	6.80000e+01	
			         1.32167	6.70000e+01	
			         1.32333	6.60000e+01	
			         1.32500	6.50000e+01	
			         1.32667	6.40000e+01	
			         1.32833	6.40000e+01	
			         1.33000	6.30000e+01	
			         1.33167	6.30000e+01	
			         1.33333	6.20000e+01	
			         1.33500	6.20000e+01	
			         1.33667	6.20000e+01	
			         1.33833	6.30000e+01	
			         1.34000	6.30000e+01	
			         1.34167	6.30000e+01	
			         1.34333	6.20000e+01	
			         1.34500	6.10000e+01	
			         1.34667	5.90000e+01	
			         1.34833	5.60000e+01	
			         1.35000	5.30000e+01	
			         1.35167	5.00000e+01	
			         1.35333	4.60000e+01	
			         1.35500	4.10000e+01	
			         1.35667	3.70000e+01	
			         1.35833	3.20000e+01	
			         1.36000	2.70000e+01	
			         1.36167	2.10000e+01	
			         1.36333	1.60000e+01	
			         1.36500	1.20000e+01	
			         1.36667	7.00000e+00	
			         1.36833	3.00000e+00	
			         1.37000	0.00000e+00	
			         1.37167	-4.00000e+00	
			         1.37333	-7.00000e+00	
			         1.37500	-9.00000e+00	
			         1.37667	-1.20000e+01	
			         1.37833	-1.40000e+01	
			         1.38000	-1.60000e+01	
			         1.38167	-1.70000e+01	
			         1.38333	-1.80000e+01	
			         1.38500	-2.00000e+01	
			         1.38667	-2.20000e+01	
			         1.38833	-2.40000e+01	
			         1.39000	-2.60000e+01	
			         1.39167	-2.80000e+01	
			         1.39333	-3.10000e+01	
			         1.39500	-3.40000e+01	
			         1.39667	-3.70000e+01	
			         1.39833	-4.00000e+01	
			         1.40000	-4.40000e+01	
			         1.40167	-4.80000e+01	
			         1.40333	-5.20000e+01	
			         1.40500	-5.70000e+01	
			         1.40667	-6.20000e+01	
			         1.40833	-6.60000e+01	
			         1.41000	-7.00000e+01	
			         1.41167	-7.40000e+01	
			         1.41333	-7.80000e+01	
			         1.41500	-8.00000e+01	
			         1.41667	-8.30000e+01	
			         1.41833	-8.40000e+01	
			         1.42000	-8.50000e+01	
			         1.42167	-8.50000e+01	
			         1.42333	-8.40000e+01	
			         1.42500	-8.30000e+01	
			         1.42667	-8.10000e+01	
			         1.42833	-7.90000e+01	
			         1.43000	-7.60000e+01	
			         1.43167	-7.50000e+01	
			         1.43333	-7.30000e+01	
			         1.43500	-7.20000e+01	
			         1.43667	-7.00000e+01	
			         1.43833	-6.90000e+01	
			         1.44000	-6.70000e+01	
			         1.44167	-6.50000e+01	
			         1.44333	-6.40000e+01	
			         1.44500	-6.20000e+01	
			         1.44667	-6.00000e+01	
			         1.44833	-5.80000e+01	
			         1.45000	-5.60000e+01	
			         1.45167	-5.30000e+01	
			         1.45333	-5.00000e+01	
			         1.45500	-4.80000e+01	
			         1.45667	-4.50000e+01	
			         1.45833	-4.20000e+01	
			         1.46000	-4.00000e+01	
			         1.46167	-3.80000e+01	
			         1.46333	-3.60000e+01	
			         1.46500	-3.50000e+01	
			         1.46667	-3.40000e+01	
			         1.46833	-3.30000e+01	
			         1.47000	-3.30000e+01	
			         1.47167	-3.40000e+01	
			         1.47333	-3.40000e+01	
			         1.47500	-3.50000e+01	
			         1.47667	-3.60000e+01	
			         1.47833	-3.60000e+01	
			         1.48000	-3.60000e+01	
			         1.48167	-3.60000e+01	
			         1.48333	-3.70000e+01	
			         1.48500	-3.80000e+01	
			         1.48667	-3.90000e+01	
			         1.48833	-3.90000e+01	
			         1.49000	-3.90000e+01	
			         1.49167	-3.90000e+01	
			         1.49333	-3.90000e+01	
			         1.49500	-3.80000e+01	
			         1.49667	-3.80000e+01	
			         1.49833	-3.80000e+01	
			         1.50000	-3.70000e+01	
			         1.50167	-3.70000e+01	
			         1.50333	-3.60000e+01	
			         1.50500	-3.50000e+01	
			         1.50667	-3.40000e+01	
			         1.50833	-3.20000e+01	
			         1.51000	-3.00000e+01	
			         1.51167	-2.80000e+01	
			         1.51333	-2.60000e+01	
			         1.51500	-2.40000e+01	
			         1.51667	-2.10000e+01	
			         1.51833	-1.90000e+01	
			         1.52000	-1.70000e+01	
			         1.52167	-1.50000e+01	
			         1.52333	-1.40000e+01	
			         1.52500	-1.30000e+01	
			         1.52667	-1.20000e+01	
			         1.52833	-1.10000e+01	
			         1.53000	-1.00000e+01	
			         1.53167	-1.00000e+01	
			         1.53333	-9.00000e+00	
			         1.53500	-9.00000e+00	
			         1.53667	-9.00000e+00	
			         1.53833	-8.00000e+00	
			         1.54000	-7.00000e+00	
			         1.54167	-5.00000e+00	
			         1.54333	-4.00000e+00	
			         1.54500	-3.00000e+00	
			         1.54667	-2.00000e+00	
			         1.54833	-1.00000e+00	
			         1.55000	-1.00000e+00	
			         1.55167	-1.00000e+00	
			         1.55333	-2.00000e+00	
			         1.55500	-2.00000e+00	
			         1.55667	-4.00000e+00	
			         1.55833	-5.00000e+00	
			         1.56000	-8.00000e+00	
			         1.56167	-1.00000e+01	
			         1.56333	-1.20000e+01	
			         1.56500	-1.40000e+01	
			         1.56667	-1.60000e+01	
			         1.56833	-1.80000e+01	
			         1.57000	-1.90000e+01	
			         1.57167	-1.90000e+01	
			         1.57333	-1.90000e+01	
			         1.57500	-1.90000e+01	
			         1.57667	-1.80000e+01	
			         1.57833	-1.70000e+01	
			         1.58000	-1.70000e+01	
			         1.58167	-1.50000e+01	
			         1.58333	-1.40000e+01	
			         1.58500	-1.30000e+01	
			         1.58667	-1.20000e+01	
			         1.58833	-1.10000e+01	
			         1.59000	-1.10000e+01	
			         1.59167	-1.00000e+01	
			         1.59333	-1.00000e+01	
			         1.59500	-1.10000e+01	
			         1.59667	-1.20000e+01	
			         1.59833	-1.30000e+01	
			         1.60000	-1.40000e+01	
			         1.60167	-1.50000e+01	
			         1.60333	-1.50000e+01	
			         1.60500	-1.50000e+01	
			         1.60667	-1.50000e+01	
			         1.60833	-1.40000e+01	
			         1.61000	-1.30000e+01	
			         1.61167	-1.20000e+01	
			         1.61333	-1.10000e+01	
			         1.61500	-1.00000e+01	
			         1.61667	-9.00000e+00	
			         1.61833	-7.00000e+00	
			         1.62000	-6.00000e+00	
			         1.62167	-4.00000e+00	
			         1.62333	-3.00000e+00	
			         1.62500	-3.00000e+00	
			         1.62667	-2.00000e+00	
			         1.62833	-2.00000e+00	
			         1.63000	-3.00000e+00	
			         1.63167	-3.00000e+00	
			         1.63333	-4.00000e+00	
			         1.63500	-5.00000e+00	
			         1.63667	-6.00000e+00	
			         1.63833	-7.00000e+00	
			         1.64000	-8.00000e+00	
			         1.64167	-9.00000e+00	
			         1.64333	-1.10000e+01	
			         1.64500	-1.30000e+01	
			         1.64667	-1.40000e+01	
			         1.64833	-1.60000e+01	
			         1.65000	-1.70000e+01	
			         1.65167	-1.70000e+01	
			         1.65333	-1.70000e+01	
			         1.65500	-1.80000e+01	
			         1.65667	-1.80000e+01	
			         1.65833	-1.80000e+01	
			         1.66000	-1.70000e+01	
			         1.66167	-1.70000e+01	
			         1.66333	-1.60000e+01	
			         1.66500	-1.50000e+01	
			         1.66667	-1.50000e+01	
			         1.66833	-1.40000e+01	
			         1.67000	-1.40000e+01	
			         1.67167	-1.40000e+01	
			         1.67333	-1.50000e+01	
			         1.67500	-1.50000e+01	
			         1.67667	-1.40000e+01	
			         1.67833	-1.40000e+01	
			         1.68000	-1.40000e+01	
			         1.68167	-1.30000e+01	
			         1.68333	-1.30000e+01	
			         1.68500	-1.20000e+01	
			         1.68667	-1.10000e+01	
			         1.68833	-1.00000e+01	
			         1.69000	-1.00000e+01	
			         1.69167	-9.00000e+00	
			         1.69333	-9.00000e+00	
			         1.69500	-8.00000e+00	
			         1.69667	-7.00000e+00	
			         1.69833	-7.00000e+00	
			         1.70000	-7.00000e+00	
			         1.70167	-6.00000e+00	
			         1.70333	-7.00000e+00	
			         1.70500	-7.00000e+00	
			         1.70667	-8.00000e+00	
			         1.70833	-9.00000e+00	
			         1.71000	-1.00000e+01	
			         1.71167	-1.00000e+01	
			         1.71333	-1.10000e+01	
			         1.71500	-1.20000e+01	
			         1.71667	-1.30000e+01	
			         1.71833	-1.30000e+01	
			         1.72000	-1.40000e+01	
			         1.72167	-1.30000e+01	
			         1.72333	-1.20000e+01	
			         1.72500	-1.10000e+01	
			         1.72667	-1.00000e+01	
			         1.72833	-9.00000e+00	
			         1.73000	-8.00000e+00	
			         1.73167	-7.00000e+00	
			         1.73333	-6.00000e+00	
			         1.73500	-6.00000e+00	
			         1.73667	-6.00000e+00	
			         1.73833	-7.00000e+00	
			         1.74000	-1.00000e+01	
			         1.74167	-1.20000e+01	
			         1.74333	-1.50000e+01	
			         1.74500	-1.70000e+01	
			         1.74667	-1.90000e+01	
			         1.74833	-2.00000e+01	
			         1.75000	-2.10000e+01	
			         1.75167	-2.10000e+01	
			         1.75333	-2.10000e+01	
			         1.75500	-2.10000e+01	
			         1.75667	-1.90000e+01	
			         1.75833	-1.70000e+01	
			         1.76000	-1.50000e+01	
			         1.76167	-1.30000e+01	
			         1.76333	-1.10000e+01	
			         1.76500	-9.00000e+00	
			         1.76667	-8.00000e+00	
			         1.76833	-7.00000e+00	
			         1.77000	-6.00000e+00	
			         1.77167	-6.00000e+00	
			         1.77333	-6.00000e+00	
			         1.77500	-5.00000e+00	
			         1.77667	-5.00000e+00	
			         1.77833	-5.00000e+00	
			         1.78000	-6.00000e+00	
			         1.78167	-6.00000e+00	
			         1.78333	-6.00000e+00	
			         1.78500	-6.00000e+00	
			         1.78667	-6.00000e+00	
			         1.78833	-6.00000e+00	
			         1.79000	-5.00000e+00	
			         1.79167	-5.00000e+00	
			         1.79333	-6.00000e+00	
			         1.79500	-6.00000e+00	
			         1.79667	-6.00000e+00	
			         1.79833	-6.00000e+00	
			         1.80000	-5.00000e+00	
			         1.80167	-4.00000e+00	
			         1.80333	-3.00000e+00	
			         1.80500	-2.00000e+00	
			         1.80667	-2.00000e+00	
			         1.80833	-2.00000e+00	
			         1.81000	-3.00000e+00	
			         1.81167	-4.00000e+00	
			         1.81333	-6.00000e+00	
			         1.81500	-7.00000e+00	
			         1.81667	-9.00000e+00	
			         1.81833	-1.10000e+01	
			         1.82000	-1.30000e+01	
			         1.82167	-1.50000e+01	
			         1.82333	-1.60000e+01	
			         1.82500	-1.80000e+01	
			         1.82667	-1.90000e+01	
			         1.82833	-2.00000e+01	
			         1.83000	-2.00000e+01	
			         1.83167	-1.90000e+01	
			         1.83333	-1.80000e+01	
			         1.83500	-1.70000e+01	
			         1.83667	-1.50000e+01	
			         1.83833	-1.30000e+01	
			         1.84000	-1.10000e+01	
			         1.84167	-1.00000e+01	
			         1.84333	-9.00000e+00	
			         1.84500	-7.00000e+00	
			         1.84667	-7.00000e+00	
			         1.84833	-6.00000e+00	
			         1.85000	-5.00000e+00	
			         1.85167	-4.00000e+00	
			         1.85333	-4.00000e+00	
			         1.85500	-4.00000e+00	
			         1.85667	-5.00000e+00	
			         1.85833	-5.00000e+00	
			         1.86000	-6.00000e+00	
			         1.86167	-6.00000e+00	
			         1.86333	-6.00000e+00	
			         1.86500	-5.00000e+00	
			         1.86667	-4.00000e+00	
			         1.86833	-3.00000e+00	
			         1.87000	-2.00000e+00	
			         1.87167	0.00000e+00	
			         1.87333	1.00000e+00	
			         1.87500	2.00000e+00	
			         1.87667	3.00000e+00	
			         1.87833	3.00000e+00	
			         1.88000	2.00000e+00	
			         1.88167	2.00000e+00	
			         1.88333	1.00000e+00	
			         1.88500	1.00000e+00	
			         1.88667	0.00000e+00	
			         1.88833	-1.00000e+00	
			         1.89000	-3.00000e+00	
			         1.89167	-4.00000e+00	
			         1.89333	-5.00000e+00	
			         1.89500	-6.00000e+00	
			         1.89667	-7.00000e+00	
			         1.89833	-7.00000e+00	
			         1.90000	-7.00000e+00	
			         1.90167	-7.00000e+00	
			         1.90333	-7.00000e+00	
			         1.90500	-7.00000e+00	
			         1.90667	-6.00000e+00	
			         1.90833	-5.00000e+00	
			         1.91000	-4.00000e+00	
			         1.91167	-2.00000e+00	
			         1.91333	-1.00000e+00	
			         1.91500	0.00000e+00	
			         1.91667	1.00000e+00	
			         1.91833	1.00000e+00	
			         1.92000	2.00000e+00	
			         1.92167	3.00000e+00	
			         1.92333	4.00000e+00	
			         1.92500	5.00000e+00	
			         1.92667	5.00000e+00	
			         1.92833	5.00000e+00	
			         1.93000	5.00000e+00	
			         1.93167	4.00000e+00	
			         1.93333	4.00000e+00	
			         1.93500	5.00000e+00	
			         1.93667	6.00000e+00	
			         1.93833	7.00000e+00	
			         1.94000	8.00000e+00	
			         1.94167	9.00000e+00	
			         1.94333	9.00000e+00	
			         1.94500	9.00000e+00	
			         1.94667	9.00000e+00	
			         1.94833	9.00000e+00	
			         1.95000	8.00000e+00	
			         1.95167	8.00000e+00	
			         1.95333	6.00000e+00	
			         1.95500	5.00000e+00	
			         1.95667	3.00000e+00	
			         1.95833	1.00000e+00	
			         1.96000	-1.00000e+00	
			         1.96167	-3.00000e+00	
			         1.96333	-5.00000e+00	
			         1.96500	-6.00000e+00	
			         1.96667	-6.00000e+00	
			         1.96833	-7.00000e+00	
			         1.97000	-7.00000e+00	
			         1.97167	-7.00000e+00	
			         1.97333	-7.00000e+00	
			         1.97500	-7.00000e+00	
			         1.97667	-7.00000e+00	
			         1.97833	-6.00000e+00	
			         1.98000	-6.00000e+00	
			         1.98167	-6.00000e+00	
			         1.98333	-7.00000e+00	
			         1.98500	-8.00000e+00	
			         1.98667	-9.00000e+00	
			         1.98833	-1.00000e+01	
			         1.99000	-1.20000e+01	
			         1.99167	-1.30000e+01	
			         1.99333	-1.40000e+01	
			         1.99500	-1.40000e+01	
			         1.99667	-1.50000e+01	
			         1.99833	-1.50000e+01	
			         2.00000	-1.50000e+01	
			         2.00167	-1.50000e+01	
			         2.00333	-1.50000e+01	
			         2.00500	-1.40000e+01	
			         2.00667	-1.30000e+01	
			         2.00833	-1.20000e+01	
			         2.01000	-1.10000e+01	
			         2.01167	-1.00000e+01	
			         2.01333	-1.00000e+01	
			         2.01500	-9.00000e+00	
			         2.01667	-9.00000e+00	
			         2.01833	-9.00000e+00	
			         2.02000	-9.00000e+00	
			         2.02167	-9.00000e+00	
			         2.02333	-9.00000e+00	
			         2.02500	-9.00000e+00	
			         2.02667	-1.00000e+01	
			         2.02833	-1.10000e+01	
			         2.03000	-1.30000e+01	
			         2.03167	-1.50000e+01	
			         2.03333	-1.60000e+01	
			         2.03500	-1.70000e+01	
			         2.03667	-1.70000e+01	
			         2.03833	-1.70000e+01	
			         2.04000	-1.50000e+01	
			         2.04167	-1.30000e+01	
			         2.04333	-9.00000e+00	
			         2.04500	-4.00000e+00	
			         2.04667	3.00000e+00	
			         2.04833	1.30000e+01	
			         2.05000	2.50000e+01	
			         2.05167	3.90000e+01	
			         2.05333	5.50000e+01	
			         2.05500	7.30000e+01	
			         2.05667	9.30000e+01	
			         2.05833	1.13000e+02	
			         2.06000	1.34000e+02	
			         2.06167	1.54000e+02	
			         2.06333	1.73000e+02	
			         2.06500	1.89000e+02	
			         2.06667	2.01000e+02	
			         2.06833	2.09000e+02	
			         2.07000	2.11000e+02	
			         2.07167	2.08000e+02	
			         2.07333	1.99000e+02	
			         2.07500	1.85000e+02	
			         2.07667	1.66000e+02	
			         2.07833	1.44000e+02	
			         2.08000	1.19000e+02	
			         2.08167	9.20000e+01	
			         2.08333	6.40000e+01	
			         2.08500	3.70000e+01	
			         2.08667	1.10000e+01	
			         2.08833	-1.30000e+01	
			         2.09000	-3.30000e+01	
			         2.09167	-5.00000e+01	
			         2.09333	-6.30000e+01	
			         2.09500	-7.30000e+01	
			         2.09667	-8.10000e+01	
			         2.09833	-8.70000e+01	
			         2.10000	-9.00000e+01	
			         2.10167	-9.20000e+01	
			         2.10333	-9.20000e+01	
			         2.10500	-9.10000e+01	
			         2.10667	-8.90000e+01	
			         2.10833	-8.70000e+01	
			         2.11000	-8.40000e+01	
			         2.11167	-8.20000e+01	
			         2.11333	-7.90000e+01	
			         2.11500	-7.70000e+01	
			         2.11667	-7.40000e+01	
			         2.11833	-7.20000e+01	
			         2.12000	-7.10000e+01	
			         2.12167	-6.90000e+01	
			         2.12333	-6.80000e+01	
			         2.12500	-6.80000e+01	
			         2.12667	-6.70000e+01	
			         2.12833	-6.60000e+01	
			         2.13000	-6.50000e+01	
			         2.13167	-6.40000e+01	
			         2.13333	-6.30000e+01	
			         2.13500	-6.20000e+01	
			         2.13667	-6.10000e+01	
			         2.13833	-6.00000e+01	
			         2.14000	-6.00000e+01	
			         2.14167	-5.90000e+01	
			         2.14333	-5.90000e+01	
			         2.14500	-5.80000e+01	
			         2.14667	-5.90000e+01	
			         2.14833	-5.90000e+01	
			         2.15000	-5.80000e+01	
			         2.15167	-5.80000e+01	
			         2.15333	-5.70000e+01	
			         2.15500	-5.60000e+01	
			         2.15667	-5.40000e+01	
			         2.15833	-5.30000e+01	
			         2.16000	-5.10000e+01	
			         2.16167	-4.90000e+01	
			         2.16333	-4.70000e+01	
			         2.16500	-4.50000e+01	
			         2.16667	-4.30000e+01	
			         2.16833	-4.10000e+01	
			         2.17000	-3.90000e+01	
			         2.17167	-3.80000e+01	
			         2.17333	-3.70000e+01	
			         2.17500	-3.70000e+01	
			         2.17667	-3.60000e+01	
			         2.17833	-3.50000e+01	
			         2.18000	-3.40000e+01	
			         2.18167	-3.30000e+01	
			         2.18333	-3.20000e+01	
			         2.18500	-3.10000e+01	
			         2.18667	-3.00000e+01	
			         2.18833	-3.00000e+01	
			         2.19000	-2.90000e+01	
			         2.19167	-2.80000e+01	
			         2.19333	-2.80000e+01	
			         2.19500	-2.80000e+01	
			         2.19667	-2.70000e+01	
			         2.19833	-2.70000e+01	
			         2.20000	-2.80000e+01	
			         2.20167	-2.80000e+01	
			         2.20333	-2.90000e+01	
			         2.20500	-2.90000e+01	
			         2.20667	-3.00000e+01	
			         2.20833	-3.00000e+01	
			         2.21000	-2.90000e+01	
			         2.21167	-2.80000e+01	
			         2.21333	-2.70000e+01	
			         2.21500	-2.60000e+01	
			         2.21667	-2.50000e+01	
			         2.21833	-2.40000e+01	
			         2.22000	-2.30000e+01	
			         2.22167	-2.20000e+01	
			         2.22333	-2.10000e+01	
			         2.22500	-2.00000e+01	
			         2.22667	-2.00000e+01	
			         2.22833	-2.00000e+01	
			         2.23000	-2.00000e+01	
			         2.23167	-2.00000e+01	
			         2.23333	-2.00000e+01	
			         2.23500	-1.90000e+01	
			         2.23667	-1.90000e+01	
			         2.23833	-1.80000e+01	
			         2.24000	-1.60000e+01	
			         2.24167	-1.50000e+01	
			         2.24333	-1.30000e+01	
			         2.24500	-1.10000e+01	
			         2.24667	-1.00000e+01	
			         2.24833	-8.00000e+00	
			         2.25000	-7.00000e+00	
			         2.25167	-6.00000e+00	
			         2.25333	-5.00000e+00	
			         2.25500	-5.00000e+00	
			         2.25667	-4.00000e+00	
			         2.25833	-4.00000e+00	
			         2.26000	-4.00000e+00	
			         2.26167	-3.00000e+00	
			         2.26333	-3.00000e+00	
			         2.26500	-2.00000e+00	
			         2.26667	-1.00000e+00	
			         2.26833	0.00000e+00	
			         2.27000	1.00000e+00	
			         2.27167	2.00000e+00	
			         2.27333	3.00000e+00	
			         2.27500	3.00000e+00	
			         2.27667	4.00000e+00	
			         2.27833	4.00000e+00	
			         2.28000	5.00000e+00	
			         2.28167	5.00000e+00	
			         2.28333	5.00000e+00	
			         2.28500	6.00000e+00	
			         2.28667	6.00000e+00	
			         2.28833	7.00000e+00	
			         2.29000	8.00000e+00	
			         2.29167	1.00000e+01	
			         2.29333	1.10000e+01	
			         2.29500	1.30000e+01	
			         2.29667	1.40000e+01	
			         2.29833	1.60000e+01	
			         2.30000	1.70000e+01	
			         2.30167	1.90000e+01	
			         2.30333	2.00000e+01	
			         2.30500	2.10000e+01	
			         2.30667	2.20000e+01	
			         2.30833	2.30000e+01	
			         2.31000	2.50000e+01	
			         2.31167	2.60000e+01	
			         2.31333	2.80000e+01	
			         2.31500	3.00000e+01	
			         2.31667	3.20000e+01	
			         2.31833	3.50000e+01	
			         2.32000	3.70000e+01	
			         2.32167	4.00000e+01	
			         2.32333	4.30000e+01	
			         2.32500	4.50000e+01	
			         2.32667	4.80000e+01	
			         2.32833	5.00000e+01	
			         2.33000	5.10000e+01	
			         2.33167	5.30000e+01	
			         2.33333	5.40000e+01	
			         2.33500	5.50000e+01	
			         2.33667	5.60000e+01	
			         2.33833	5.70000e+01	
			         2.34000	5.80000e+01	
			         2.34167	5.80000e+01	
			         2.34333	5.70000e+01	
			         2.34500	5.70000e+01	
			         2.34667	5.60000e+01	
			         2.34833	5.70000e+01	
			         2.35000	5.70000e+01	
			         2.35167	5.80000e+01	
			         2.35333	5.80000e+01	
			         2.35500	5.70000e+01	
			         2.35667	5.70000e+01	
			         2.35833	5.50000e+01	
			         2.36000	5.40000e+01	
			         2.36167	5.30000e+01	
			         2.36333	5.20000e+01	
			         2.36500	5.20000e+01	
			         2.36667	5.10000e+01	
			         2.36833	5.00000e+01	
			         2.37000	4.80000e+01	
			         2.37167	4.70000e+01	
			         2.37333	4.50000e+01	
			         2.37500	4.30000e+01	
			         2.37667	4.10000e+01	
			         2.37833	4.00000e+01	
			         2.38000	3.90000e+01	
			         2.38167	3.80000e+01	
			         2.38333	3.60000e+01	
			         2.38500	3.30000e+01	
			         2.38667	3.00000e+01	
			         2.38833	2.70000e+01	
			         2.39000	2.30000e+01	
			         2.39167	1.90000e+01	
			         2.39333	1.40000e+01	
			         2.39500	9.00000e+00	
			         2.39667	3.00000e+00	
			         2.39833	-2.00000e+00	
			         2.40000	-7.00000e+00	
			         2.40167	-1.30000e+01	
			         2.40333	-1.80000e+01	
			         2.40500	-2.30000e+01	
			         2.40667	-2.70000e+01	
			         2.40833	-3.20000e+01	
			         2.41000	-3.70000e+01	
			         2.41167	-4.10000e+01	
			         2.41333	-4.50000e+01	
			         2.41500	-4.90000e+01	
			         2.41667	-5.30000e+01	
			         2.41833	-5.70000e+01	
			         2.42000	-6.00000e+01	
			         2.42167	-6.40000e+01	
			         2.42333	-6.70000e+01	
			         2.42500	-7.10000e+01	
			         2.42667	-7.40000e+01	
			         2.42833	-7.60000e+01	
			         2.43000	-7.80000e+01	
			         2.43167	-7.90000e+01	
			         2.43333	-8.00000e+01	
			         2.43500	-8.10000e+01	
			         2.43667	-8.20000e+01	
			         2.43833	-8.30000e+01	
			         2.44000	-8.40000e+01	
			         2.44167	-8.40000e+01	
			         2.44333	-8.40000e+01	
			         2.44500	-8.40000e+01	
			         2.44667	-8.30000e+01	
			         2.44833	-8.30000e+01	
			         2.45000	-8.20000e+01	
			         2.45167	-8.10000e+01	
			         2.45333	-8.00000e+01	
			         2.45500	-7.80000e+01	
			         2.45667	-7.70000e+01	
			         2.45833	-7.50000e+01	
			         2.46000	-7.40000e+01	
			         2.46167	-7.30000e+01	
			         2.46333	-7.10000e+01	
			         2.46500	-7.00000e+01	
			         2.46667	-6.90000e+01	
			         2.46833	-6.80000e+01	
			         2.47000	-6.70000e+01	
			         2.47167	-6.60000e+01	
			         2.47333	-6.60000e+01	
			         2.47500	-6.50000e+01	
			         2.47667	-6.40000e+01	
			         2.47833	-6.40000e+01	
			         2.48000	-6.30000e+01	
			         2.48167	-6.20000e+01	
			         2.48333	-6.20000e+01	
			         2.48500	-6.10000e+01	
			         2.48667	-6.10000e+01	
			         2.48833	-6.10000e+01	
			         2.49000	-6.10000e+01	
			         2.49167	-6.10000e+01	
			         2.49333	-6.10000e+01	
			         2.49500	-6.00000e+01	
			         2.49667	-5.90000e+01	
			         2.49833	-5.90000e+01	
			         2.50000	-5.80000e+01	
			         2.50167	-5.80000e+01	
			         2.50333	-5.70000e+01	
			         2.50500	-5.70000e+01	
			         2.50667	-5.60000e+01	
			         2.50833	-5.50000e+01	
			         2.51000	-5.50000e+01	
			         2.51167	-5.40000e+01	
			         2.51333	-5.20000e+01	
			         2.51500	-5.10000e+01	
			         2.51667	-5.00000e+01	
			         2.51833	-4.90000e+01	
			         2.52000	-4.70000e+01	
			         2.52167	-4.60000e+01	
			         2.52333	-4.40000e+01	
			         2.52500	-4.20000e+01	
			         2.52667	-4.00000e+01	
			         2.52833	-3.90000e+01	
			         2.53000	-3.70000e+01	
			         2.53167	-3.60000e+01	
			         2.53333	-3.50000e+01	
			         2.53500	-3.30000e+01	
			         2.53667	-3.20000e+01	
			         2.53833	-3.00000e+01	
			         2.54000	-2.80000e+01	
			         2.54167	-2.60000e+01	
			         2.54333	-2.40000e+01	
			         2.54500	-2.20000e+01	
			         2.54667	-2.00000e+01	
			         2.54833	-1.90000e+01	
			         2.55000	-1.80000e+01	
			         2.55167	-1.80000e+01	
			         2.55333	-1.70000e+01	
			         2.55500	-1.80000e+01	
			         2.55667	-1.90000e+01	
			         2.55833	-2.00000e+01	
			         2.56000	-2.20000e+01	
			         2.56167	-2.40000e+01	
			         2.56333	-2.60000e+01	
			         2.56500	-2.80000e+01	
			         2.56667	-3.00000e+01	
			         2.56833	-3.10000e+01	
			         2.57000	-3.10000e+01	
			         2.57167	-3.10000e+01	
			         2.57333	-3.00000e+01	
			         2.57500	-2.80000e+01	
			         2.57667	-2.60000e+01	
			         2.57833	-2.40000e+01	
			         2.58000	-2.20000e+01	
			         2.58167	-2.00000e+01	
			         2.58333	-1.80000e+01	
			         2.58500	-1.60000e+01	
			         2.58667	-1.40000e+01	
			         2.58833	-1.20000e+01	
			         2.59000	-1.10000e+01	
			         2.59167	-1.00000e+01	
			         2.59333	-9.00000e+00	
			         2.59500	-9.00000e+00	
			         2.59667	-1.00000e+01	
			         2.59833	-1.20000e+01	
			         2.60000	-1.30000e+01	
			         2.60167	-1.50000e+01	
			         2.60333	-1.60000e+01	
			         2.60500	-1.80000e+01	
			         2.60667	-1.90000e+01	
			         2.60833	-2.10000e+01	
			         2.61000	-2.20000e+01	
			         2.61167	-2.20000e+01	
			         2.61333	-2.30000e+01	
			         2.61500	-2.20000e+01	
			         2.61667	-2.20000e+01	
			         2.61833	-2.00000e+01	
			         2.62000	-1.90000e+01	
			         2.62167	-1.70000e+01	
			         2.62333	-1.60000e+01	
			         2.62500	-1.50000e+01	
			         2.62667	-1.30000e+01	
			         2.62833	-1.30000e+01	
			         2.63000	-1.20000e+01	
			         2.63167	-1.10000e+01	
			         2.63333	-1.10000e+01	
			         2.63500	-1.20000e+01	
			         2.63667	-1.20000e+01	
			         2.63833	-1.30000e+01	
			         2.64000	-1.40000e+01	
			         2.64167	-1.50000e+01	
			         2.64333	-1.60000e+01	
			         2.64500	-1.80000e+01	
			         2.64667	-1.90000e+01	
			         2.64833	-2.00000e+01	
			         2.65000	-2.10000e+01	
			         2.65167	-2.20000e+01	
			         2.65333	-2.30000e+01	
			         2.65500	-2.30000e+01	
			         2.65667	-2.30000e+01	
			         2.65833	-2.40000e+01	
			         2.66000	-2.40000e+01	
			         2.66167	-2.40000e+01	
			         2.66333	-2.30000e+01	
			         2.66500	-2.30000e+01	
			         2.66667	-2.30000e+01	
			         2.66833	-2.40000e+01	
			         2.67000	-2.50000e+01	
			         2.67167	-2.50000e+01	
			         2.67333	-2.60000e+01	
			         2.67500	-2.60000e+01	
			         2.67667	-2.60000e+01	
			         2.67833	-2.60000e+01	
			         2.68000	-2.50000e+01	
			         2.68167	-2.40000e+01	
			         2.68333	-2.30000e+01	
			         2.68500	-2.20000e+01	
			         2.68667	-2.00000e+01	
			         2.68833	-1.90000e+01	
			         2.69000	-1.70000e+01	
			         2.69167	-1.60000e+01	
			         2.69333	-1.60000e+01	
			         2.69500	-1.60000e+01	
			         2.69667	-1.60000e+01	
			         2.69833	-1.70000e+01	
			         2.70000	-1.80000e+01	
			         2.70167	-1.90000e+01	
			         2.70333	-2.00000e+01	
			         2.70500	-2.10000e+01	
			         2.70667	-2.20000e+01	
			         2.70833	-2.30000e+01	
			         2.71000	-2.40000e+01	
			         2.71167	-2.50000e+01	
			         2.71333	-2.50000e+01	
			         2.71500	-2.60000e+01	
			         2.71667	-2.60000e+01	
			         2.71833	-2.60000e+01	
			         2.72000	-2.50000e+01	
			         2.72167	-2.40000e+01	
			         2.72333	-2.40000e+01	
			         2.72500	-2.30000e+01	
			         2.72667	-2.20000e+01	
			         2.72833	-2.10000e+01	
			         2.73000	-2.00000e+01	
			         2.73167	-1.90000e+01	
			         2.73333	-1.80000e+01	
			         2.73500	-1.70000e+01	
			         2.73667	-1.70000e+01	
			         2.73833	-1.70000e+01	
			         2.74000	-1.70000e+01	
			         2.74167	-1.80000e+01	
			         2.74333	-1.80000e+01	
			         2.74500	-1.90000e+01	
			         2.74667	-1.90000e+01	
			         2.74833	-2.00000e+01	
			         2.75000	-2.00000e+01	
			         2.75167	-2.10000e+01	
			         2.75333	-2.10000e+01	
			         2.75500	-2.10000e+01	
			         2.75667	-2.10000e+01	
			         2.75833	-2.10000e+01	
			         2.76000	-2.10000e+01	
			         2.76167	-2.10000e+01	
			         2.76333	-2.10000e+01	
			         2.76500	-2.10000e+01	
			         2.76667	-2.10000e+01	
			         2.76833	-2.00000e+01	
			         2.77000	-1.90000e+01	
			         2.77167	-1.70000e+01	
			         2.77333	-1.50000e+01	
			         2.77500	-1.40000e+01	
			         2.77667	-1.20000e+01	
			         2.77833	-1.10000e+01	
			         2.78000	-1.00000e+01	
			         2.78167	-8.00000e+00	
			         2.78333	-7.00000e+00	
			         2.78500	-6.00000e+00	
			         2.78667	-5.00000e+00	
			         2.78833	-5.00000e+00	
			         2.79000	-5.00000e+00	
			         2.79167	-5.00000e+00	
			         2.79333	-6.00000e+00	
			         2.79500	-7.00000e+00	
			         2.79667	-7.00000e+00	
			         2.79833	-8.00000e+00	
			         2.80000	-9.00000e+00	
			         2.80167	-1.00000e+01	
			         2.80333	-1.10000e+01	
			         2.80500	-1.10000e+01	
			         2.80667	-1.20000e+01	
			         2.80833	-1.30000e+01	
			         2.81000	-1.40000e+01	
			         2.81167	-1.50000e+01	
			         2.81333	-1.50000e+01	
			         2.81500	-1.60000e+01	
			         2.81667	-1.60000e+01	
			         2.81833	-1.50000e+01	
			         2.82000	-1.50000e+01	
			         2.82167	-1.40000e+01	
			         2.82333	-1.30000e+01	
			         2.82500	-1.30000e+01	
			         2.82667	-1.20000e+01	
			         2.82833	-1.20000e+01	
			         2.83000	-1.20000e+01	
			         2.83167	-1.20000e+01	
			         2.83333	-1.20000e+01	
			         2.83500	-1.20000e+01	
			         2.83667	-1.20000e+01	
			         2.83833	-1.30000e+01	
			         2.84000	-1.30000e+01	
			         2.84167	-1.30000e+01	
			         2.84333	-1.30000e+01	
			         2.84500	-1.30000e+01	
			         2.84667	-1.20000e+01	
			         2.84833	-1.10000e+01	
			         2.85000	-1.00000e+01	
			         2.85167	-1.00000e+01	
			         2.85333	-9.00000e+00	
			         2.85500	-9.00000e+00	
			         2.85667	-9.00000e+00	
			         2.85833	-9.00000e+00	
			         2.86000	-9.00000e+00	
			         2.86167	-9.00000e+00	
			         2.86333	-9.00000e+00	
			         2.86500	-9.00000e+00	
			         2.86667	-1.00000e+01	
			         2.86833	-1.10000e+01	
			         2.87000	-1.20000e+01	
			         2.87167	-1.20000e+01	
			         2.87333	-1.30000e+01	
			         2.87500	-1.30000e+01	
			         2.87667	-1.30000e+01	
			         2.87833	-1.30000e+01	
			         2.88000	-1.30000e+01	
			         2.88167	-1.40000e+01	
			         2.88333	-1.40000e+01	
			         2.88500	-1.40000e+01	
			         2.88667	-1.40000e+01	
			         2.88833	-1.40000e+01	
			         2.89000	-1.30000e+01	
			         2.89167	-1.20000e+01	
			         2.89333	-1.00000e+01	
			         2.89500	-9.00000e+00	
			         2.89667	-7.00000e+00	
			         2.89833	-4.00000e+00	
			         2.90000	-2.00000e+00	
			         2.90167	1.00000e+00	
			         2.90333	3.00000e+00	
			         2.90500	5.00000e+00	
			         2.90667	6.00000e+00	
			         2.90833	7.00000e+00	
			         2.91000	8.00000e+00	
			         2.91167	8.00000e+00	
			         2.91333	8.00000e+00	
			         2.91500	7.00000e+00	
			         2.91667	6.00000e+00	
			         2.91833	5.00000e+00	
			         2.92000	4.00000e+00	
			         2.92167	3.00000e+00	
			         2.92333	2.00000e+00	
			         2.92500	1.00000e+00	
			         2.92667	0.00000e+00	
			         2.92833	0.00000e+00	
			         2.93000	-1.00000e+00	
			         2.93167	-1.00000e+00	
			         2.93333	-1.00000e+00	
			         2.93500	0.00000e+00	
			         2.93667	0.00000e+00	
			         2.93833	1.00000e+00	
			         2.94000	2.00000e+00	
			         2.94167	2.00000e+00	
			         2.94333	3.00000e+00	
			         2.94500	4.00000e+00	
			         2.94667	5.00000e+00	
			         2.94833	6.00000e+00	
			         2.95000	7.00000e+00	
			         2.95167	8.00000e+00	
			         2.95333	9.00000e+00	
			         2.95500	9.00000e+00	
			         2.95667	8.00000e+00	
			         2.95833	7.00000e+00	
			         2.96000	6.00000e+00	
			         2.96167	5.00000e+00	
			         2.96333	3.00000e+00	
			         2.96500	2.00000e+00	
			         2.96667	1.00000e+00	
			         2.96833	1.00000e+00	
			         2.97000	0.00000e+00	
			         2.97167	0.00000e+00	
			         2.97333	-1.00000e+00	
			         2.97500	-1.00000e+00	
			         2.97667	0.00000e+00	
			         2.97833	0.00000e+00	
			         2.98000	2.00000e+00	
			         2.98167	3.00000e+00	
			         2.98333	4.00000e+00	
			         2.98500	5.00000e+00	
			         2.98667	6.00000e+00	
			         2.98833	5.00000e+00	
			         2.99000	4.00000e+00	
			         2.99167	3.00000e+00	
			         2.99333	2.00000e+00	
			         2.99500	1.00000e+00	
			         2.99667	-1.00000e+00	
			         2.99833	-2.00000e+00	
			         3.00000	-5.00000e+00	
			         3.00167	-7.00000e+00	
			         3.00333	-9.00000e+00	
			         3.00500	-1.20000e+01	
			         3.00667	-1.30000e+01	
			         3.00833	-1.50000e+01	
			         3.01000	-1.60000e+01	
			         3.01167	-1.60000e+01	
			         3.01333	-1.60000e+01	
			         3.01500	-1.60000e+01	
			         3.01667	-1.60000e+01	
			         3.01833	-1.60000e+01	
			         3.02000	-1.50000e+01	
			         3.02167	-1.50000e+01	
			         3.02333	-1.50000e+01	
			         3.02500	-1.50000e+01	
			         3.02667	-1.50000e+01	
			         3.02833	-1.40000e+01	
			         3.03000	-1.40000e+01	
			         3.03167	-1.30000e+01	
			         3.03333	-1.20000e+01	
			         3.03500	-1.10000e+01	
			         3.03667	-1.10000e+01	
			         3.03833	-1.00000e+01	
			         3.04000	-1.00000e+01	
			         3.04167	-1.00000e+01	
			         3.04333	-9.00000e+00	
			         3.04500	-8.00000e+00	
			         3.04667	-6.00000e+00	
			         3.04833	-5.00000e+00	
			         3.05000	-5.00000e+00	
			         3.05167	-5.00000e+00	
			         3.05333	-5.00000e+00	
			         3.05500	-6.00000e+00	
			         3.05667	-7.00000e+00	
			         3.05833	-7.00000e+00	
			         3.06000	-7.00000e+00	
			         3.06167	-7.00000e+00	
			         3.06333	-5.00000e+00	
			         3.06500	-3.00000e+00	
			         3.06667	0.00000e+00	
			         3.06833	5.00000e+00	
			         3.07000	1.20000e+01	
			         3.07167	2.10000e+01	
			         3.07333	3.30000e+01	
			         3.07500	4.70000e+01	
			         3.07667	6.30000e+01	
			         3.07833	8.20000e+01	
			         3.08000	1.01000e+02	
			         3.08167	1.22000e+02	
			         3.08333	1.44000e+02	
			         3.08500	1.65000e+02	
			         3.08667	1.85000e+02	
			         3.08833	2.02000e+02	
			         3.09000	2.16000e+02	
			         3.09167	2.25000e+02	
			         3.09333	2.29000e+02	
			         3.09500	2.28000e+02	
			         3.09667	2.20000e+02	
			         3.09833	2.07000e+02	
			         3.10000	1.89000e+02	
			         3.10167	1.67000e+02	
			         3.10333	1.42000e+02	
			         3.10500	1.14000e+02	
			         3.10667	8.50000e+01	
			         3.10833	5.50000e+01	
			         3.11000	2.70000e+01	
			         3.11167	2.00000e+00	
			         3.11333	-2.10000e+01	
			         3.11500	-4.00000e+01	
			         3.11667	-5.50000e+01	
			         3.11833	-6.60000e+01	
			         3.12000	-7.40000e+01	
			         3.12167	-7.80000e+01	
			         3.12333	-7.90000e+01	
			         3.12500	-7.90000e+01	
			         3.12667	-7.70000e+01	
			         3.12833	-7.40000e+01	
			         3.13000	-7.00000e+01	
			         3.13167	-6.50000e+01	
			         3.13333	-6.10000e+01	
			         3.13500	-5.70000e+01	
			         3.13667	-5.30000e+01	
			         3.13833	-4.90000e+01	
			         3.14000	-4.70000e+01	
			         3.14167	-4.60000e+01	
			         3.14333	-4.50000e+01	
			         3.14500	-4.40000e+01	
			         3.14667	-4.30000e+01	
			         3.14833	-4.30000e+01	
			         3.15000	-4.30000e+01	
			         3.15167	-4.40000e+01	
			         3.15333	-4.40000e+01	
			         3.15500	-4.40000e+01	
			         3.15667	-4.30000e+01	
			         3.15833	-4.30000e+01	
			         3.16000	-4.20000e+01	
			         3.16167	-4.10000e+01	
			         3.16333	-4.00000e+01	
