Velocity (TVI), in cm/s

Time (s) :	Trace 1 : 		Ecg : 		
0.00906   	-4.94578e-01		         0.00000	1.38000e+02	
0.01790   	4.59376e-01		         0.00167	1.74000e+02	
0.02675   	2.36848e+00		         0.00333	2.11000e+02	
0.03561   	2.33526e+00		         0.00500	2.48000e+02	
0.04447   	1.52736e+00		         0.00667	2.83000e+02	
0.05331   	1.32105e-01		         0.00833	3.16000e+02	
0.06216   	1.48004e-01		         0.01000	3.46000e+02	
0.07102   	6.91003e-01		         0.01167	3.71000e+02	
0.07989   	1.77714e+00		         0.01333	3.91000e+02	
0.08872   	3.03066e+00		         0.01500	4.05000e+02	
0.09757   	4.40525e+00		         0.01667	4.12000e+02	
0.10643   	5.09034e+00		         0.01833	4.14000e+02	
0.11529   	5.61376e+00		         0.02000	4.09000e+02	
0.12413   	5.61155e+00		         0.02167	3.98000e+02	
0.13298   	5.60071e+00		         0.02333	3.80000e+02	
0.14183   	5.37895e+00		         0.02500	3.57000e+02	
0.15070   	5.18386e+00		         0.02667	3.30000e+02	
0.15954   	5.16757e+00		         0.02833	2.99000e+02	
0.16839   	5.24004e+00		         0.03000	2.64000e+02	
0.17730   	5.34483e+00		         0.03167	2.28000e+02	
0.18611   	5.36090e+00		         0.03333	1.91000e+02	
0.19495   	5.28937e+00		         0.03500	1.53000e+02	
0.20380   	5.22003e+00		         0.03667	1.16000e+02	
0.21265   	5.07805e+00		         0.03833	8.00000e+01	
0.22152   	4.88969e+00		         0.04000	4.60000e+01	
0.23035   	4.61474e+00		         0.04167	1.40000e+01	
0.23921   	4.46989e+00		         0.04333	-1.50000e+01	
0.24806   	4.24671e+00		         0.04500	-4.00000e+01	
0.25694   	4.05695e+00		         0.04667	-6.20000e+01	
0.26576   	3.76491e+00		         0.04833	-8.10000e+01	
0.27462   	3.57183e+00		         0.05000	-9.60000e+01	
0.28347   	3.38021e+00		         0.05167	-1.08000e+02	
0.29233   	3.15540e+00		         0.05333	-1.17000e+02	
0.30117   	2.97525e+00		         0.05500	-1.24000e+02	
0.31041   	2.70235e+00		         0.05667	-1.29000e+02	
0.31888   	2.52888e+00		         0.05833	-1.32000e+02	
0.32774   	2.19689e+00		         0.06000	-1.33000e+02	
0.33658   	2.02213e+00		         0.06167	-1.34000e+02	
0.34543   	1.82831e+00		         0.06333	-1.34000e+02	
0.35428   	1.70261e+00		         0.06500	-1.32000e+02	
0.36316   	1.45684e+00		         0.06667	-1.31000e+02	
0.37199   	1.25572e+00		         0.06833	-1.29000e+02	
0.38085   	1.34136e+00		         0.07000	-1.26000e+02	
0.38969   	1.43343e+00		         0.07167	-1.24000e+02	
0.39856   	1.00417e+00		         0.07333	-1.21000e+02	
0.40740   	4.66996e-01		         0.07500	-1.19000e+02	
0.41625   	1.63174e-02		         0.07667	-1.16000e+02	
0.42510   	1.28729e-01		         0.07833	-1.13000e+02	
0.43398   	1.39608e-01		         0.08000	-1.10000e+02	
0.44304   	7.35061e-02		         0.08167	-1.07000e+02	
0.45166   	1.97197e-01		         0.08333	-1.05000e+02	
0.46051   	4.18080e-01		         0.08500	-1.02000e+02	
0.46940   	4.81915e-01		         0.08667	-9.90000e+01	
0.47822   	7.56330e-01		         0.08833	-9.70000e+01	
0.48707   	-1.27191e-01		         0.09000	-9.50000e+01	
0.49592   	-9.59157e-01		         0.09167	-9.20000e+01	
0.50480   	-2.54240e+00		         0.09333	-9.00000e+01	
0.51362   	-3.22097e+00		         0.09500	-8.80000e+01	
0.52248   	-3.70662e+00		         0.09667	-8.60000e+01	
0.53133   	-4.00254e+00		         0.09833	-8.40000e+01	
0.54020   	-4.32185e+00		         0.10000	-8.20000e+01	
0.54903   	-4.51634e+00		         0.10167	-8.00000e+01	
0.55789   	-4.47639e+00		         0.10333	-7.80000e+01	
0.56674   	-4.13684e+00		         0.10500	-7.70000e+01	
0.57566   	-3.73127e+00		         0.10667	-7.50000e+01	
0.58444   	-3.39943e+00		         0.10833	-7.30000e+01	
0.59329   	-2.88984e+00		         0.11000	-7.00000e+01	
0.60215   	-2.55982e+00		         0.11167	-6.80000e+01	
0.61102   	-2.05308e+00		         0.11333	-6.60000e+01	
0.61985   	-1.60654e+00		         0.11500	-6.40000e+01	
0.62870   	-1.25200e+00		         0.11667	-6.20000e+01	
0.63755   	-9.48417e-01		         0.11833	-6.00000e+01	
0.64644   	-9.46127e-01		         0.12000	-5.90000e+01	
0.65526   	-6.77199e-01		         0.12167	-5.70000e+01	
0.66411   	-6.39319e-01		         0.12333	-5.50000e+01	
0.67296   	-3.46847e-01		         0.12500	-5.40000e+01	
0.68184   	-3.13723e-01		         0.12667	-5.20000e+01	
0.69066   	-2.74785e-01		         0.12833	-5.10000e+01	
0.69952   	-4.82827e-01		         0.13000	-4.90000e+01	
0.70857   	-5.42507e-01		         0.13167	-4.80000e+01	
0.71725   	-4.55550e-01		         0.13333	-4.60000e+01	
0.72607   	-3.37196e-01		         0.13500	-4.50000e+01	
0.73493   	-3.15263e-01		         0.13667	-4.30000e+01	
0.74378   	-3.42595e-01		         0.13833	-4.20000e+01	
0.75266   	-3.80773e-01		         0.14000	-4.00000e+01	
0.76148   	-3.24683e-01		         0.14167	-3.90000e+01	
0.77034   	-5.35810e-01		         0.14333	-3.80000e+01	
0.77919   	-5.69585e-01		         0.14500	-3.70000e+01	
0.78806   	-1.04809e+00		         0.14667	-3.60000e+01	
0.79689   	-1.83224e+00		         0.14833	-3.40000e+01	
0.80574   	-3.16923e+00		         0.15000	-3.30000e+01	
0.81460   	-4.51984e+00		         0.15167	-3.20000e+01	
0.82347   	-5.60254e+00		         0.15333	-3.10000e+01	
0.83230   	-6.34144e+00		         0.15500	-3.10000e+01	
0.84154   	-6.69927e+00		         0.15667	-3.00000e+01	
0.85001   	-6.75969e+00		         0.15833	-2.90000e+01	
0.85887   	-6.43492e+00		         0.16000	-2.90000e+01	
0.86771   	-5.92622e+00		         0.16167	-2.80000e+01	
0.87656   	-5.12677e+00		         0.16333	-2.70000e+01	
0.88542   	-4.38547e+00		         0.16500	-2.70000e+01	
0.89430   	-3.56586e+00		         0.16667	-2.60000e+01	
0.90312   	-3.16679e+00		         0.16833	-2.50000e+01	
0.91197   	-2.69376e+00		         0.17000	-2.50000e+01	
0.92082   	-2.37078e+00		         0.17167	-2.40000e+01	
0.92969   	-1.53740e+00		         0.17333	-2.30000e+01	
0.93853   	-9.49345e-01		         0.17500	-2.20000e+01	
0.94738   	1.91076e-01		         0.17667	-2.10000e+01	
0.95623   	1.25683e+00		         0.17833	-1.90000e+01	
0.96511   	1.44029e+00		         0.18000	-1.80000e+01	
0.97433   	8.28092e-01		         0.18167	-1.70000e+01	
0.98279   	-9.30671e-02		         0.18333	-1.60000e+01	
0.99164   	2.60749e-01		         0.18500	-1.50000e+01	
1.00050   	9.87897e-01		         0.18667	-1.40000e+01	
1.00934   	2.20367e+00		         0.18833	-1.30000e+01	
1.01820   	3.40580e+00		         0.19000	-1.20000e+01	
1.02705   	4.58363e+00		         0.19167	-1.20000e+01	
1.03593   	5.29663e+00		         0.19333	-1.10000e+01	
1.04476   	5.63090e+00		         0.19500	-1.00000e+01	
1.05361   	5.60403e+00		         0.19667	-9.00000e+00	
1.06246   	5.50415e+00		         0.19833	-9.00000e+00	
1.07133   	5.31134e+00		         0.20000	-8.00000e+00	
1.08016   	5.12732e+00		         0.20167	-7.00000e+00	
1.08901   	4.96122e+00		         0.20333	-6.00000e+00	
1.09787   	4.85244e+00		         0.20500	-5.00000e+00	
1.10696   	4.90834e+00		         0.20667	-4.00000e+00	
1.11557   	4.92313e+00		         0.20833	-3.00000e+00	
1.12442   	4.90695e+00		         0.21000	-2.00000e+00	
1.13327   	4.83742e+00		         0.21167	-1.00000e+00	
1.14215   	4.74312e+00		         0.21333	0.00000e+00	
1.15098   	4.59836e+00		         0.21500	1.00000e+00	
1.15983   	4.40798e+00		         0.21667	1.00000e+00	
1.16868   	4.23756e+00		         0.21833	2.00000e+00	
1.17756   	4.08310e+00		         0.22000	3.00000e+00	
1.18639   	3.87273e+00		         0.22167	4.00000e+00	
1.19524   	3.65381e+00		         0.22333	4.00000e+00	
1.20409   	3.39004e+00		         0.22500	5.00000e+00	
1.21297   	3.11854e+00		         0.22667	6.00000e+00	
1.22179   	2.93595e+00		         0.22833	6.00000e+00	
1.23065   	2.68697e+00		         0.23000	7.00000e+00	
1.23987   	2.43754e+00		         0.23167	8.00000e+00	
1.24838   	2.23754e+00		         0.23333	8.00000e+00	
1.25720   	2.04367e+00		         0.23500	9.00000e+00	
1.26606   	1.86702e+00		         0.23667	9.00000e+00	
1.27491   	1.53622e+00		         0.23833	1.00000e+01	
1.28378   	1.36948e+00		         0.24000	1.00000e+01	
1.29261   	1.07788e+00		         0.24167	1.10000e+01	
1.30147   	7.95927e-01		         0.24333	1.10000e+01	
1.31032   	4.81938e-01		         0.24500	1.20000e+01	
1.31920   	2.23377e-01		         0.24667	1.30000e+01	
1.32802   	-7.26471e-01		         0.24833	1.30000e+01	
1.33687   	-1.17481e+00		         0.25000	1.40000e+01	
1.34573   	-1.29873e+00		         0.25167	1.50000e+01	
1.35459   	-7.20331e-01		         0.25333	1.60000e+01	
1.36343   	-5.27270e-01		         0.25500	1.70000e+01	
1.37228   	-2.11523e-01		         0.25667	1.80000e+01	
1.38114   	2.87278e-01		         0.25833	1.90000e+01	
1.39001   	7.68947e-01		         0.26000	2.00000e+01	
1.39884   	8.15834e-01		         0.26167	2.20000e+01	
1.40769   	3.63252e-01		         0.26333	2.30000e+01	
1.41654   	-3.30054e-01		         0.26500	2.50000e+01	
1.42541   	-1.64141e+00		         0.26667	2.70000e+01	
1.43425   	-2.83362e+00		         0.26833	2.80000e+01	
1.44310   	-3.92192e+00		         0.27000	3.00000e+01	
1.45195   	-4.21259e+00		         0.27167	3.20000e+01	
1.46082   	-4.31932e+00		         0.27333	3.30000e+01	
1.46965   	-4.36283e+00		         0.27500	3.40000e+01	
1.47851   	-4.27231e+00		         0.27667	3.60000e+01	
1.48736   	-4.05487e+00		         0.27833	3.70000e+01	
1.49624   	-3.66855e+00		         0.28000	3.80000e+01	
1.50506   	-3.48020e+00		         0.28167	4.00000e+01	
1.51392   	-3.25248e+00		         0.28333	4.10000e+01	
1.52277   	-3.14285e+00		         0.28500	4.20000e+01	
1.53165   	-2.90985e+00		         0.28667	4.30000e+01	
1.54047   	-2.62198e+00		         0.28833	4.40000e+01	
1.54933   	-2.34997e+00		         0.29000	4.50000e+01	
1.55818   	-2.06785e+00		         0.29167	4.60000e+01	
1.56705   	-1.86254e+00		         0.29333	4.70000e+01	
1.57588   	-1.57452e+00		         0.29500	4.80000e+01	
1.58473   	-1.20319e+00		         0.29667	4.80000e+01	
1.59359   	-8.64294e-01		         0.29833	4.80000e+01	
1.60246   	-5.58732e-01		         0.30000	4.90000e+01	
1.61129   	-3.48442e-01		         0.30167	4.90000e+01	
1.62014   	-2.21371e-01		         0.30333	4.90000e+01	
1.62899   	-2.35095e-01		         0.30500	4.90000e+01	
1.63786   	-3.19523e-01		         0.30667	4.90000e+01	
1.64670   	-3.92293e-01		         0.30833	4.90000e+01	
1.65555   	-3.57409e-01		         0.31000	4.80000e+01	
1.66440   	-4.14777e-01		         0.31167	4.80000e+01	
1.67328   	-4.15996e-01		         0.31333	4.80000e+01	
1.68211   	-4.61982e-01		         0.31500	4.80000e+01	
1.69096   	-5.48601e-01		         0.31667	4.80000e+01	
1.69981   	-7.07646e-01		         0.31833	4.70000e+01	
1.70869   	-8.69844e-01		         0.32000	4.70000e+01	
1.71751   	-1.24637e+00		         0.32167	4.60000e+01	
1.72637   	-2.10590e+00		         0.32333	4.40000e+01	
1.73522   	-3.40438e+00		         0.32500	4.30000e+01	
1.74410   	-4.70322e+00		         0.32667	4.10000e+01	
1.75292   	-5.76874e+00		         0.32833	3.90000e+01	
1.76178   	-6.50257e+00		         0.33000	3.60000e+01	
1.77101   	-6.93028e+00		         0.33167	3.30000e+01	
1.77951   	-7.01480e+00		         0.33333	3.00000e+01	
1.78833   	-6.71181e+00		         0.33500	2.60000e+01	
1.79719   	-6.12098e+00		         0.33667	2.20000e+01	
1.80604   	-5.27009e+00		         0.33833	1.80000e+01	
1.81491   	-4.37586e+00		         0.34000	1.40000e+01	
1.82374   	-3.53147e+00		         0.34167	1.00000e+01	
1.83259   	-3.17219e+00		         0.34333	6.00000e+00	
1.84145   	-2.92123e+00		         0.34500	2.00000e+00	
1.85033   	-2.83829e+00		         0.34667	-2.00000e+00	
1.85915   	-2.25210e+00		         0.34833	-6.00000e+00	
1.86800   	-1.08810e+00		         0.35000	-1.00000e+01	
1.87686   	5.72242e-01		         0.35167	-1.40000e+01	
1.88571   	2.02227e+00		         0.35333	-1.70000e+01	
1.89456   	1.70215e+00		         0.35500	-2.10000e+01	
1.90341   	4.48575e-01		         0.35667	-2.40000e+01	
1.91226   	-3.81902e-01		         0.35833	-2.60000e+01	
1.92113   	-2.64146e-01		         0.36000	-2.90000e+01	
1.92997   	6.97871e-01		         0.36167	-3.10000e+01	
1.93882   	1.60109e+00		         0.36333	-3.30000e+01	
1.94767   	2.98688e+00		         0.36500	-3.40000e+01	
1.95654   	4.28380e+00		         0.36667	-3.60000e+01	
1.96538   	5.02633e+00		         0.36833	-3.70000e+01	
1.97423   	5.41738e+00		         0.37000	-3.80000e+01	
1.98308   	5.37780e+00		         0.37167	-3.90000e+01	
1.99195   	5.39078e+00		         0.37333	-4.00000e+01	
2.00078   	5.28716e+00		         0.37500	-4.10000e+01	
2.00964   	5.31693e+00		         0.37667	-4.20000e+01	
2.01849   	5.36817e+00		         0.37833	-4.20000e+01	
2.02736   	5.33448e+00		         0.38000	-4.30000e+01	
2.03619   	5.29954e+00		         0.38167	-4.40000e+01	
2.04505   	5.26053e+00		         0.38333	-4.40000e+01	
2.05390   	5.38255e+00		         0.38500	-4.50000e+01	
2.06277   	5.34851e+00		         0.38667	-4.50000e+01	
2.07160   	5.19028e+00		         0.38833	-4.50000e+01	
2.08046   	4.95569e+00		         0.39000	-4.50000e+01	
2.08931   	4.70661e+00		         0.39167	-4.50000e+01	
2.09818   	4.53815e+00		         0.39333	-4.50000e+01	
2.10701   	4.27300e+00		         0.39500	-4.40000e+01	
2.11586   	4.08852e+00		         0.39667	-4.40000e+01	
2.12472   	3.85630e+00		         0.39833	-4.30000e+01	
2.13359   	3.68140e+00		         0.40000	-4.20000e+01	
2.14242   	3.45713e+00		         0.40167	-4.10000e+01	
2.15127   	3.23819e+00		         0.40333	-4.00000e+01	
2.16012   	2.99185e+00		         0.40500	-3.90000e+01	
2.16900   	2.81905e+00		         0.40667	-3.80000e+01	
2.17783   	2.72182e+00		         0.40833	-3.70000e+01	
2.18668   	2.51006e+00		         0.41000	-3.60000e+01	
2.19553   	2.25295e+00		         0.41167	-3.40000e+01	
2.20440   	1.95997e+00		         0.41333	-3.30000e+01	
2.21324   	1.74712e+00		         0.41500	-3.20000e+01	
2.22209   	1.62538e+00		         0.41667	-3.10000e+01	
2.23094   	1.70621e+00		         0.41833	-2.90000e+01	
2.23982   	1.76728e+00		         0.42000	-2.80000e+01	
2.24865   	7.81683e-01		         0.42167	-2.70000e+01	
2.25750   	1.09584e+00		         0.42333	-2.70000e+01	
2.26635   	5.67485e-01		         0.42500	-2.60000e+01	
2.27522   	8.69119e-01		         0.42667	-2.50000e+01	
2.28405   	-3.53016e-01		         0.42833	-2.40000e+01	
2.29290   	-5.31490e-01		         0.43000	-2.40000e+01	
2.30176   	-4.25259e-01		         0.43167	-2.30000e+01	
2.31063   	-1.82731e-01		         0.43333	-2.30000e+01	
2.31946   	3.29000e-01		         0.43500	-2.20000e+01	
2.32832   	9.27678e-01		         0.43667	-2.20000e+01	
2.33717   	7.37890e-01		         0.43833	-2.20000e+01	
2.34605   	-3.08594e-01		         0.44000	-2.20000e+01	
2.35487   	-1.94279e+00		         0.44167	-2.20000e+01	
2.36372   	-2.95266e+00		         0.44333	-2.10000e+01	
2.37258   	-3.55273e+00		         0.44500	-2.10000e+01	
2.38145   	-3.82075e+00		         0.44667	-2.10000e+01	
2.39028   	-4.00513e+00		         0.44833	-2.00000e+01	
2.39913   	-3.91585e+00		         0.45000	-2.00000e+01	
2.40798   	-3.93244e+00		         0.45167	-2.00000e+01	
2.41686   	-3.79505e+00		         0.45333	-1.90000e+01	
2.42569   	-3.70852e+00		         0.45500	-1.80000e+01	
2.43454   	-3.39586e+00		         0.45667	-1.80000e+01	
2.44339   	-3.11541e+00		         0.45833	-1.70000e+01	
2.45226   	-2.84893e+00		         0.46000	-1.60000e+01	
2.46110   	-2.41048e+00		         0.46167	-1.50000e+01	
2.46995   	-1.95666e+00		         0.46333	-1.50000e+01	
2.47880   	-1.61283e+00		         0.46500	-1.40000e+01	
2.48768   	-1.26711e+00		         0.46667	-1.40000e+01	
2.49651   	-1.02112e+00		         0.46833	-1.30000e+01	
2.50536   	-7.67183e-01		         0.47000	-1.30000e+01	
2.51421   	-7.58479e-01		         0.47167	-1.30000e+01	
2.52307   	-5.46600e-01		         0.47333	-1.30000e+01	
2.53191   	-3.76426e-01		         0.47500	-1.30000e+01	
2.54077   	-2.78209e-01		         0.47667	-1.20000e+01	
2.54962   	-3.84977e-01		         0.47833	-1.20000e+01	
2.55850   	-3.84222e-01		         0.48000	-1.20000e+01	
2.56732   	-2.94622e-01		         0.48167	-1.20000e+01	
2.57617   	-2.44317e-01		         0.48333	-1.10000e+01	
2.58502   	-3.89606e-01		         0.48500	-1.10000e+01	
2.59391   	-4.62189e-01		         0.48667	-1.10000e+01	
2.60273   	-4.61398e-01		         0.48833	-1.10000e+01	
2.61158   	-4.17106e-01		         0.49000	-1.00000e+01	
2.62044   	-4.90873e-01		         0.49167	-1.00000e+01	
2.62931   	-6.32014e-01		         0.49333	-1.00000e+01	
2.63814   	-9.13852e-01		         0.49500	-9.00000e+00	
2.64699   	-1.70822e+00		         0.49667	-9.00000e+00	
2.65584   	-2.90409e+00		         0.49833	-9.00000e+00	
2.66470   	-4.32978e+00		         0.50000	-8.00000e+00	
2.67355   	-5.47375e+00		         0.50167	-8.00000e+00	
2.68240   	-6.35407e+00		         0.50333	-8.00000e+00	
2.69125   	-6.69605e+00		         0.50500	-8.00000e+00	
2.70012   	-6.76334e+00		         0.50667	-8.00000e+00	
2.70896   	-6.41950e+00		         0.50833	-8.00000e+00	
2.71781   	-5.97247e+00		         0.51000	-8.00000e+00	
2.72666   	-5.20295e+00		         0.51167	-8.00000e+00	
2.73552   	-4.35548e+00		         0.51333	-7.00000e+00	
2.74437   	-3.38169e+00		         0.51500	-7.00000e+00	
2.75322   	-2.84366e+00		         0.51667	-7.00000e+00	
2.76207   	-2.49870e+00		         0.51833	-7.00000e+00	
2.77095   	-2.29125e+00		         0.52000	-7.00000e+00	
2.77977   	-2.09831e+00		         0.52167	-7.00000e+00	
2.78863   	-1.14418e+00		         0.52333	-7.00000e+00	
2.79748   	-8.23277e-01		         0.52500	-7.00000e+00	
			         0.52667	-7.00000e+00	
			         0.52833	-7.00000e+00	
			         0.53000	-7.00000e+00	
			         0.53167	-7.00000e+00	
			         0.53333	-7.00000e+00	
			         0.53500	-6.00000e+00	
			         0.53667	-6.00000e+00	
			         0.53833	-6.00000e+00	
			         0.54000	-6.00000e+00	
			         0.54167	-5.00000e+00	
			         0.54333	-4.00000e+00	
			         0.54500	-4.00000e+00	
			         0.54667	-3.00000e+00	
			         0.54833	-3.00000e+00	
			         0.55000	-2.00000e+00	
			         0.55167	-2.00000e+00	
			         0.55333	-1.00000e+00	
			         0.55500	-1.00000e+00	
			         0.55667	-1.00000e+00	
			         0.55833	-1.00000e+00	
			         0.56000	-2.00000e+00	
			         0.56167	-2.00000e+00	
			         0.56333	-3.00000e+00	
			         0.56500	-3.00000e+00	
			         0.56667	-3.00000e+00	
			         0.56833	-4.00000e+00	
			         0.57000	-4.00000e+00	
			         0.57167	-5.00000e+00	
			         0.57333	-5.00000e+00	
			         0.57500	-5.00000e+00	
			         0.57667	-6.00000e+00	
			         0.57833	-6.00000e+00	
			         0.58000	-6.00000e+00	
			         0.58167	-6.00000e+00	
			         0.58333	-6.00000e+00	
			         0.58500	-6.00000e+00	
			         0.58667	-5.00000e+00	
			         0.58833	-5.00000e+00	
			         0.59000	-5.00000e+00	
			         0.59167	-5.00000e+00	
			         0.59333	-4.00000e+00	
			         0.59500	-4.00000e+00	
			         0.59667	-4.00000e+00	
			         0.59833	-4.00000e+00	
			         0.60000	-4.00000e+00	
			         0.60167	-4.00000e+00	
			         0.60333	-5.00000e+00	
			         0.60500	-5.00000e+00	
			         0.60667	-5.00000e+00	
			         0.60833	-6.00000e+00	
			         0.61000	-6.00000e+00	
			         0.61167	-6.00000e+00	
			         0.61333	-6.00000e+00	
			         0.61500	-6.00000e+00	
			         0.61667	-5.00000e+00	
			         0.61833	-5.00000e+00	
			         0.62000	-4.00000e+00	
			         0.62167	-4.00000e+00	
			         0.62333	-3.00000e+00	
			         0.62500	-3.00000e+00	
			         0.62667	-2.00000e+00	
			         0.62833	-2.00000e+00	
			         0.63000	-1.00000e+00	
			         0.63167	-1.00000e+00	
			         0.63333	-1.00000e+00	
			         0.63500	-1.00000e+00	
			         0.63667	-1.00000e+00	
			         0.63833	-2.00000e+00	
			         0.64000	-2.00000e+00	
			         0.64167	-2.00000e+00	
			         0.64333	-2.00000e+00	
			         0.64500	-3.00000e+00	
			         0.64667	-3.00000e+00	
			         0.64833	-4.00000e+00	
			         0.65000	-4.00000e+00	
			         0.65167	-4.00000e+00	
			         0.65333	-5.00000e+00	
			         0.65500	-5.00000e+00	
			         0.65667	-5.00000e+00	
			         0.65833	-5.00000e+00	
			         0.66000	-5.00000e+00	
			         0.66167	-4.00000e+00	
			         0.66333	-4.00000e+00	
			         0.66500	-3.00000e+00	
			         0.66667	-3.00000e+00	
			         0.66833	-2.00000e+00	
			         0.67000	-2.00000e+00	
			         0.67167	-2.00000e+00	
			         0.67333	-2.00000e+00	
			         0.67500	-2.00000e+00	
			         0.67667	-2.00000e+00	
			         0.67833	-2.00000e+00	
			         0.68000	-2.00000e+00	
			         0.68167	-2.00000e+00	
			         0.68333	-3.00000e+00	
			         0.68500	-3.00000e+00	
			         0.68667	-3.00000e+00	
			         0.68833	-4.00000e+00	
			         0.69000	-4.00000e+00	
			         0.69167	-4.00000e+00	
			         0.69333	-4.00000e+00	
			         0.69500	-4.00000e+00	
			         0.69667	-4.00000e+00	
			         0.69833	-3.00000e+00	
			         0.70000	-3.00000e+00	
			         0.70167	-3.00000e+00	
			         0.70333	-3.00000e+00	
			         0.70500	-2.00000e+00	
			         0.70667	-2.00000e+00	
			         0.70833	-2.00000e+00	
			         0.71000	-2.00000e+00	
			         0.71167	-2.00000e+00	
			         0.71333	-1.00000e+00	
			         0.71500	-1.00000e+00	
			         0.71667	-1.00000e+00	
			         0.71833	-1.00000e+00	
			         0.72000	-1.00000e+00	
			         0.72167	-1.00000e+00	
			         0.72333	0.00000e+00	
			         0.72500	0.00000e+00	
			         0.72667	0.00000e+00	
			         0.72833	1.00000e+00	
			         0.73000	1.00000e+00	
			         0.73167	2.00000e+00	
			         0.73333	3.00000e+00	
			         0.73500	3.00000e+00	
			         0.73667	4.00000e+00	
			         0.73833	5.00000e+00	
			         0.74000	6.00000e+00	
			         0.74167	7.00000e+00	
			         0.74333	8.00000e+00	
			         0.74500	9.00000e+00	
			         0.74667	1.00000e+01	
			         0.74833	1.20000e+01	
			         0.75000	1.30000e+01	
			         0.75167	1.40000e+01	
			         0.75333	1.50000e+01	
			         0.75500	1.70000e+01	
			         0.75667	1.80000e+01	
			         0.75833	1.80000e+01	
			         0.76000	1.90000e+01	
			         0.76167	2.00000e+01	
			         0.76333	2.00000e+01	
			         0.76500	2.00000e+01	
			         0.76667	2.00000e+01	
			         0.76833	2.00000e+01	
			         0.77000	2.00000e+01	
			         0.77167	1.90000e+01	
			         0.77333	1.90000e+01	
			         0.77500	1.80000e+01	
			         0.77667	1.70000e+01	
			         0.77833	1.60000e+01	
			         0.78000	1.50000e+01	
			         0.78167	1.40000e+01	
			         0.78333	1.30000e+01	
			         0.78500	1.10000e+01	
			         0.78667	1.00000e+01	
			         0.78833	9.00000e+00	
			         0.79000	8.00000e+00	
			         0.79167	7.00000e+00	
			         0.79333	7.00000e+00	
			         0.79500	6.00000e+00	
			         0.79667	5.00000e+00	
			         0.79833	4.00000e+00	
			         0.80000	3.00000e+00	
			         0.80167	1.00000e+00	
			         0.80333	0.00000e+00	
			         0.80500	-1.00000e+00	
			         0.80667	-3.00000e+00	
			         0.80833	-4.00000e+00	
			         0.81000	-6.00000e+00	
			         0.81167	-8.00000e+00	
			         0.81333	-1.00000e+01	
			         0.81500	-1.10000e+01	
			         0.81667	-1.30000e+01	
			         0.81833	-1.40000e+01	
			         0.82000	-1.50000e+01	
			         0.82167	-1.60000e+01	
			         0.82333	-1.70000e+01	
			         0.82500	-1.80000e+01	
			         0.82667	-1.90000e+01	
			         0.82833	-1.90000e+01	
			         0.83000	-1.90000e+01	
			         0.83167	-2.00000e+01	
			         0.83333	-1.90000e+01	
			         0.83500	-1.90000e+01	
			         0.83667	-1.90000e+01	
			         0.83833	-1.80000e+01	
			         0.84000	-1.70000e+01	
			         0.84167	-1.70000e+01	
			         0.84333	-1.60000e+01	
			         0.84500	-1.50000e+01	
			         0.84667	-1.50000e+01	
			         0.84833	-1.50000e+01	
			         0.85000	-1.40000e+01	
			         0.85167	-1.40000e+01	
			         0.85333	-1.40000e+01	
			         0.85500	-1.40000e+01	
			         0.85667	-1.30000e+01	
			         0.85833	-1.30000e+01	
			         0.86000	-1.30000e+01	
			         0.86167	-1.30000e+01	
			         0.86333	-1.30000e+01	
			         0.86500	-1.30000e+01	
			         0.86667	-1.30000e+01	
			         0.86833	-1.30000e+01	
			         0.87000	-1.20000e+01	
			         0.87167	-1.20000e+01	
			         0.87333	-1.20000e+01	
			         0.87500	-1.10000e+01	
			         0.87667	-1.10000e+01	
			         0.87833	-1.10000e+01	
			         0.88000	-1.00000e+01	
			         0.88167	-1.00000e+01	
			         0.88333	-9.00000e+00	
			         0.88500	-9.00000e+00	
			         0.88667	-8.00000e+00	
			         0.88833	-8.00000e+00	
			         0.89000	-8.00000e+00	
			         0.89167	-8.00000e+00	
			         0.89333	-9.00000e+00	
			         0.89500	-1.00000e+01	
			         0.89667	-1.20000e+01	
			         0.89833	-1.40000e+01	
			         0.90000	-1.70000e+01	
			         0.90167	-2.00000e+01	
			         0.90333	-2.40000e+01	
			         0.90500	-2.80000e+01	
			         0.90667	-3.10000e+01	
			         0.90833	-3.40000e+01	
			         0.91000	-3.50000e+01	
			         0.91167	-3.50000e+01	
			         0.91333	-3.30000e+01	
			         0.91500	-2.80000e+01	
			         0.91667	-2.00000e+01	
			         0.91833	-8.00000e+00	
			         0.92000	7.00000e+00	
			         0.92167	2.70000e+01	
			         0.92333	5.10000e+01	
			         0.92500	7.80000e+01	
			         0.92667	1.09000e+02	
			         0.92833	1.43000e+02	
			         0.93000	1.78000e+02	
			         0.93167	2.14000e+02	
			         0.93333	2.50000e+02	
			         0.93500	2.85000e+02	
			         0.93667	3.17000e+02	
			         0.93833	3.45000e+02	
			         0.94000	3.69000e+02	
			         0.94167	3.87000e+02	
			         0.94333	4.00000e+02	
			         0.94500	4.08000e+02	
			         0.94667	4.09000e+02	
			         0.94833	4.04000e+02	
			         0.95000	3.93000e+02	
			         0.95167	3.76000e+02	
			         0.95333	3.54000e+02	
			         0.95500	3.27000e+02	
			         0.95667	2.97000e+02	
			         0.95833	2.64000e+02	
			         0.96000	2.29000e+02	
			         0.96167	1.93000e+02	
			         0.96333	1.57000e+02	
			         0.96500	1.20000e+02	
			         0.96667	8.40000e+01	
			         0.96833	5.00000e+01	
			         0.97000	1.80000e+01	
			         0.97167	-1.10000e+01	
			         0.97333	-3.60000e+01	
			         0.97500	-5.90000e+01	
			         0.97667	-7.80000e+01	
			         0.97833	-9.40000e+01	
			         0.98000	-1.06000e+02	
			         0.98167	-1.16000e+02	
			         0.98333	-1.23000e+02	
			         0.98500	-1.28000e+02	
			         0.98667	-1.32000e+02	
			         0.98833	-1.33000e+02	
			         0.99000	-1.34000e+02	
			         0.99167	-1.33000e+02	
			         0.99333	-1.32000e+02	
			         0.99500	-1.30000e+02	
			         0.99667	-1.28000e+02	
			         0.99833	-1.26000e+02	
			         1.00000	-1.23000e+02	
			         1.00167	-1.21000e+02	
			         1.00333	-1.18000e+02	
			         1.00500	-1.15000e+02	
			         1.00667	-1.12000e+02	
			         1.00833	-1.10000e+02	
			         1.01000	-1.07000e+02	
			         1.01167	-1.05000e+02	
			         1.01333	-1.02000e+02	
			         1.01500	-1.00000e+02	
			         1.01667	-9.70000e+01	
			         1.01833	-9.50000e+01	
			         1.02000	-9.30000e+01	
			         1.02167	-9.00000e+01	
			         1.02333	-8.80000e+01	
			         1.02500	-8.60000e+01	
			         1.02667	-8.40000e+01	
			         1.02833	-8.20000e+01	
			         1.03000	-8.10000e+01	
			         1.03167	-7.90000e+01	
			         1.03333	-7.70000e+01	
			         1.03500	-7.50000e+01	
			         1.03667	-7.40000e+01	
			         1.03833	-7.20000e+01	
			         1.04000	-7.00000e+01	
			         1.04167	-6.90000e+01	
			         1.04333	-6.80000e+01	
			         1.04500	-6.60000e+01	
			         1.04667	-6.50000e+01	
			         1.04833	-6.30000e+01	
			         1.05000	-6.10000e+01	
			         1.05167	-6.00000e+01	
			         1.05333	-5.80000e+01	
			         1.05500	-5.60000e+01	
			         1.05667	-5.40000e+01	
			         1.05833	-5.20000e+01	
			         1.06000	-5.00000e+01	
			         1.06167	-4.80000e+01	
			         1.06333	-4.60000e+01	
			         1.06500	-4.40000e+01	
			         1.06667	-4.30000e+01	
			         1.06833	-4.20000e+01	
			         1.07000	-4.10000e+01	
			         1.07167	-4.00000e+01	
			         1.07333	-3.90000e+01	
			         1.07500	-3.80000e+01	
			         1.07667	-3.70000e+01	
			         1.07833	-3.60000e+01	
			         1.08000	-3.60000e+01	
			         1.08167	-3.50000e+01	
			         1.08333	-3.40000e+01	
			         1.08500	-3.30000e+01	
			         1.08667	-3.20000e+01	
			         1.08833	-3.00000e+01	
			         1.09000	-2.90000e+01	
			         1.09167	-2.80000e+01	
			         1.09333	-2.70000e+01	
			         1.09500	-2.60000e+01	
			         1.09667	-2.50000e+01	
			         1.09833	-2.40000e+01	
			         1.10000	-2.30000e+01	
			         1.10167	-2.20000e+01	
			         1.10333	-2.10000e+01	
			         1.10500	-2.10000e+01	
			         1.10667	-2.00000e+01	
			         1.10833	-2.00000e+01	
			         1.11000	-1.90000e+01	
			         1.11167	-1.90000e+01	
			         1.11333	-1.90000e+01	
			         1.11500	-1.80000e+01	
			         1.11667	-1.70000e+01	
			         1.11833	-1.70000e+01	
			         1.12000	-1.60000e+01	
			         1.12167	-1.50000e+01	
			         1.12333	-1.40000e+01	
			         1.12500	-1.30000e+01	
			         1.12667	-1.20000e+01	
			         1.12833	-1.10000e+01	
			         1.13000	-1.00000e+01	
			         1.13167	-9.00000e+00	
			         1.13333	-8.00000e+00	
			         1.13500	-7.00000e+00	
			         1.13667	-7.00000e+00	
			         1.13833	-6.00000e+00	
			         1.14000	-5.00000e+00	
			         1.14167	-4.00000e+00	
			         1.14333	-3.00000e+00	
			         1.14500	-2.00000e+00	
			         1.14667	-1.00000e+00	
			         1.14833	-1.00000e+00	
			         1.15000	0.00000e+00	
			         1.15167	1.00000e+00	
			         1.15333	2.00000e+00	
			         1.15500	2.00000e+00	
			         1.15667	3.00000e+00	
			         1.15833	4.00000e+00	
			         1.16000	5.00000e+00	
			         1.16167	5.00000e+00	
			         1.16333	6.00000e+00	
			         1.16500	7.00000e+00	
			         1.16667	7.00000e+00	
			         1.16833	8.00000e+00	
			         1.17000	9.00000e+00	
			         1.17167	9.00000e+00	
			         1.17333	1.00000e+01	
			         1.17500	1.10000e+01	
			         1.17667	1.20000e+01	
			         1.17833	1.30000e+01	
			         1.18000	1.40000e+01	
			         1.18167	1.50000e+01	
			         1.18333	1.60000e+01	
			         1.18500	1.70000e+01	
			         1.18667	1.80000e+01	
			         1.18833	2.00000e+01	
			         1.19000	2.10000e+01	
			         1.19167	2.20000e+01	
			         1.19333	2.40000e+01	
			         1.19500	2.50000e+01	
			         1.19667	2.60000e+01	
			         1.19833	2.80000e+01	
			         1.20000	2.90000e+01	
			         1.20167	3.10000e+01	
			         1.20333	3.20000e+01	
			         1.20500	3.40000e+01	
			         1.20667	3.50000e+01	
			         1.20833	3.70000e+01	
			         1.21000	3.80000e+01	
			         1.21167	4.00000e+01	
			         1.21333	4.10000e+01	
			         1.21500	4.20000e+01	
			         1.21667	4.30000e+01	
			         1.21833	4.40000e+01	
			         1.22000	4.50000e+01	
			         1.22167	4.60000e+01	
			         1.22333	4.60000e+01	
			         1.22500	4.70000e+01	
			         1.22667	4.70000e+01	
			         1.22833	4.70000e+01	
			         1.23000	4.70000e+01	
			         1.23167	4.70000e+01	
			         1.23333	4.70000e+01	
			         1.23500	4.70000e+01	
			         1.23667	4.60000e+01	
			         1.23833	4.60000e+01	
			         1.24000	4.60000e+01	
			         1.24167	4.60000e+01	
			         1.24333	4.60000e+01	
			         1.24500	4.60000e+01	
			         1.24667	4.60000e+01	
			         1.24833	4.60000e+01	
			         1.25000	4.50000e+01	
			         1.25167	4.50000e+01	
			         1.25333	4.40000e+01	
			         1.25500	4.30000e+01	
			         1.25667	4.10000e+01	
			         1.25833	3.90000e+01	
			         1.26000	3.70000e+01	
			         1.26167	3.40000e+01	
			         1.26333	3.10000e+01	
			         1.26500	2.80000e+01	
			         1.26667	2.40000e+01	
			         1.26833	2.10000e+01	
			         1.27000	1.70000e+01	
			         1.27167	1.30000e+01	
			         1.27333	9.00000e+00	
			         1.27500	5.00000e+00	
			         1.27667	2.00000e+00	
			         1.27833	-2.00000e+00	
			         1.28000	-6.00000e+00	
			         1.28167	-9.00000e+00	
			         1.28333	-1.30000e+01	
			         1.28500	-1.60000e+01	
			         1.28667	-1.90000e+01	
			         1.28833	-2.20000e+01	
			         1.29000	-2.40000e+01	
			         1.29167	-2.70000e+01	
			         1.29333	-2.90000e+01	
			         1.29500	-3.10000e+01	
			         1.29667	-3.30000e+01	
			         1.29833	-3.40000e+01	
			         1.30000	-3.50000e+01	
			         1.30167	-3.70000e+01	
			         1.30333	-3.70000e+01	
			         1.30500	-3.80000e+01	
			         1.30667	-3.90000e+01	
			         1.30833	-3.90000e+01	
			         1.31000	-4.00000e+01	
			         1.31167	-4.00000e+01	
			         1.31333	-4.00000e+01	
			         1.31500	-4.10000e+01	
			         1.31667	-4.10000e+01	
			         1.31833	-4.10000e+01	
			         1.32000	-4.10000e+01	
			         1.32167	-4.10000e+01	
			         1.32333	-4.10000e+01	
			         1.32500	-4.00000e+01	
			         1.32667	-4.00000e+01	
			         1.32833	-4.00000e+01	
			         1.33000	-3.90000e+01	
			         1.33167	-3.90000e+01	
			         1.33333	-3.80000e+01	
			         1.33500	-3.80000e+01	
			         1.33667	-3.70000e+01	
			         1.33833	-3.70000e+01	
			         1.34000	-3.60000e+01	
			         1.34167	-3.50000e+01	
			         1.34333	-3.40000e+01	
			         1.34500	-3.30000e+01	
			         1.34667	-3.30000e+01	
			         1.34833	-3.20000e+01	
			         1.35000	-3.10000e+01	
			         1.35167	-3.00000e+01	
			         1.35333	-3.00000e+01	
			         1.35500	-2.90000e+01	
			         1.35667	-2.80000e+01	
			         1.35833	-2.80000e+01	
			         1.36000	-2.70000e+01	
			         1.36167	-2.60000e+01	
			         1.36333	-2.60000e+01	
			         1.36500	-2.50000e+01	
			         1.36667	-2.50000e+01	
			         1.36833	-2.40000e+01	
			         1.37000	-2.30000e+01	
			         1.37167	-2.30000e+01	
			         1.37333	-2.20000e+01	
			         1.37500	-2.20000e+01	
			         1.37667	-2.10000e+01	
			         1.37833	-2.10000e+01	
			         1.38000	-2.10000e+01	
			         1.38167	-2.00000e+01	
			         1.38333	-2.00000e+01	
			         1.38500	-1.90000e+01	
			         1.38667	-1.90000e+01	
			         1.38833	-1.90000e+01	
			         1.39000	-1.80000e+01	
			         1.39167	-1.80000e+01	
			         1.39333	-1.80000e+01	
			         1.39500	-1.80000e+01	
			         1.39667	-1.70000e+01	
			         1.39833	-1.70000e+01	
			         1.40000	-1.60000e+01	
			         1.40167	-1.60000e+01	
			         1.40333	-1.60000e+01	
			         1.40500	-1.50000e+01	
			         1.40667	-1.50000e+01	
			         1.40833	-1.50000e+01	
			         1.41000	-1.40000e+01	
			         1.41167	-1.40000e+01	
			         1.41333	-1.40000e+01	
			         1.41500	-1.40000e+01	
			         1.41667	-1.30000e+01	
			         1.41833	-1.30000e+01	
			         1.42000	-1.30000e+01	
			         1.42167	-1.30000e+01	
			         1.42333	-1.30000e+01	
			         1.42500	-1.30000e+01	
			         1.42667	-1.30000e+01	
			         1.42833	-1.30000e+01	
			         1.43000	-1.30000e+01	
			         1.43167	-1.30000e+01	
			         1.43333	-1.30000e+01	
			         1.43500	-1.20000e+01	
			         1.43667	-1.20000e+01	
			         1.43833	-1.20000e+01	
			         1.44000	-1.20000e+01	
			         1.44167	-1.20000e+01	
			         1.44333	-1.10000e+01	
			         1.44500	-1.10000e+01	
			         1.44667	-1.10000e+01	
			         1.44833	-1.10000e+01	
			         1.45000	-1.00000e+01	
			         1.45167	-1.00000e+01	
			         1.45333	-1.10000e+01	
			         1.45500	-1.10000e+01	
			         1.45667	-1.10000e+01	
			         1.45833	-1.10000e+01	
			         1.46000	-1.10000e+01	
			         1.46167	-1.10000e+01	
			         1.46333	-1.10000e+01	
			         1.46500	-1.10000e+01	
			         1.46667	-1.00000e+01	
			         1.46833	-1.00000e+01	
			         1.47000	-9.00000e+00	
			         1.47167	-8.00000e+00	
			         1.47333	-8.00000e+00	
			         1.47500	-7.00000e+00	
			         1.47667	-6.00000e+00	
			         1.47833	-6.00000e+00	
			         1.48000	-5.00000e+00	
			         1.48167	-5.00000e+00	
			         1.48333	-4.00000e+00	
			         1.48500	-4.00000e+00	
			         1.48667	-3.00000e+00	
			         1.48833	-3.00000e+00	
			         1.49000	-3.00000e+00	
			         1.49167	-2.00000e+00	
			         1.49333	-2.00000e+00	
			         1.49500	-2.00000e+00	
			         1.49667	-2.00000e+00	
			         1.49833	-2.00000e+00	
			         1.50000	-2.00000e+00	
			         1.50167	-2.00000e+00	
			         1.50333	-2.00000e+00	
			         1.50500	-2.00000e+00	
			         1.50667	-3.00000e+00	
			         1.50833	-3.00000e+00	
			         1.51000	-3.00000e+00	
			         1.51167	-3.00000e+00	
			         1.51333	-3.00000e+00	
			         1.51500	-3.00000e+00	
			         1.51667	-3.00000e+00	
			         1.51833	-3.00000e+00	
			         1.52000	-2.00000e+00	
			         1.52167	-2.00000e+00	
			         1.52333	-2.00000e+00	
			         1.52500	-2.00000e+00	
			         1.52667	-2.00000e+00	
			         1.52833	-2.00000e+00	
			         1.53000	-2.00000e+00	
			         1.53167	-1.00000e+00	
			         1.53333	-1.00000e+00	
			         1.53500	-1.00000e+00	
			         1.53667	-1.00000e+00	
			         1.53833	-1.00000e+00	
			         1.54000	-1.00000e+00	
			         1.54167	-2.00000e+00	
			         1.54333	-2.00000e+00	
			         1.54500	-2.00000e+00	
			         1.54667	-2.00000e+00	
			         1.54833	-2.00000e+00	
			         1.55000	-2.00000e+00	
			         1.55167	-2.00000e+00	
			         1.55333	-2.00000e+00	
			         1.55500	-2.00000e+00	
			         1.55667	-2.00000e+00	
			         1.55833	-2.00000e+00	
			         1.56000	-2.00000e+00	
			         1.56167	-2.00000e+00	
			         1.56333	-2.00000e+00	
			         1.56500	-2.00000e+00	
			         1.56667	-2.00000e+00	
			         1.56833	-2.00000e+00	
			         1.57000	-2.00000e+00	
			         1.57167	-2.00000e+00	
			         1.57333	-2.00000e+00	
			         1.57500	-2.00000e+00	
			         1.57667	-2.00000e+00	
			         1.57833	-2.00000e+00	
			         1.58000	-2.00000e+00	
			         1.58167	-3.00000e+00	
			         1.58333	-3.00000e+00	
			         1.58500	-3.00000e+00	
			         1.58667	-3.00000e+00	
			         1.58833	-3.00000e+00	
			         1.59000	-3.00000e+00	
			         1.59167	-3.00000e+00	
			         1.59333	-3.00000e+00	
			         1.59500	-3.00000e+00	
			         1.59667	-3.00000e+00	
			         1.59833	-3.00000e+00	
			         1.60000	-3.00000e+00	
			         1.60167	-2.00000e+00	
			         1.60333	-2.00000e+00	
			         1.60500	-2.00000e+00	
			         1.60667	-2.00000e+00	
			         1.60833	-2.00000e+00	
			         1.61000	-2.00000e+00	
			         1.61167	-1.00000e+00	
			         1.61333	-1.00000e+00	
			         1.61500	-1.00000e+00	
			         1.61667	-1.00000e+00	
			         1.61833	-1.00000e+00	
			         1.62000	0.00000e+00	
			         1.62167	0.00000e+00	
			         1.62333	0.00000e+00	
			         1.62500	0.00000e+00	
			         1.62667	0.00000e+00	
			         1.62833	0.00000e+00	
			         1.63000	0.00000e+00	
			         1.63167	0.00000e+00	
			         1.63333	0.00000e+00	
			         1.63500	-1.00000e+00	
			         1.63667	-1.00000e+00	
			         1.63833	-1.00000e+00	
			         1.64000	-1.00000e+00	
			         1.64167	-1.00000e+00	
			         1.64333	-1.00000e+00	
			         1.64500	-1.00000e+00	
			         1.64667	-1.00000e+00	
			         1.64833	-1.00000e+00	
			         1.65000	-1.00000e+00	
			         1.65167	-1.00000e+00	
			         1.65333	-1.00000e+00	
			         1.65500	0.00000e+00	
			         1.65667	0.00000e+00	
			         1.65833	0.00000e+00	
			         1.66000	1.00000e+00	
			         1.66167	2.00000e+00	
			         1.66333	3.00000e+00	
			         1.66500	4.00000e+00	
			         1.66667	5.00000e+00	
			         1.66833	6.00000e+00	
			         1.67000	8.00000e+00	
			         1.67167	9.00000e+00	
			         1.67333	1.00000e+01	
			         1.67500	1.20000e+01	
			         1.67667	1.30000e+01	
			         1.67833	1.40000e+01	
			         1.68000	1.50000e+01	
			         1.68167	1.60000e+01	
			         1.68333	1.70000e+01	
			         1.68500	1.80000e+01	
			         1.68667	1.90000e+01	
			         1.68833	1.90000e+01	
			         1.69000	2.00000e+01	
			         1.69167	2.00000e+01	
			         1.69333	2.10000e+01	
			         1.69500	2.00000e+01	
			         1.69667	2.00000e+01	
			         1.69833	1.90000e+01	
			         1.70000	1.90000e+01	
			         1.70167	1.80000e+01	
			         1.70333	1.70000e+01	
			         1.70500	1.60000e+01	
			         1.70667	1.50000e+01	
			         1.70833	1.40000e+01	
			         1.71000	1.30000e+01	
			         1.71167	1.20000e+01	
			         1.71333	1.20000e+01	
			         1.71500	1.10000e+01	
			         1.71667	1.00000e+01	
			         1.71833	1.00000e+01	
			         1.72000	9.00000e+00	
			         1.72167	8.00000e+00	
			         1.72333	7.00000e+00	
			         1.72500	6.00000e+00	
			         1.72667	5.00000e+00	
			         1.72833	3.00000e+00	
			         1.73000	1.00000e+00	
			         1.73167	0.00000e+00	
			         1.73333	-2.00000e+00	
			         1.73500	-4.00000e+00	
			         1.73667	-6.00000e+00	
			         1.73833	-8.00000e+00	
			         1.74000	-1.00000e+01	
			         1.74167	-1.20000e+01	
			         1.74333	-1.40000e+01	
			         1.74500	-1.60000e+01	
			         1.74667	-1.70000e+01	
			         1.74833	-1.90000e+01	
			         1.75000	-2.00000e+01	
			         1.75167	-2.10000e+01	
			         1.75333	-2.10000e+01	
			         1.75500	-2.20000e+01	
			         1.75667	-2.20000e+01	
			         1.75833	-2.30000e+01	
			         1.76000	-2.30000e+01	
			         1.76167	-2.30000e+01	
			         1.76333	-2.20000e+01	
			         1.76500	-2.20000e+01	
			         1.76667	-2.20000e+01	
			         1.76833	-2.10000e+01	
			         1.77000	-2.10000e+01	
			         1.77167	-2.00000e+01	
			         1.77333	-2.00000e+01	
			         1.77500	-2.00000e+01	
			         1.77667	-1.90000e+01	
			         1.77833	-1.90000e+01	
			         1.78000	-1.90000e+01	
			         1.78167	-1.90000e+01	
			         1.78333	-1.90000e+01	
			         1.78500	-1.90000e+01	
			         1.78667	-1.90000e+01	
			         1.78833	-1.90000e+01	
			         1.79000	-1.90000e+01	
			         1.79167	-1.90000e+01	
			         1.79333	-1.80000e+01	
			         1.79500	-1.80000e+01	
			         1.79667	-1.70000e+01	
			         1.79833	-1.60000e+01	
			         1.80000	-1.60000e+01	
			         1.80167	-1.50000e+01	
			         1.80333	-1.40000e+01	
			         1.80500	-1.30000e+01	
			         1.80667	-1.20000e+01	
			         1.80833	-1.10000e+01	
			         1.81000	-1.00000e+01	
			         1.81167	-9.00000e+00	
			         1.81333	-9.00000e+00	
			         1.81500	-9.00000e+00	
			         1.81667	-8.00000e+00	
			         1.81833	-8.00000e+00	
			         1.82000	-9.00000e+00	
			         1.82167	-9.00000e+00	
			         1.82333	-1.00000e+01	
			         1.82500	-1.20000e+01	
			         1.82667	-1.40000e+01	
			         1.82833	-1.70000e+01	
			         1.83000	-2.10000e+01	
			         1.83167	-2.50000e+01	
			         1.83333	-2.90000e+01	
			         1.83500	-3.30000e+01	
			         1.83667	-3.60000e+01	
			         1.83833	-3.90000e+01	
			         1.84000	-3.90000e+01	
			         1.84167	-3.80000e+01	
			         1.84333	-3.50000e+01	
			         1.84500	-2.80000e+01	
			         1.84667	-1.70000e+01	
			         1.84833	-2.00000e+00	
			         1.85000	1.70000e+01	
			         1.85167	4.00000e+01	
			         1.85333	6.70000e+01	
			         1.85500	9.80000e+01	
			         1.85667	1.32000e+02	
			         1.85833	1.69000e+02	
			         1.86000	2.06000e+02	
			         1.86167	2.44000e+02	
			         1.86333	2.80000e+02	
			         1.86500	3.13000e+02	
			         1.86667	3.43000e+02	
			         1.86833	3.69000e+02	
			         1.87000	3.90000e+02	
			         1.87167	4.04000e+02	
			         1.87333	4.13000e+02	
			         1.87500	4.15000e+02	
			         1.87667	4.11000e+02	
			         1.87833	4.01000e+02	
			         1.88000	3.84000e+02	
			         1.88167	3.62000e+02	
			         1.88333	3.35000e+02	
			         1.88500	3.04000e+02	
			         1.88667	2.70000e+02	
			         1.88833	2.34000e+02	
			         1.89000	1.96000e+02	
			         1.89167	1.58000e+02	
			         1.89333	1.21000e+02	
			         1.89500	8.40000e+01	
			         1.89667	5.00000e+01	
			         1.89833	1.70000e+01	
			         1.90000	-1.20000e+01	
			         1.90167	-3.90000e+01	
			         1.90333	-6.10000e+01	
			         1.90500	-8.00000e+01	
			         1.90667	-9.60000e+01	
			         1.90833	-1.09000e+02	
			         1.91000	-1.19000e+02	
			         1.91167	-1.26000e+02	
			         1.91333	-1.31000e+02	
			         1.91500	-1.35000e+02	
			         1.91667	-1.37000e+02	
			         1.91833	-1.37000e+02	
			         1.92000	-1.37000e+02	
			         1.92167	-1.36000e+02	
			         1.92333	-1.34000e+02	
			         1.92500	-1.33000e+02	
			         1.92667	-1.30000e+02	
			         1.92833	-1.28000e+02	
			         1.93000	-1.26000e+02	
			         1.93167	-1.23000e+02	
			         1.93333	-1.20000e+02	
			         1.93500	-1.18000e+02	
			         1.93667	-1.15000e+02	
			         1.93833	-1.12000e+02	
			         1.94000	-1.09000e+02	
			         1.94167	-1.07000e+02	
			         1.94333	-1.04000e+02	
			         1.94500	-1.02000e+02	
			         1.94667	-9.90000e+01	
			         1.94833	-9.70000e+01	
			         1.95000	-9.40000e+01	
			         1.95167	-9.20000e+01	
			         1.95333	-9.00000e+01	
			         1.95500	-8.80000e+01	
			         1.95667	-8.70000e+01	
			         1.95833	-8.50000e+01	
			         1.96000	-8.30000e+01	
			         1.96167	-8.10000e+01	
			         1.96333	-7.90000e+01	
			         1.96500	-7.80000e+01	
			         1.96667	-7.60000e+01	
			         1.96833	-7.30000e+01	
			         1.97000	-7.10000e+01	
			         1.97167	-6.90000e+01	
			         1.97333	-6.70000e+01	
			         1.97500	-6.50000e+01	
			         1.97667	-6.20000e+01	
			         1.97833	-6.00000e+01	
			         1.98000	-5.80000e+01	
			         1.98167	-5.60000e+01	
			         1.98333	-5.50000e+01	
			         1.98500	-5.30000e+01	
			         1.98667	-5.10000e+01	
			         1.98833	-5.00000e+01	
			         1.99000	-4.80000e+01	
			         1.99167	-4.70000e+01	
			         1.99333	-4.60000e+01	
			         1.99500	-4.50000e+01	
			         1.99667	-4.30000e+01	
			         1.99833	-4.20000e+01	
			         2.00000	-4.10000e+01	
			         2.00167	-4.00000e+01	
			         2.00333	-3.90000e+01	
			         2.00500	-3.80000e+01	
			         2.00667	-3.70000e+01	
			         2.00833	-3.60000e+01	
			         2.01000	-3.50000e+01	
			         2.01167	-3.40000e+01	
			         2.01333	-3.30000e+01	
			         2.01500	-3.20000e+01	
			         2.01667	-3.10000e+01	
			         2.01833	-3.10000e+01	
			         2.02000	-3.00000e+01	
			         2.02167	-2.90000e+01	
			         2.02333	-2.80000e+01	
			         2.02500	-2.70000e+01	
			         2.02667	-2.60000e+01	
			         2.02833	-2.60000e+01	
			         2.03000	-2.50000e+01	
			         2.03167	-2.40000e+01	
			         2.03333	-2.40000e+01	
			         2.03500	-2.30000e+01	
			         2.03667	-2.20000e+01	
			         2.03833	-2.20000e+01	
			         2.04000	-2.10000e+01	
			         2.04167	-2.00000e+01	
			         2.04333	-1.90000e+01	
			         2.04500	-1.80000e+01	
			         2.04667	-1.80000e+01	
			         2.04833	-1.70000e+01	
			         2.05000	-1.60000e+01	
			         2.05167	-1.50000e+01	
			         2.05333	-1.40000e+01	
			         2.05500	-1.30000e+01	
			         2.05667	-1.20000e+01	
			         2.05833	-1.20000e+01	
			         2.06000	-1.10000e+01	
			         2.06167	-1.00000e+01	
			         2.06333	-1.00000e+01	
			         2.06500	-9.00000e+00	
			         2.06667	-9.00000e+00	
			         2.06833	-8.00000e+00	
			         2.07000	-7.00000e+00	
			         2.07167	-7.00000e+00	
			         2.07333	-6.00000e+00	
			         2.07500	-6.00000e+00	
			         2.07667	-5.00000e+00	
			         2.07833	-4.00000e+00	
			         2.08000	-3.00000e+00	
			         2.08167	-2.00000e+00	
			         2.08333	-1.00000e+00	
			         2.08500	0.00000e+00	
			         2.08667	1.00000e+00	
			         2.08833	2.00000e+00	
			         2.09000	3.00000e+00	
			         2.09167	4.00000e+00	
			         2.09333	5.00000e+00	
			         2.09500	6.00000e+00	
			         2.09667	7.00000e+00	
			         2.09833	8.00000e+00	
			         2.10000	9.00000e+00	
			         2.10167	1.00000e+01	
			         2.10333	1.10000e+01	
			         2.10500	1.20000e+01	
			         2.10667	1.30000e+01	
			         2.10833	1.30000e+01	
			         2.11000	1.40000e+01	
			         2.11167	1.50000e+01	
			         2.11333	1.60000e+01	
			         2.11500	1.60000e+01	
			         2.11667	1.70000e+01	
			         2.11833	1.80000e+01	
			         2.12000	1.90000e+01	
			         2.12167	2.00000e+01	
			         2.12333	2.10000e+01	
			         2.12500	2.20000e+01	
			         2.12667	2.30000e+01	
			         2.12833	2.40000e+01	
			         2.13000	2.50000e+01	
			         2.13167	2.60000e+01	
			         2.13333	2.70000e+01	
			         2.13500	2.90000e+01	
			         2.13667	3.00000e+01	
			         2.13833	3.20000e+01	
			         2.14000	3.30000e+01	
			         2.14167	3.40000e+01	
			         2.14333	3.60000e+01	
			         2.14500	3.70000e+01	
			         2.14667	3.80000e+01	
			         2.14833	3.90000e+01	
			         2.15000	4.10000e+01	
			         2.15167	4.20000e+01	
			         2.15333	4.30000e+01	
			         2.15500	4.40000e+01	
			         2.15667	4.40000e+01	
			         2.15833	4.50000e+01	
			         2.16000	4.50000e+01	
			         2.16167	4.60000e+01	
			         2.16333	4.60000e+01	
			         2.16500	4.60000e+01	
			         2.16667	4.60000e+01	
			         2.16833	4.60000e+01	
			         2.17000	4.50000e+01	
			         2.17167	4.50000e+01	
			         2.17333	4.40000e+01	
			         2.17500	4.40000e+01	
			         2.17667	4.30000e+01	
			         2.17833	4.20000e+01	
			         2.18000	4.20000e+01	
			         2.18167	4.10000e+01	
			         2.18333	3.90000e+01	
			         2.18500	3.80000e+01	
			         2.18667	3.60000e+01	
			         2.18833	3.40000e+01	
			         2.19000	3.20000e+01	
			         2.19167	2.90000e+01	
			         2.19333	2.60000e+01	
			         2.19500	2.30000e+01	
			         2.19667	2.00000e+01	
			         2.19833	1.60000e+01	
			         2.20000	1.20000e+01	
			         2.20167	8.00000e+00	
			         2.20333	4.00000e+00	
			         2.20500	0.00000e+00	
			         2.20667	-4.00000e+00	
			         2.20833	-8.00000e+00	
			         2.21000	-1.20000e+01	
			         2.21167	-1.50000e+01	
			         2.21333	-1.90000e+01	
			         2.21500	-2.20000e+01	
			         2.21667	-2.40000e+01	
			         2.21833	-2.70000e+01	
			         2.22000	-2.90000e+01	
			         2.22167	-3.10000e+01	
			         2.22333	-3.30000e+01	
			         2.22500	-3.50000e+01	
			         2.22667	-3.60000e+01	
			         2.22833	-3.70000e+01	
			         2.23000	-3.80000e+01	
			         2.23167	-3.90000e+01	
			         2.23333	-4.00000e+01	
			         2.23500	-4.10000e+01	
			         2.23667	-4.10000e+01	
			         2.23833	-4.20000e+01	
			         2.24000	-4.20000e+01	
			         2.24167	-4.20000e+01	
			         2.24333	-4.30000e+01	
			         2.24500	-4.30000e+01	
			         2.24667	-4.30000e+01	
			         2.24833	-4.20000e+01	
			         2.25000	-4.20000e+01	
			         2.25167	-4.20000e+01	
			         2.25333	-4.10000e+01	
			         2.25500	-4.00000e+01	
			         2.25667	-4.00000e+01	
			         2.25833	-3.80000e+01	
			         2.26000	-3.70000e+01	
			         2.26167	-3.60000e+01	
			         2.26333	-3.50000e+01	
			         2.26500	-3.40000e+01	
			         2.26667	-3.30000e+01	
			         2.26833	-3.20000e+01	
			         2.27000	-3.10000e+01	
			         2.27167	-3.00000e+01	
			         2.27333	-2.90000e+01	
			         2.27500	-2.90000e+01	
			         2.27667	-2.80000e+01	
			         2.27833	-2.70000e+01	
			         2.28000	-2.70000e+01	
			         2.28167	-2.60000e+01	
			         2.28333	-2.60000e+01	
			         2.28500	-2.50000e+01	
			         2.28667	-2.40000e+01	
			         2.28833	-2.40000e+01	
			         2.29000	-2.30000e+01	
			         2.29167	-2.20000e+01	
			         2.29333	-2.20000e+01	
			         2.29500	-2.10000e+01	
			         2.29667	-2.10000e+01	
			         2.29833	-2.00000e+01	
			         2.30000	-2.00000e+01	
			         2.30167	-2.00000e+01	
			         2.30333	-1.90000e+01	
			         2.30500	-1.90000e+01	
			         2.30667	-1.90000e+01	
			         2.30833	-1.90000e+01	
			         2.31000	-1.90000e+01	
			         2.31167	-1.80000e+01	
			         2.31333	-1.80000e+01	
			         2.31500	-1.80000e+01	
			         2.31667	-1.70000e+01	
			         2.31833	-1.70000e+01	
			         2.32000	-1.60000e+01	
			         2.32167	-1.60000e+01	
			         2.32333	-1.50000e+01	
			         2.32500	-1.50000e+01	
			         2.32667	-1.50000e+01	
			         2.32833	-1.40000e+01	
			         2.33000	-1.40000e+01	
			         2.33167	-1.40000e+01	
			         2.33333	-1.30000e+01	
			         2.33500	-1.30000e+01	
			         2.33667	-1.30000e+01	
			         2.33833	-1.30000e+01	
			         2.34000	-1.30000e+01	
			         2.34167	-1.30000e+01	
			         2.34333	-1.30000e+01	
			         2.34500	-1.30000e+01	
			         2.34667	-1.30000e+01	
			         2.34833	-1.30000e+01	
			         2.35000	-1.30000e+01	
			         2.35167	-1.30000e+01	
			         2.35333	-1.30000e+01	
			         2.35500	-1.20000e+01	
			         2.35667	-1.20000e+01	
			         2.35833	-1.20000e+01	
			         2.36000	-1.20000e+01	
			         2.36167	-1.20000e+01	
			         2.36333	-1.10000e+01	
			         2.36500	-1.10000e+01	
			         2.36667	-1.10000e+01	
			         2.36833	-1.10000e+01	
			         2.37000	-1.10000e+01	
			         2.37167	-1.10000e+01	
			         2.37333	-1.00000e+01	
			         2.37500	-1.00000e+01	
			         2.37667	-1.00000e+01	
			         2.37833	-9.00000e+00	
			         2.38000	-8.00000e+00	
			         2.38167	-8.00000e+00	
			         2.38333	-7.00000e+00	
			         2.38500	-6.00000e+00	
			         2.38667	-6.00000e+00	
			         2.38833	-5.00000e+00	
			         2.39000	-5.00000e+00	
			         2.39167	-4.00000e+00	
			         2.39333	-4.00000e+00	
			         2.39500	-4.00000e+00	
			         2.39667	-4.00000e+00	
			         2.39833	-5.00000e+00	
			         2.40000	-5.00000e+00	
			         2.40167	-5.00000e+00	
			         2.40333	-6.00000e+00	
			         2.40500	-7.00000e+00	
			         2.40667	-7.00000e+00	
			         2.40833	-8.00000e+00	
			         2.41000	-9.00000e+00	
			         2.41167	-9.00000e+00	
			         2.41333	-9.00000e+00	
			         2.41500	-1.00000e+01	
			         2.41667	-1.00000e+01	
			         2.41833	-1.00000e+01	
			         2.42000	-1.00000e+01	
			         2.42167	-1.00000e+01	
			         2.42333	-9.00000e+00	
			         2.42500	-9.00000e+00	
			         2.42667	-8.00000e+00	
			         2.42833	-8.00000e+00	
			         2.43000	-8.00000e+00	
			         2.43167	-7.00000e+00	
			         2.43333	-7.00000e+00	
			         2.43500	-6.00000e+00	
			         2.43667	-6.00000e+00	
			         2.43833	-6.00000e+00	
			         2.44000	-5.00000e+00	
			         2.44167	-5.00000e+00	
			         2.44333	-5.00000e+00	
			         2.44500	-5.00000e+00	
			         2.44667	-5.00000e+00	
			         2.44833	-4.00000e+00	
			         2.45000	-4.00000e+00	
			         2.45167	-4.00000e+00	
			         2.45333	-4.00000e+00	
			         2.45500	-4.00000e+00	
			         2.45667	-4.00000e+00	
			         2.45833	-3.00000e+00	
			         2.46000	-3.00000e+00	
			         2.46167	-3.00000e+00	
			         2.46333	-3.00000e+00	
			         2.46500	-3.00000e+00	
			         2.46667	-4.00000e+00	
			         2.46833	-4.00000e+00	
			         2.47000	-4.00000e+00	
			         2.47167	-4.00000e+00	
			         2.47333	-4.00000e+00	
			         2.47500	-5.00000e+00	
			         2.47667	-5.00000e+00	
			         2.47833	-5.00000e+00	
			         2.48000	-6.00000e+00	
			         2.48167	-6.00000e+00	
			         2.48333	-7.00000e+00	
			         2.48500	-7.00000e+00	
			         2.48667	-7.00000e+00	
			         2.48833	-7.00000e+00	
			         2.49000	-7.00000e+00	
			         2.49167	-7.00000e+00	
			         2.49333	-7.00000e+00	
			         2.49500	-7.00000e+00	
			         2.49667	-7.00000e+00	
			         2.49833	-7.00000e+00	
			         2.50000	-7.00000e+00	
			         2.50167	-7.00000e+00	
			         2.50333	-7.00000e+00	
			         2.50500	-6.00000e+00	
			         2.50667	-6.00000e+00	
			         2.50833	-5.00000e+00	
			         2.51000	-5.00000e+00	
			         2.51167	-5.00000e+00	
			         2.51333	-4.00000e+00	
			         2.51500	-4.00000e+00	
			         2.51667	-4.00000e+00	
			         2.51833	-4.00000e+00	
			         2.52000	-3.00000e+00	
			         2.52167	-3.00000e+00	
			         2.52333	-3.00000e+00	
			         2.52500	-3.00000e+00	
			         2.52667	-4.00000e+00	
			         2.52833	-4.00000e+00	
			         2.53000	-4.00000e+00	
			         2.53167	-4.00000e+00	
			         2.53333	-4.00000e+00	
			         2.53500	-5.00000e+00	
			         2.53667	-5.00000e+00	
			         2.53833	-5.00000e+00	
			         2.54000	-5.00000e+00	
			         2.54167	-5.00000e+00	
			         2.54333	-4.00000e+00	
			         2.54500	-4.00000e+00	
			         2.54667	-4.00000e+00	
			         2.54833	-4.00000e+00	
			         2.55000	-3.00000e+00	
			         2.55167	-3.00000e+00	
			         2.55333	-3.00000e+00	
			         2.55500	-2.00000e+00	
			         2.55667	-2.00000e+00	
			         2.55833	-2.00000e+00	
			         2.56000	-2.00000e+00	
			         2.56167	-2.00000e+00	
			         2.56333	-2.00000e+00	
			         2.56500	-1.00000e+00	
			         2.56667	-1.00000e+00	
			         2.56833	-1.00000e+00	
			         2.57000	-1.00000e+00	
			         2.57167	0.00000e+00	
			         2.57333	0.00000e+00	
			         2.57500	1.00000e+00	
			         2.57667	2.00000e+00	
			         2.57833	2.00000e+00	
			         2.58000	3.00000e+00	
			         2.58167	4.00000e+00	
			         2.58333	4.00000e+00	
			         2.58500	5.00000e+00	
			         2.58667	5.00000e+00	
			         2.58833	6.00000e+00	
			         2.59000	7.00000e+00	
			         2.59167	7.00000e+00	
			         2.59333	8.00000e+00	
			         2.59500	9.00000e+00	
			         2.59667	1.00000e+01	
			         2.59833	1.10000e+01	
			         2.60000	1.20000e+01	
			         2.60167	1.30000e+01	
			         2.60333	1.40000e+01	
			         2.60500	1.60000e+01	
			         2.60667	1.70000e+01	
			         2.60833	1.80000e+01	
			         2.61000	1.90000e+01	
			         2.61167	2.00000e+01	
			         2.61333	2.10000e+01	
			         2.61500	2.10000e+01	
			         2.61667	2.20000e+01	
			         2.61833	2.20000e+01	
			         2.62000	2.20000e+01	
			         2.62167	2.10000e+01	
			         2.62333	2.00000e+01	
			         2.62500	1.90000e+01	
			         2.62667	1.80000e+01	
			         2.62833	1.70000e+01	
			         2.63000	1.60000e+01	
			         2.63167	1.50000e+01	
			         2.63333	1.30000e+01	
			         2.63500	1.20000e+01	
			         2.63667	1.10000e+01	
			         2.63833	1.00000e+01	
			         2.64000	9.00000e+00	
			         2.64167	8.00000e+00	
			         2.64333	7.00000e+00	
			         2.64500	6.00000e+00	
			         2.64667	5.00000e+00	
			         2.64833	4.00000e+00	
			         2.65000	2.00000e+00	
			         2.65167	1.00000e+00	
			         2.65333	-1.00000e+00	
			         2.65500	-3.00000e+00	
			         2.65667	-5.00000e+00	
			         2.65833	-7.00000e+00	
			         2.66000	-9.00000e+00	
			         2.66167	-1.10000e+01	
			         2.66333	-1.30000e+01	
			         2.66500	-1.40000e+01	
			         2.66667	-1.60000e+01	
			         2.66833	-1.70000e+01	
			         2.67000	-1.80000e+01	
			         2.67167	-1.90000e+01	
			         2.67333	-2.00000e+01	
			         2.67500	-2.00000e+01	
			         2.67667	-2.00000e+01	
			         2.67833	-2.10000e+01	
			         2.68000	-2.10000e+01	
			         2.68167	-2.10000e+01	
			         2.68333	-2.10000e+01	
			         2.68500	-2.00000e+01	
			         2.68667	-2.00000e+01	
			         2.68833	-2.00000e+01	
			         2.69000	-2.00000e+01	
			         2.69167	-2.00000e+01	
			         2.69333	-1.90000e+01	
			         2.69500	-1.90000e+01	
			         2.69667	-1.80000e+01	
			         2.69833	-1.80000e+01	
			         2.70000	-1.70000e+01	
			         2.70167	-1.70000e+01	
			         2.70333	-1.60000e+01	
			         2.70500	-1.50000e+01	
			         2.70667	-1.50000e+01	
			         2.70833	-1.40000e+01	
			         2.71000	-1.30000e+01	
			         2.71167	-1.30000e+01	
			         2.71333	-1.20000e+01	
			         2.71500	-1.20000e+01	
			         2.71667	-1.10000e+01	
			         2.71833	-1.10000e+01	
			         2.72000	-1.00000e+01	
			         2.72167	-1.00000e+01	
			         2.72333	-1.00000e+01	
			         2.72500	-9.00000e+00	
			         2.72667	-9.00000e+00	
			         2.72833	-9.00000e+00	
			         2.73000	-8.00000e+00	
			         2.73167	-8.00000e+00	
			         2.73333	-8.00000e+00	
			         2.73500	-7.00000e+00	
			         2.73667	-7.00000e+00	
			         2.73833	-7.00000e+00	
			         2.74000	-7.00000e+00	
			         2.74167	-7.00000e+00	
			         2.74333	-8.00000e+00	
			         2.74500	-8.00000e+00	
			         2.74667	-9.00000e+00	
			         2.74833	-1.10000e+01	
			         2.75000	-1.40000e+01	
			         2.75167	-1.60000e+01	
			         2.75333	-2.00000e+01	
			         2.75500	-2.30000e+01	
			         2.75667	-2.70000e+01	
			         2.75833	-3.00000e+01	
			         2.76000	-3.10000e+01	
			         2.76167	-3.20000e+01	
			         2.76333	-3.00000e+01	
			         2.76500	-2.60000e+01	
			         2.76667	-1.90000e+01	
			         2.76833	-8.00000e+00	
			         2.77000	7.00000e+00	
			         2.77167	2.60000e+01	
			         2.77333	4.90000e+01	
			         2.77500	7.50000e+01	
			         2.77667	1.06000e+02	
			         2.77833	1.39000e+02	
			         2.78000	1.74000e+02	
			         2.78167	2.11000e+02	
			         2.78333	2.47000e+02	
			         2.78500	2.81000e+02	
			         2.78667	3.13000e+02	
			         2.78833	3.42000e+02	
			         2.79000	3.66000e+02	
			         2.79167	3.86000e+02	
			         2.79333	4.00000e+02	
			         2.79500	4.08000e+02	
			         2.79667	4.10000e+02	
			         2.79833	4.06000e+02	
			         2.80000	3.95000e+02	
			         2.80167	3.79000e+02	
			         2.80333	3.57000e+02	
			         2.80500	3.31000e+02	
			         2.80667	3.01000e+02	
			         2.80833	2.68000e+02	
			         2.81000	2.33000e+02	
			         2.81167	1.97000e+02	
			         2.81333	1.60000e+02	
			         2.81500	1.24000e+02	
			         2.81667	8.80000e+01	
			         2.81833	5.40000e+01	
			         2.82000	2.20000e+01	
			         2.82167	-7.00000e+00	
			         2.82333	-3.30000e+01	
			         2.82500	-5.60000e+01	
			         2.82667	-7.50000e+01	
			         2.82833	-9.10000e+01	
			         2.83000	-1.04000e+02	
			         2.83167	-1.14000e+02	
			         2.83333	-1.21000e+02	
			         2.83500	-1.27000e+02	
