Velocity (TVI), in cm/s

Time (s) :	Trace 1 : 		Ecg : 		
0.01125   	-5.90765e-01		         0.00000	5.00000e+00	
0.01748   	-1.88099e-01		         0.00167	9.00000e+00	
0.02371   	2.05371e-01		         0.00333	1.30000e+01	
0.02995   	1.10543e+00		         0.00500	1.80000e+01	
0.03620   	2.10578e+00		         0.00667	2.40000e+01	
0.04242   	2.82302e+00		         0.00833	3.00000e+01	
0.04865   	3.53292e+00		         0.01000	3.70000e+01	
0.05488   	3.83736e+00		         0.01167	4.60000e+01	
0.06112   	3.59072e+00		         0.01333	5.50000e+01	
0.06735   	3.48404e+00		         0.01500	6.50000e+01	
0.07359   	3.15934e+00		         0.01667	7.60000e+01	
0.07982   	2.62823e+00		         0.01833	8.60000e+01	
0.08608   	2.25917e+00		         0.02000	9.70000e+01	
0.09229   	2.05023e+00		         0.02167	1.07000e+02	
0.09852   	1.42062e+00		         0.02333	1.17000e+02	
0.10476   	1.03277e+00		         0.02500	1.26000e+02	
0.11102   	8.89739e-01		         0.02667	1.34000e+02	
0.11723   	9.47180e-01		         0.02833	1.41000e+02	
0.12347   	1.14343e+00		         0.03000	1.48000e+02	
0.12970   	1.59686e+00		         0.03167	1.53000e+02	
0.13594   	2.10731e+00		         0.03333	1.57000e+02	
0.14216   	2.48518e+00		         0.03500	1.61000e+02	
0.14840   	2.75067e+00		         0.03667	1.63000e+02	
0.15463   	2.97507e+00		         0.03833	1.65000e+02	
0.16090   	3.14357e+00		         0.04000	1.65000e+02	
0.16710   	3.21202e+00		         0.04167	1.65000e+02	
0.17334   	3.20276e+00		         0.04333	1.63000e+02	
0.17957   	3.22894e+00		         0.04500	1.60000e+02	
0.18583   	3.23532e+00		         0.04667	1.56000e+02	
0.19204   	3.14021e+00		         0.04833	1.50000e+02	
0.19827   	3.03882e+00		         0.05000	1.43000e+02	
0.20451   	3.02742e+00		         0.05167	1.35000e+02	
0.21076   	2.97680e+00		         0.05333	1.25000e+02	
0.21698   	2.92198e+00		         0.05500	1.14000e+02	
0.22321   	2.95300e+00		         0.05667	1.02000e+02	
0.22945   	2.97403e+00		         0.05833	9.00000e+01	
0.23569   	2.96065e+00		         0.06000	7.60000e+01	
0.24191   	2.95286e+00		         0.06167	6.30000e+01	
0.24815   	2.95253e+00		         0.06333	4.90000e+01	
0.25438   	2.93100e+00		         0.06500	3.60000e+01	
0.26064   	2.89137e+00		         0.06667	2.20000e+01	
0.26685   	2.87508e+00		         0.06833	9.00000e+00	
0.27309   	2.84268e+00		         0.07000	-4.00000e+00	
0.27932   	2.80106e+00		         0.07167	-1.60000e+01	
0.28557   	2.73283e+00		         0.07333	-2.80000e+01	
0.29179   	2.67699e+00		         0.07500	-4.00000e+01	
0.29802   	2.61077e+00		         0.07667	-5.00000e+01	
0.30426   	2.54865e+00		         0.07833	-6.00000e+01	
0.31051   	2.46546e+00		         0.08000	-6.90000e+01	
0.31673   	2.38973e+00		         0.08167	-7.80000e+01	
0.32296   	2.32285e+00		         0.08333	-8.50000e+01	
0.32920   	2.23170e+00		         0.08500	-9.20000e+01	
0.33544   	2.13599e+00		         0.08667	-9.80000e+01	
0.34166   	2.05230e+00		         0.08833	-1.02000e+02	
0.34790   	1.96569e+00		         0.09000	-1.06000e+02	
0.35413   	1.84657e+00		         0.09167	-1.08000e+02	
0.36038   	1.72191e+00		         0.09333	-1.10000e+02	
0.36660   	1.61531e+00		         0.09500	-1.10000e+02	
0.37284   	1.48233e+00		         0.09667	-1.08000e+02	
0.37907   	1.33189e+00		         0.09833	-1.06000e+02	
0.38532   	1.14704e+00		         0.10000	-1.03000e+02	
0.39154   	9.47112e-01		         0.10167	-1.00000e+02	
0.39777   	6.38083e-01		         0.10333	-9.50000e+01	
0.40401   	2.87303e-01		         0.10500	-9.10000e+01	
0.41026   	-1.06291e-01		         0.10667	-8.60000e+01	
0.41685   	-5.20310e-01		         0.10833	-8.10000e+01	
0.42271   	-9.68165e-01		         0.11000	-7.50000e+01	
0.42895   	-1.42294e+00		         0.11167	-7.10000e+01	
0.43519   	-1.87347e+00		         0.11333	-6.60000e+01	
0.44141   	-2.28000e+00		         0.11500	-6.20000e+01	
0.44765   	-2.40730e+00		         0.11667	-5.80000e+01	
0.45389   	-2.30294e+00		         0.11833	-5.50000e+01	
0.46015   	-2.10774e+00		         0.12000	-5.20000e+01	
0.46663   	-1.78672e+00		         0.12167	-5.00000e+01	
0.47259   	-1.38212e+00		         0.12333	-4.80000e+01	
0.47882   	-1.11134e+00		         0.12500	-4.60000e+01	
0.48508   	-9.72013e-01		         0.12667	-4.50000e+01	
0.49129   	-7.69034e-01		         0.12833	-4.40000e+01	
0.49752   	-6.53021e-01		         0.13000	-4.30000e+01	
0.50376   	-4.93000e-01		         0.13167	-4.20000e+01	
0.51001   	-3.70522e-01		         0.13333	-4.10000e+01	
0.51639   	-2.76732e-01		         0.13500	-4.00000e+01	
0.52246   	-2.11008e-01		         0.13667	-3.90000e+01	
0.52870   	-1.64018e-01		         0.13833	-3.70000e+01	
0.53495   	-2.07941e-01		         0.14000	-3.60000e+01	
0.54116   	-4.18717e-01		         0.14167	-3.50000e+01	
0.54740   	-6.49558e-01		         0.14333	-3.40000e+01	
0.55363   	-9.36695e-01		         0.14500	-3.30000e+01	
0.55989   	-1.28278e+00		         0.14667	-3.20000e+01	
0.56625   	-1.72149e+00		         0.14833	-3.10000e+01	
0.57233   	-2.08022e+00		         0.15000	-3.10000e+01	
0.57857   	-2.48041e+00		         0.15167	-3.00000e+01	
0.58481   	-2.75009e+00		         0.15333	-2.90000e+01	
0.59104   	-2.89144e+00		         0.15500	-2.90000e+01	
0.59727   	-2.89473e+00		         0.15667	-2.90000e+01	
0.60351   	-2.84768e+00		         0.15833	-2.80000e+01	
0.60977   	-2.62794e+00		         0.16000	-2.80000e+01	
0.61607   	-2.50160e+00		         0.16167	-2.70000e+01	
0.62221   	-2.36521e+00		         0.16333	-2.70000e+01	
0.62844   	-2.23735e+00		         0.16500	-2.60000e+01	
0.63469   	-2.09707e+00		         0.16667	-2.50000e+01	
0.64091   	-2.00503e+00		         0.16833	-2.40000e+01	
0.64715   	-1.87052e+00		         0.17000	-2.30000e+01	
0.65339   	-1.73961e+00		         0.17167	-2.20000e+01	
0.65964   	-1.60401e+00		         0.17333	-2.10000e+01	
0.66586   	-1.39540e+00		         0.17500	-2.00000e+01	
0.67208   	-1.21336e+00		         0.17667	-1.90000e+01	
0.67832   	-1.01037e+00		         0.17833	-1.80000e+01	
0.68457   	-8.28103e-01		         0.18000	-1.70000e+01	
0.69079   	-6.48646e-01		         0.18167	-1.60000e+01	
0.69702   	-5.04064e-01		         0.18333	-1.50000e+01	
0.70326   	-3.55005e-01		         0.18500	-1.40000e+01	
0.70950   	-2.50608e-01		         0.18667	-1.30000e+01	
0.71572   	-1.33355e-01		         0.18833	-1.20000e+01	
0.72196   	-3.83321e-02		         0.19000	-1.20000e+01	
0.72819   	4.04000e-02		         0.19167	-1.10000e+01	
0.73446   	8.15804e-02		         0.19333	-1.00000e+01	
0.74066   	1.17190e-01		         0.19500	-9.00000e+00	
0.74689   	1.40821e-01		         0.19667	-8.00000e+00	
0.75313   	1.40495e-01		         0.19833	-7.00000e+00	
0.75938   	8.83997e-02		         0.20000	-7.00000e+00	
0.76560   	3.87115e-02		         0.20167	-6.00000e+00	
0.77183   	-2.45645e-02		         0.20333	-5.00000e+00	
0.77807   	-8.94428e-02		         0.20500	-5.00000e+00	
0.78431   	-1.35329e-01		         0.20667	-4.00000e+00	
0.79054   	-1.46832e-01		         0.20833	-4.00000e+00	
0.79677   	-1.49757e-01		         0.21000	-3.00000e+00	
0.80301   	-1.44044e-01		         0.21167	-3.00000e+00	
0.80927   	-1.40363e-01		         0.21333	-3.00000e+00	
0.81550   	-1.41132e-01		         0.21500	-3.00000e+00	
0.82171   	-1.42143e-01		         0.21667	-3.00000e+00	
0.82794   	-1.43273e-01		         0.21833	-3.00000e+00	
0.83420   	-1.46107e-01		         0.22000	-3.00000e+00	
0.84041   	-1.45506e-01		         0.22167	-2.00000e+00	
0.84664   	-1.49826e-01		         0.22333	-2.00000e+00	
0.85288   	-1.47998e-01		         0.22500	-1.00000e+00	
0.85911   	-1.45657e-01		         0.22667	0.00000e+00	
0.86535   	-1.46005e-01		         0.22833	0.00000e+00	
0.87158   	-1.47730e-01		         0.23000	1.00000e+00	
0.87782   	-1.41561e-01		         0.23167	2.00000e+00	
0.88406   	-1.44204e-01		         0.23333	3.00000e+00	
0.89029   	-1.51852e-01		         0.23500	4.00000e+00	
0.89652   	-1.52340e-01		         0.23667	4.00000e+00	
0.90276   	-1.54521e-01		         0.23833	5.00000e+00	
0.90901   	-1.58558e-01		         0.24000	6.00000e+00	
0.91522   	-1.58214e-01		         0.24167	7.00000e+00	
0.92146   	-1.59931e-01		         0.24333	7.00000e+00	
0.92769   	-1.63707e-01		         0.24500	8.00000e+00	
0.93394   	-1.63707e-01		         0.24667	9.00000e+00	
0.94016   	-1.63577e-01		         0.24833	9.00000e+00	
0.94639   	-1.67339e-01		         0.25000	1.00000e+01	
0.95263   	-1.67339e-01		         0.25167	1.10000e+01	
0.95887   	-1.67351e-01		         0.25333	1.20000e+01	
0.96510   	-1.67351e-01		         0.25500	1.30000e+01	
0.97133   	-1.67351e-01		         0.25667	1.40000e+01	
0.97757   	-1.62559e-01		         0.25833	1.50000e+01	
0.98381   	-1.62559e-01		         0.26000	1.70000e+01	
0.99004   	-1.62547e-01		         0.26167	1.80000e+01	
0.99627   	-1.62192e-01		         0.26333	1.90000e+01	
1.00251   	-1.60475e-01		         0.26500	2.00000e+01	
1.00877   	-1.60132e-01		         0.26667	2.10000e+01	
1.01497   	-1.74140e-01		         0.26833	2.20000e+01	
1.02121   	-1.95646e-01		         0.27000	2.30000e+01	
1.02744   	-2.31414e-01		         0.27167	2.30000e+01	
1.03370   	-3.44306e-01		         0.27333	2.40000e+01	
1.03991   	-5.91343e-01		         0.27500	2.50000e+01	
1.04614   	-1.10069e+00		         0.27667	2.50000e+01	
1.05238   	-1.90730e+00		         0.27833	2.60000e+01	
1.05863   	-2.97875e+00		         0.28000	2.70000e+01	
1.06485   	-4.16382e+00		         0.28167	2.80000e+01	
1.07108   	-5.33384e+00		         0.28333	2.90000e+01	
1.07731   	-6.31097e+00		         0.28500	3.00000e+01	
1.08357   	-7.02902e+00		         0.28667	3.10000e+01	
1.08978   	-7.39923e+00		         0.28833	3.30000e+01	
1.09602   	-7.46177e+00		         0.29000	3.40000e+01	
1.10226   	-7.29252e+00		         0.29167	3.60000e+01	
1.10851   	-6.80207e+00		         0.29333	3.70000e+01	
1.11472   	-6.11761e+00		         0.29500	3.90000e+01	
1.12096   	-5.31780e+00		         0.29667	4.10000e+01	
1.12719   	-4.45777e+00		         0.29833	4.20000e+01	
1.13345   	-3.56302e+00		         0.30000	4.40000e+01	
1.13966   	-2.85738e+00		         0.30167	4.50000e+01	
1.14589   	-2.22981e+00		         0.30333	4.70000e+01	
1.15213   	-1.68117e+00		         0.30500	4.90000e+01	
1.15839   	-1.12468e+00		         0.30667	5.00000e+01	
1.16460   	-5.28568e-01		         0.30833	5.10000e+01	
1.17083   	1.41161e-01		         0.31000	5.20000e+01	
1.17707   	9.37402e-01		         0.31167	5.40000e+01	
1.18331   	1.84903e+00		         0.31333	5.50000e+01	
1.18953   	2.70638e+00		         0.31500	5.60000e+01	
1.19577   	3.36781e+00		         0.31667	5.80000e+01	
1.20200   	3.74179e+00		         0.31833	5.90000e+01	
1.20825   	3.64681e+00		         0.32000	6.00000e+01	
1.21447   	3.58207e+00		         0.32167	6.20000e+01	
1.22071   	3.19101e+00		         0.32333	6.30000e+01	
1.22694   	2.63506e+00		         0.32500	6.50000e+01	
1.23319   	2.28615e+00		         0.32667	6.60000e+01	
1.23941   	2.13750e+00		         0.32833	6.70000e+01	
1.24564   	1.74237e+00		         0.33000	6.90000e+01	
1.25188   	1.30450e+00		         0.33167	7.00000e+01	
1.25812   	1.13136e+00		         0.33333	7.00000e+01	
1.26435   	1.19189e+00		         0.33500	7.10000e+01	
1.27058   	1.30329e+00		         0.33667	7.20000e+01	
1.27682   	1.65397e+00		         0.33833	7.20000e+01	
1.28306   	2.24169e+00		         0.34000	7.30000e+01	
1.28928   	2.78520e+00		         0.34167	7.30000e+01	
1.29552   	3.09146e+00		         0.34333	7.30000e+01	
1.30176   	3.36692e+00		         0.34500	7.30000e+01	
1.30800   	3.38810e+00		         0.34667	7.30000e+01	
1.31422   	3.43167e+00		         0.34833	7.30000e+01	
1.32046   	3.40128e+00		         0.35000	7.30000e+01	
1.32669   	3.36021e+00		         0.35167	7.30000e+01	
1.33295   	3.32000e+00		         0.35333	7.30000e+01	
1.33916   	3.29184e+00		         0.35500	7.30000e+01	
1.34539   	3.25171e+00		         0.35667	7.30000e+01	
1.35163   	3.24149e+00		         0.35833	7.20000e+01	
1.35789   	3.17562e+00		         0.36000	7.20000e+01	
1.36409   	3.17784e+00		         0.36167	7.10000e+01	
1.37033   	3.19790e+00		         0.36333	7.10000e+01	
1.37656   	3.19412e+00		         0.36500	7.00000e+01	
1.38282   	3.16509e+00		         0.36667	6.80000e+01	
1.38903   	3.16050e+00		         0.36833	6.70000e+01	
1.39527   	3.12545e+00		         0.37000	6.50000e+01	
1.40150   	3.06883e+00		         0.37167	6.30000e+01	
1.40775   	3.00979e+00		         0.37333	6.10000e+01	
1.41397   	2.93017e+00		         0.37500	5.80000e+01	
1.42021   	2.85793e+00		         0.37667	5.50000e+01	
1.42644   	2.79269e+00		         0.37833	5.20000e+01	
1.43270   	2.72354e+00		         0.38000	4.90000e+01	
1.43891   	2.64014e+00		         0.38167	4.50000e+01	
1.44514   	2.59446e+00		         0.38333	4.10000e+01	
1.45138   	2.52308e+00		         0.38500	3.70000e+01	
1.45762   	2.42708e+00		         0.38667	3.30000e+01	
1.46384   	2.34199e+00		         0.38833	2.90000e+01	
1.47008   	2.27449e+00		         0.39000	2.50000e+01	
1.47631   	2.20074e+00		         0.39167	2.00000e+01	
1.48257   	2.13134e+00		         0.39333	1.60000e+01	
1.48878   	2.07169e+00		         0.39500	1.20000e+01	
1.49501   	1.97537e+00		         0.39667	8.00000e+00	
1.50126   	1.86622e+00		         0.39833	5.00000e+00	
1.50751   	1.74526e+00		         0.40000	1.00000e+00	
1.51372   	1.63352e+00		         0.40167	-2.00000e+00	
1.51996   	1.45640e+00		         0.40333	-5.00000e+00	
1.52619   	1.26640e+00		         0.40500	-8.00000e+00	
1.53245   	1.04253e+00		         0.40667	-1.10000e+01	
1.53866   	7.69042e-01		         0.40833	-1.40000e+01	
1.54489   	4.35083e-01		         0.41000	-1.70000e+01	
1.55113   	9.91887e-02		         0.41167	-1.90000e+01	
1.55737   	-2.83618e-01		         0.41333	-2.20000e+01	
1.56359   	-6.97368e-01		         0.41500	-2.50000e+01	
1.56983   	-1.16859e+00		         0.41667	-2.70000e+01	
1.57606   	-1.65451e+00		         0.41833	-3.00000e+01	
1.58232   	-2.14136e+00		         0.42000	-3.20000e+01	
1.58853   	-2.54989e+00		         0.42167	-3.40000e+01	
1.59477   	-2.65686e+00		         0.42333	-3.60000e+01	
1.60101   	-2.57890e+00		         0.42500	-3.80000e+01	
1.60727   	-2.36410e+00		         0.42667	-4.00000e+01	
1.61347   	-2.02585e+00		         0.42833	-4.10000e+01	
1.61970   	-1.57095e+00		         0.43000	-4.30000e+01	
1.62594   	-1.30356e+00		         0.43167	-4.40000e+01	
1.63220   	-1.06613e+00		         0.43333	-4.50000e+01	
1.63841   	-8.00521e-01		         0.43500	-4.50000e+01	
1.64464   	-5.70106e-01		         0.43667	-4.60000e+01	
1.65088   	-3.81631e-01		         0.43833	-4.60000e+01	
1.65712   	-2.24430e-01		         0.44000	-4.70000e+01	
1.66334   	-1.03211e-01		         0.44167	-4.70000e+01	
1.66958   	2.18488e-03		         0.44333	-4.70000e+01	
1.67581   	8.76507e-02		         0.44500	-4.70000e+01	
1.68206   	5.80365e-02		         0.44667	-4.70000e+01	
1.68828   	-9.99297e-02		         0.44833	-4.70000e+01	
1.69451   	-3.10263e-01		         0.45000	-4.70000e+01	
1.70075   	-6.87217e-01		         0.45167	-4.70000e+01	
1.70701   	-1.04965e+00		         0.45333	-4.70000e+01	
1.71322   	-1.50317e+00		         0.45500	-4.60000e+01	
1.71945   	-1.85645e+00		         0.45667	-4.60000e+01	
1.72569   	-2.19890e+00		         0.45833	-4.50000e+01	
1.73194   	-2.45756e+00		         0.46000	-4.50000e+01	
1.73816   	-2.68660e+00		         0.46167	-4.40000e+01	
1.74439   	-2.73406e+00		         0.46333	-4.40000e+01	
1.75063   	-2.73107e+00		         0.46500	-4.30000e+01	
1.75689   	-2.66865e+00		         0.46667	-4.30000e+01	
1.76309   	-2.55817e+00		         0.46833	-4.20000e+01	
1.76933   	-2.42155e+00		         0.47000	-4.10000e+01	
1.77556   	-2.32009e+00		         0.47167	-4.10000e+01	
1.78181   	-2.18028e+00		         0.47333	-4.00000e+01	
1.78803   	-2.00871e+00		         0.47500	-4.00000e+01	
1.79426   	-1.81678e+00		         0.47667	-3.90000e+01	
1.80050   	-1.61718e+00		         0.47833	-3.90000e+01	
1.80675   	-1.39266e+00		         0.48000	-3.80000e+01	
1.81297   	-1.19097e+00		         0.48167	-3.80000e+01	
1.81921   	-1.00637e+00		         0.48333	-3.70000e+01	
1.82544   	-8.38159e-01		         0.48500	-3.70000e+01	
1.83170   	-7.21507e-01		         0.48667	-3.70000e+01	
1.83791   	-5.93347e-01		         0.48833	-3.60000e+01	
1.84414   	-4.82059e-01		         0.49000	-3.60000e+01	
1.85038   	-3.88972e-01		         0.49167	-3.60000e+01	
1.85662   	-3.19847e-01		         0.49333	-3.60000e+01	
1.86284   	-2.45628e-01		         0.49500	-3.50000e+01	
1.86908   	-1.89309e-01		         0.49667	-3.50000e+01	
1.87531   	-1.18200e-01		         0.49833	-3.50000e+01	
1.88156   	-6.31791e-02		         0.50000	-3.50000e+01	
1.88778   	2.45994e-03		         0.50167	-3.50000e+01	
1.89402   	5.19969e-02		         0.50333	-3.50000e+01	
1.90025   	8.34642e-02		         0.50500	-3.50000e+01	
1.90651   	9.06109e-02		         0.50667	-3.40000e+01	
1.91272   	9.77951e-02		         0.50833	-3.40000e+01	
1.91895   	5.00757e-02		         0.51000	-3.40000e+01	
1.92519   	2.06514e-02		         0.51167	-3.30000e+01	
1.93143   	-2.01408e-02		         0.51333	-3.30000e+01	
1.93766   	-5.77461e-02		         0.51500	-3.20000e+01	
1.94423   	-1.01877e-01		         0.51667	-3.20000e+01	
1.95013   	-9.26283e-02		         0.51833	-3.10000e+01	
1.95639   	-1.09319e-01		         0.52000	-3.00000e+01	
1.96259   	-1.15789e-01		         0.52167	-2.90000e+01	
1.96883   	-1.28444e-01		         0.52333	-2.80000e+01	
1.97506   	-1.21254e-01		         0.52500	-2.70000e+01	
1.98131   	-1.37002e-01		         0.52667	-2.60000e+01	
1.98753   	-1.39308e-01		         0.52833	-2.60000e+01	
1.99397   	-1.40646e-01		         0.53000	-2.50000e+01	
2.00000   	-1.46058e-01		         0.53167	-2.40000e+01	
2.00626   	-1.55015e-01		         0.53333	-2.30000e+01	
2.01247   	-1.54862e-01		         0.53500	-2.30000e+01	
2.01870   	-1.48251e-01		         0.53667	-2.20000e+01	
2.02494   	-1.52719e-01		         0.53833	-2.20000e+01	
2.03120   	-1.47458e-01		         0.54000	-2.10000e+01	
2.03740   	-1.43165e-01		         0.54167	-2.10000e+01	
2.04384   	-1.38327e-01		         0.54333	-2.10000e+01	
2.04988   	-1.43692e-01		         0.54500	-2.10000e+01	
2.05612   	-1.38976e-01		         0.54667	-2.10000e+01	
2.06234   	-1.43639e-01		         0.54833	-2.10000e+01	
2.06858   	-1.38500e-01		         0.55000	-2.10000e+01	
2.07481   	-1.45563e-01		         0.55167	-2.10000e+01	
2.08106   	-1.48883e-01		         0.55333	-2.20000e+01	
2.08728   	-1.48494e-01		         0.55500	-2.20000e+01	
2.09370   	-1.45096e-01		         0.55667	-2.20000e+01	
2.09975   	-1.52571e-01		         0.55833	-2.20000e+01	
2.10600   	-1.51198e-01		         0.56000	-2.10000e+01	
2.11222   	-1.52899e-01		         0.56167	-2.10000e+01	
2.11845   	-1.54228e-01		         0.56333	-2.10000e+01	
2.12469   	-1.59499e-01		         0.56500	-2.00000e+01	
2.13095   	-1.57723e-01		         0.56667	-2.00000e+01	
2.13715   	-1.55604e-01		         0.56833	-1.90000e+01	
2.14345   	-1.44906e-01		         0.57000	-1.90000e+01	
2.14963   	-1.48042e-01		         0.57167	-1.80000e+01	
2.15588   	-1.45070e-01		         0.57333	-1.70000e+01	
2.16209   	-1.49183e-01		         0.57500	-1.70000e+01	
2.16833   	-1.73303e-01		         0.57667	-1.60000e+01	
2.17456   	-2.44164e-01		         0.57833	-1.50000e+01	
2.18080   	-3.70739e-01		         0.58000	-1.50000e+01	
2.18703   	-6.90730e-01		         0.58167	-1.40000e+01	
2.19327   	-1.27476e+00		         0.58333	-1.40000e+01	
2.19950   	-2.14137e+00		         0.58500	-1.30000e+01	
2.20575   	-3.22653e+00		         0.58667	-1.30000e+01	
2.21196   	-4.42124e+00		         0.58833	-1.20000e+01	
2.21820   	-5.53406e+00		         0.59000	-1.20000e+01	
2.22443   	-6.36587e+00		         0.59167	-1.10000e+01	
2.23069   	-6.99758e+00		         0.59333	-1.10000e+01	
2.23691   	-7.31749e+00		         0.59500	-1.00000e+01	
2.24314   	-7.37999e+00		         0.59667	-1.00000e+01	
2.24937   	-7.16519e+00		         0.59833	-9.00000e+00	
2.25562   	-6.77842e+00		         0.60000	-9.00000e+00	
2.26184   	-6.08675e+00		         0.60167	-8.00000e+00	
2.26807   	-5.28655e+00		         0.60333	-8.00000e+00	
2.27431   	-4.44884e+00		         0.60500	-8.00000e+00	
2.28055   	-3.58591e+00		         0.60667	-7.00000e+00	
2.28678   	-2.84225e+00		         0.60833	-7.00000e+00	
2.29301   	-2.23807e+00		         0.61000	-7.00000e+00	
2.29925   	-1.59844e+00		         0.61167	-6.00000e+00	
2.30551   	-1.06046e+00		         0.61333	-6.00000e+00	
2.31171   	-6.13572e-01		         0.61500	-6.00000e+00	
2.31795   	6.97746e-02		         0.61667	-5.00000e+00	
2.32418   	9.47436e-01		         0.61833	-5.00000e+00	
2.33044   	1.79226e+00		         0.62000	-5.00000e+00	
2.33665   	2.71572e+00		         0.62167	-4.00000e+00	
2.34289   	3.54786e+00		         0.62333	-4.00000e+00	
2.34913   	3.88049e+00		         0.62500	-4.00000e+00	
2.35537   	3.80109e+00		         0.62667	-4.00000e+00	
2.36159   	3.70378e+00		         0.62833	-4.00000e+00	
2.36782   	3.33841e+00		         0.63000	-4.00000e+00	
2.37406   	2.81749e+00		         0.63167	-4.00000e+00	
2.38031   	2.43854e+00		         0.63333	-4.00000e+00	
2.38653   	2.20715e+00		         0.63500	-5.00000e+00	
2.39276   	1.70852e+00		         0.63667	-5.00000e+00	
2.39900   	1.42407e+00		         0.63833	-5.00000e+00	
2.40524   	1.30986e+00		         0.64000	-5.00000e+00	
2.41146   	1.28346e+00		         0.64167	-6.00000e+00	
2.41770   	1.30593e+00		         0.64333	-6.00000e+00	
2.42393   	1.71016e+00		         0.64500	-6.00000e+00	
2.43019   	2.13471e+00		         0.64667	-6.00000e+00	
2.43640   	2.56365e+00		         0.64833	-5.00000e+00	
2.44263   	2.94822e+00		         0.65000	-5.00000e+00	
2.44887   	3.30526e+00		         0.65167	-5.00000e+00	
2.45512   	3.41171e+00		         0.65333	-4.00000e+00	
2.46134   	3.44771e+00		         0.65500	-4.00000e+00	
2.46757   	3.44623e+00		         0.65667	-4.00000e+00	
2.47381   	3.41288e+00		         0.65833	-3.00000e+00	
2.48008   	3.36692e+00		         0.66000	-3.00000e+00	
2.48627   	3.31669e+00		         0.66167	-3.00000e+00	
2.49251   	3.26323e+00		         0.66333	-2.00000e+00	
2.49875   	3.17720e+00		         0.66500	-2.00000e+00	
2.50501   	3.16655e+00		         0.66667	-1.00000e+00	
2.51122   	3.15649e+00		         0.66833	-1.00000e+00	
2.51745   	3.15340e+00		         0.67000	0.00000e+00	
2.52368   	3.13678e+00		         0.67167	0.00000e+00	
2.52994   	3.15137e+00		         0.67333	0.00000e+00	
2.53615   	3.13628e+00		         0.67500	1.00000e+00	
2.54238   	3.09129e+00		         0.67667	1.00000e+00	
2.54862   	3.00687e+00		         0.67833	1.00000e+00	
2.55488   	2.94670e+00		         0.68000	1.00000e+00	
2.56109   	2.87738e+00		         0.68167	1.00000e+00	
2.56732   	2.79389e+00		         0.68333	1.00000e+00	
2.57356   	2.73828e+00		         0.68500	1.00000e+00	
2.57981   	2.65704e+00		         0.68667	1.00000e+00	
2.58603   	2.57224e+00		         0.68833	0.00000e+00	
2.59226   	2.49632e+00		         0.69000	0.00000e+00	
2.59850   	2.41453e+00		         0.69167	-1.00000e+00	
2.60474   	2.32704e+00		         0.69333	-1.00000e+00	
2.61096   	2.26489e+00		         0.69500	-2.00000e+00	
2.61720   	2.19789e+00		         0.69667	-2.00000e+00	
2.62343   	2.12204e+00		         0.69833	-2.00000e+00	
2.62970   	2.04511e+00		         0.70000	-2.00000e+00	
2.63590   	1.95672e+00		         0.70167	-2.00000e+00	
2.64214   	1.90283e+00		         0.70333	-2.00000e+00	
2.64837   	1.80662e+00		         0.70500	-2.00000e+00	
2.65464   	1.70227e+00		         0.70667	-1.00000e+00	
2.66084   	1.58366e+00		         0.70833	-1.00000e+00	
2.66707   	1.42590e+00		         0.71000	0.00000e+00	
2.67331   	1.22336e+00		         0.71167	0.00000e+00	
2.67955   	9.92971e-01		         0.71333	1.00000e+00	
2.68578   	7.30111e-01		         0.71500	2.00000e+00	
2.69201   	4.00815e-01		         0.71667	2.00000e+00	
2.69825   	3.61305e-02		         0.71833	2.00000e+00	
2.70450   	-4.00254e-01		         0.72000	3.00000e+00	
2.71071   	-8.56193e-01		         0.72167	3.00000e+00	
2.71695   	-1.34985e+00		         0.72333	3.00000e+00	
2.72318   	-1.85316e+00		         0.72500	3.00000e+00	
2.72943   	-2.32670e+00		         0.72667	2.00000e+00	
2.73565   	-2.69150e+00		         0.72833	2.00000e+00	
2.74188   	-2.77490e+00		         0.73000	2.00000e+00	
2.74813   	-2.45767e+00		         0.73167	2.00000e+00	
2.75437   	-2.10066e+00		         0.73333	1.00000e+00	
2.76059   	-1.70805e+00		         0.73500	1.00000e+00	
2.76682   	-1.28419e+00		         0.73667	0.00000e+00	
2.77306   	-9.75393e-01		         0.73833	0.00000e+00	
2.77931   	-9.55709e-01		         0.74000	0.00000e+00	
2.78553   	-8.13546e-01		         0.74167	0.00000e+00	
2.79176   	-5.83262e-01		         0.74333	0.00000e+00	
2.79800   	-3.69033e-01		         0.74500	0.00000e+00	
2.80425   	-1.66965e-01		         0.74667	0.00000e+00	
2.81046   	-1.99342e-03		         0.74833	0.00000e+00	
2.81670   	1.33154e-01		         0.75000	-1.00000e+00	
2.82293   	1.55065e-01		         0.75167	-1.00000e+00	
2.82919   	1.37491e-02		         0.75333	-1.00000e+00	
2.83540   	-2.40849e-01		         0.75500	-1.00000e+00	
2.84163   	-4.53556e-01		         0.75667	-1.00000e+00	
2.84787   	-9.44200e-01		         0.75833	-1.00000e+00	
2.85412   	-1.30996e+00		         0.76000	-1.00000e+00	
2.86034   	-1.59114e+00		         0.76167	-1.00000e+00	
2.86657   	-1.84894e+00		         0.76333	-1.00000e+00	
2.87281   	-2.17577e+00		         0.76500	-1.00000e+00	
2.87906   	-2.26613e+00		         0.76667	0.00000e+00	
2.88527   	-2.42169e+00		         0.76833	0.00000e+00	
2.89151   	-2.49560e+00		         0.77000	0.00000e+00	
2.89774   	-2.51630e+00		         0.77167	1.00000e+00	
2.90399   	-2.45854e+00		         0.77333	1.00000e+00	
2.91021   	-2.33430e+00		         0.77500	2.00000e+00	
2.91645   	-2.22951e+00		         0.77667	2.00000e+00	
2.92268   	-2.10008e+00		         0.77833	2.00000e+00	
2.92893   	-1.97883e+00		         0.78000	3.00000e+00	
2.93515   	-1.85512e+00		         0.78167	3.00000e+00	
2.94138   	-1.70564e+00		         0.78333	3.00000e+00	
2.94762   	-1.52152e+00		         0.78500	3.00000e+00	
2.95386   	-1.33995e+00		         0.78667	3.00000e+00	
2.96009   	-1.15221e+00		         0.78833	2.00000e+00	
2.96632   	-9.38849e-01		         0.79000	2.00000e+00	
2.97256   	-7.65874e-01		         0.79167	2.00000e+00	
2.97881   	-6.13488e-01		         0.79333	1.00000e+00	
2.98502   	-4.76459e-01		         0.79500	1.00000e+00	
2.99126   	-3.53274e-01		         0.79667	1.00000e+00	
2.99750   	-2.80857e-01		         0.79833	1.00000e+00	
3.00374   	-2.23175e-01		         0.80000	1.00000e+00	
3.00996   	-1.53081e-01		         0.80167	1.00000e+00	
3.01620   	-9.96214e-02		         0.80333	1.00000e+00	
3.02243   	-5.32677e-02		         0.80500	1.00000e+00	
3.02868   	3.88519e-03		         0.80667	1.00000e+00	
3.03490   	3.67448e-02		         0.80833	1.00000e+00	
3.04113   	6.43812e-02		         0.81000	1.00000e+00	
3.04737   	8.48069e-02		         0.81167	1.00000e+00	
3.05362   	1.03684e-01		         0.81333	1.00000e+00	
3.05984   	1.01231e-01		         0.81500	1.00000e+00	
3.06607   	9.69566e-02		         0.81667	2.00000e+00	
3.07230   	4.02786e-02		         0.81833	2.00000e+00	
3.07856   	-1.53236e-02		         0.82000	2.00000e+00	
3.08477   	-6.88884e-02		         0.82167	2.00000e+00	
3.09101   	-1.19020e-01		         0.82333	2.00000e+00	
3.09725   	-1.57819e-01		         0.82500	2.00000e+00	
3.10348   	-1.58458e-01		         0.82667	2.00000e+00	
3.10971   	-1.59831e-01		         0.82833	2.00000e+00	
3.11595   	-1.60163e-01		         0.83000	3.00000e+00	
3.12218   	-1.60494e-01		         0.83167	3.00000e+00	
3.12844   	-1.61174e-01		         0.83333	3.00000e+00	
3.13465   	-1.59801e-01		         0.83500	3.00000e+00	
3.14088   	-1.56024e-01		         0.83667	3.00000e+00	
3.14711   	-1.55681e-01		         0.83833	3.00000e+00	
3.15336   	-1.55338e-01		         0.84000	3.00000e+00	
3.15959   	-1.55646e-01		         0.84167	3.00000e+00	
3.16582   	-1.55221e-01		         0.84333	3.00000e+00	
3.17205   	-1.58924e-01		         0.84500	3.00000e+00	
3.17830   	-1.59279e-01		         0.84667	3.00000e+00	
3.18452   	-1.57906e-01		         0.84833	3.00000e+00	
3.19076   	-1.58971e-01		         0.85000	3.00000e+00	
3.19699   	-1.61112e-01		         0.85167	3.00000e+00	
3.20324   	-1.61872e-01		         0.85333	3.00000e+00	
3.20946   	-1.61505e-01		         0.85500	2.00000e+00	
3.21569   	-1.62878e-01		         0.85667	2.00000e+00	
3.22193   	-1.62536e-01		         0.85833	2.00000e+00	
3.22818   	-1.60478e-01		         0.86000	2.00000e+00	
3.23440   	-1.59758e-01		         0.86167	2.00000e+00	
3.24063   	-1.60113e-01		         0.86333	1.00000e+00	
3.24687   	-1.58740e-01		         0.86500	1.00000e+00	
3.25311   	-1.57697e-01		         0.86667	1.00000e+00	
3.25933   	-1.59412e-01		         0.86833	1.00000e+00	
3.26557   	-1.59789e-01		         0.87000	1.00000e+00	
3.27180   	-1.59789e-01		         0.87167	0.00000e+00	
3.27805   	-1.61505e-01		         0.87333	0.00000e+00	
3.28427   	-1.63233e-01		         0.87500	0.00000e+00	
3.29051   	-1.63577e-01		         0.87667	-1.00000e+00	
3.29674   	-1.63920e-01		         0.87833	-1.00000e+00	
3.30299   	-1.63920e-01		         0.88000	-2.00000e+00	
3.30922   	-1.70072e-01		         0.88167	-2.00000e+00	
3.31544   	-1.91610e-01		         0.88333	-3.00000e+00	
3.32168   	-2.19769e-01		         0.88500	-3.00000e+00	
3.32793   	-3.01183e-01		         0.88667	-4.00000e+00	
3.33415   	-4.99763e-01		         0.88833	-4.00000e+00	
3.34038   	-9.38750e-01		         0.89000	-4.00000e+00	
3.34662   	-1.69316e+00		         0.89167	-4.00000e+00	
3.35286   	-2.73285e+00		         0.89333	-4.00000e+00	
3.35908   	-3.91992e+00		         0.89500	-4.00000e+00	
3.36532   	-5.10998e+00		         0.89667	-4.00000e+00	
3.37155   	-6.12083e+00		         0.89833	-4.00000e+00	
3.37781   	-6.81780e+00		         0.90000	-4.00000e+00	
3.38402   	-7.24647e+00		         0.90167	-3.00000e+00	
3.39026   	-7.35416e+00		         0.90333	-3.00000e+00	
3.39649   	-7.25783e+00		         0.90500	-2.00000e+00	
3.40273   	-6.93048e+00		         0.90667	-2.00000e+00	
3.40896   	-6.38112e+00		         0.90833	-2.00000e+00	
3.41519   	-5.61644e+00		         0.91000	-1.00000e+00	
3.42143   	-4.74767e+00		         0.91167	-1.00000e+00	
3.42769   	-3.83778e+00		         0.91333	-1.00000e+00	
3.43390   	-3.03183e+00		         0.91500	-1.00000e+00	
3.44013   	-2.44082e+00		         0.91667	-1.00000e+00	
3.44637   	-1.85076e+00		         0.91833	-1.00000e+00	
3.45262   	-1.40354e+00		         0.92000	-1.00000e+00	
3.45884   	-8.83387e-01		         0.92167	-1.00000e+00	
3.46507   	-3.20936e-01		         0.92333	-1.00000e+00	
3.47149   	6.63099e-01		         0.92500	-1.00000e+00	
3.47755   	1.46498e+00		         0.92667	-1.00000e+00	
3.48377   	2.42363e+00		         0.92833	-1.00000e+00	
3.49001   	2.89834e+00		         0.93000	-1.00000e+00	
3.49625   	3.51949e+00		         0.93167	-1.00000e+00	
			         0.93333	-1.00000e+00	
			         0.93500	-1.00000e+00	
			         0.93667	0.00000e+00	
			         0.93833	0.00000e+00	
			         0.94000	0.00000e+00	
			         0.94167	1.00000e+00	
			         0.94333	1.00000e+00	
			         0.94500	2.00000e+00	
			         0.94667	2.00000e+00	
			         0.94833	2.00000e+00	
			         0.95000	2.00000e+00	
			         0.95167	2.00000e+00	
			         0.95333	2.00000e+00	
			         0.95500	2.00000e+00	
			         0.95667	2.00000e+00	
			         0.95833	1.00000e+00	
			         0.96000	1.00000e+00	
			         0.96167	1.00000e+00	
			         0.96333	2.00000e+00	
			         0.96500	2.00000e+00	
			         0.96667	3.00000e+00	
			         0.96833	4.00000e+00	
			         0.97000	5.00000e+00	
			         0.97167	6.00000e+00	
			         0.97333	8.00000e+00	
			         0.97500	1.00000e+01	
			         0.97667	1.30000e+01	
			         0.97833	1.50000e+01	
			         0.98000	1.80000e+01	
			         0.98167	2.10000e+01	
			         0.98333	2.40000e+01	
			         0.98500	2.80000e+01	
			         0.98667	3.10000e+01	
			         0.98833	3.40000e+01	
			         0.99000	3.80000e+01	
			         0.99167	4.00000e+01	
			         0.99333	4.30000e+01	
			         0.99500	4.40000e+01	
			         0.99667	4.60000e+01	
			         0.99833	4.60000e+01	
			         1.00000	4.60000e+01	
			         1.00167	4.60000e+01	
			         1.00333	4.60000e+01	
			         1.00500	4.50000e+01	
			         1.00667	4.30000e+01	
			         1.00833	4.20000e+01	
			         1.01000	4.00000e+01	
			         1.01167	3.90000e+01	
			         1.01333	3.80000e+01	
			         1.01500	3.70000e+01	
			         1.01667	3.70000e+01	
			         1.01833	3.70000e+01	
			         1.02000	3.60000e+01	
			         1.02167	3.60000e+01	
			         1.02333	3.60000e+01	
			         1.02500	3.50000e+01	
			         1.02667	3.40000e+01	
			         1.02833	3.20000e+01	
			         1.03000	3.00000e+01	
			         1.03167	2.80000e+01	
			         1.03333	2.50000e+01	
			         1.03500	2.20000e+01	
			         1.03667	1.80000e+01	
			         1.03833	1.50000e+01	
			         1.04000	1.10000e+01	
			         1.04167	8.00000e+00	
			         1.04333	4.00000e+00	
			         1.04500	1.00000e+00	
			         1.04667	-1.00000e+00	
			         1.04833	-3.00000e+00	
			         1.05000	-5.00000e+00	
			         1.05167	-6.00000e+00	
			         1.05333	-7.00000e+00	
			         1.05500	-8.00000e+00	
			         1.05667	-9.00000e+00	
			         1.05833	-9.00000e+00	
			         1.06000	-1.00000e+01	
			         1.06167	-1.10000e+01	
			         1.06333	-1.20000e+01	
			         1.06500	-1.30000e+01	
			         1.06667	-1.50000e+01	
			         1.06833	-1.60000e+01	
			         1.07000	-1.80000e+01	
			         1.07167	-2.00000e+01	
			         1.07333	-2.20000e+01	
			         1.07500	-2.40000e+01	
			         1.07667	-2.60000e+01	
			         1.07833	-2.70000e+01	
			         1.08000	-2.90000e+01	
			         1.08167	-3.00000e+01	
			         1.08333	-3.10000e+01	
			         1.08500	-3.20000e+01	
			         1.08667	-3.20000e+01	
			         1.08833	-3.30000e+01	
			         1.09000	-3.30000e+01	
			         1.09167	-3.30000e+01	
			         1.09333	-3.30000e+01	
			         1.09500	-3.20000e+01	
			         1.09667	-3.20000e+01	
			         1.09833	-3.10000e+01	
			         1.10000	-3.00000e+01	
			         1.10167	-2.90000e+01	
			         1.10333	-2.80000e+01	
			         1.10500	-2.70000e+01	
			         1.10667	-2.60000e+01	
			         1.10833	-2.50000e+01	
			         1.11000	-2.40000e+01	
			         1.11167	-2.40000e+01	
			         1.11333	-2.30000e+01	
			         1.11500	-2.20000e+01	
			         1.11667	-2.10000e+01	
			         1.11833	-2.00000e+01	
			         1.12000	-1.90000e+01	
			         1.12167	-1.80000e+01	
			         1.12333	-1.80000e+01	
			         1.12500	-1.70000e+01	
			         1.12667	-1.70000e+01	
			         1.12833	-1.60000e+01	
			         1.13000	-1.60000e+01	
			         1.13167	-1.50000e+01	
			         1.13333	-1.40000e+01	
			         1.13500	-1.40000e+01	
			         1.13667	-1.30000e+01	
			         1.13833	-1.10000e+01	
			         1.14000	-1.00000e+01	
			         1.14167	-8.00000e+00	
			         1.14333	-6.00000e+00	
			         1.14500	-3.00000e+00	
			         1.14667	0.00000e+00	
			         1.14833	4.00000e+00	
			         1.15000	8.00000e+00	
			         1.15167	1.40000e+01	
			         1.15333	2.00000e+01	
			         1.15500	2.70000e+01	
			         1.15667	3.50000e+01	
			         1.15833	4.40000e+01	
			         1.16000	5.40000e+01	
			         1.16167	6.40000e+01	
			         1.16333	7.40000e+01	
			         1.16500	8.50000e+01	
			         1.16667	9.50000e+01	
			         1.16833	1.05000e+02	
			         1.17000	1.14000e+02	
			         1.17167	1.22000e+02	
			         1.17333	1.30000e+02	
			         1.17500	1.36000e+02	
			         1.17667	1.42000e+02	
			         1.17833	1.46000e+02	
			         1.18000	1.50000e+02	
			         1.18167	1.52000e+02	
			         1.18333	1.54000e+02	
			         1.18500	1.55000e+02	
			         1.18667	1.55000e+02	
			         1.18833	1.54000e+02	
			         1.19000	1.52000e+02	
			         1.19167	1.49000e+02	
			         1.19333	1.45000e+02	
			         1.19500	1.39000e+02	
			         1.19667	1.32000e+02	
			         1.19833	1.24000e+02	
			         1.20000	1.15000e+02	
			         1.20167	1.05000e+02	
			         1.20333	9.40000e+01	
			         1.20500	8.20000e+01	
			         1.20667	7.00000e+01	
			         1.20833	5.80000e+01	
			         1.21000	4.50000e+01	
			         1.21167	3.20000e+01	
			         1.21333	2.00000e+01	
			         1.21500	7.00000e+00	
			         1.21667	-5.00000e+00	
			         1.21833	-1.70000e+01	
			         1.22000	-2.90000e+01	
			         1.22167	-4.00000e+01	
			         1.22333	-5.00000e+01	
			         1.22500	-6.00000e+01	
			         1.22667	-7.00000e+01	
			         1.22833	-7.80000e+01	
			         1.23000	-8.60000e+01	
			         1.23167	-9.20000e+01	
			         1.23333	-9.80000e+01	
			         1.23500	-1.02000e+02	
			         1.23667	-1.06000e+02	
			         1.23833	-1.08000e+02	
			         1.24000	-1.09000e+02	
			         1.24167	-1.09000e+02	
			         1.24333	-1.07000e+02	
			         1.24500	-1.05000e+02	
			         1.24667	-1.02000e+02	
			         1.24833	-9.80000e+01	
			         1.25000	-9.40000e+01	
			         1.25167	-8.90000e+01	
			         1.25333	-8.40000e+01	
			         1.25500	-7.90000e+01	
			         1.25667	-7.40000e+01	
			         1.25833	-7.00000e+01	
			         1.26000	-6.50000e+01	
			         1.26167	-6.20000e+01	
			         1.26333	-5.80000e+01	
			         1.26500	-5.60000e+01	
			         1.26667	-5.40000e+01	
			         1.26833	-5.20000e+01	
			         1.27000	-5.10000e+01	
			         1.27167	-5.00000e+01	
			         1.27333	-5.00000e+01	
			         1.27500	-4.90000e+01	
			         1.27667	-4.90000e+01	
			         1.27833	-4.90000e+01	
			         1.28000	-4.90000e+01	
			         1.28167	-4.90000e+01	
			         1.28333	-4.90000e+01	
			         1.28500	-4.80000e+01	
			         1.28667	-4.80000e+01	
			         1.28833	-4.70000e+01	
			         1.29000	-4.60000e+01	
			         1.29167	-4.50000e+01	
			         1.29333	-4.30000e+01	
			         1.29500	-4.20000e+01	
			         1.29667	-4.00000e+01	
			         1.29833	-3.90000e+01	
			         1.30000	-3.70000e+01	
			         1.30167	-3.60000e+01	
			         1.30333	-3.40000e+01	
			         1.30500	-3.30000e+01	
			         1.30667	-3.20000e+01	
			         1.30833	-3.10000e+01	
			         1.31000	-3.00000e+01	
			         1.31167	-3.00000e+01	
			         1.31333	-2.90000e+01	
			         1.31500	-2.90000e+01	
			         1.31667	-2.80000e+01	
			         1.31833	-2.80000e+01	
			         1.32000	-2.70000e+01	
			         1.32167	-2.70000e+01	
			         1.32333	-2.70000e+01	
			         1.32500	-2.60000e+01	
			         1.32667	-2.60000e+01	
			         1.32833	-2.50000e+01	
			         1.33000	-2.40000e+01	
			         1.33167	-2.30000e+01	
			         1.33333	-2.30000e+01	
			         1.33500	-2.10000e+01	
			         1.33667	-2.00000e+01	
			         1.33833	-1.90000e+01	
			         1.34000	-1.80000e+01	
			         1.34167	-1.70000e+01	
			         1.34333	-1.60000e+01	
			         1.34500	-1.40000e+01	
			         1.34667	-1.30000e+01	
			         1.34833	-1.20000e+01	
			         1.35000	-1.10000e+01	
			         1.35167	-1.10000e+01	
			         1.35333	-1.00000e+01	
			         1.35500	-9.00000e+00	
			         1.35667	-9.00000e+00	
			         1.35833	-8.00000e+00	
			         1.36000	-8.00000e+00	
			         1.36167	-8.00000e+00	
			         1.36333	-7.00000e+00	
			         1.36500	-7.00000e+00	
			         1.36667	-7.00000e+00	
			         1.36833	-7.00000e+00	
			         1.37000	-7.00000e+00	
			         1.37167	-6.00000e+00	
			         1.37333	-6.00000e+00	
			         1.37500	-6.00000e+00	
			         1.37667	-6.00000e+00	
			         1.37833	-6.00000e+00	
			         1.38000	-6.00000e+00	
			         1.38167	-6.00000e+00	
			         1.38333	-5.00000e+00	
			         1.38500	-5.00000e+00	
			         1.38667	-5.00000e+00	
			         1.38833	-4.00000e+00	
			         1.39000	-4.00000e+00	
			         1.39167	-4.00000e+00	
			         1.39333	-3.00000e+00	
			         1.39500	-3.00000e+00	
			         1.39667	-2.00000e+00	
			         1.39833	-1.00000e+00	
			         1.40000	-1.00000e+00	
			         1.40167	0.00000e+00	
			         1.40333	1.00000e+00	
			         1.40500	2.00000e+00	
			         1.40667	2.00000e+00	
			         1.40833	3.00000e+00	
			         1.41000	4.00000e+00	
			         1.41167	5.00000e+00	
			         1.41333	6.00000e+00	
			         1.41500	7.00000e+00	
			         1.41667	9.00000e+00	
			         1.41833	1.00000e+01	
			         1.42000	1.10000e+01	
			         1.42167	1.30000e+01	
			         1.42333	1.50000e+01	
			         1.42500	1.60000e+01	
			         1.42667	1.80000e+01	
			         1.42833	2.00000e+01	
			         1.43000	2.20000e+01	
			         1.43167	2.30000e+01	
			         1.43333	2.50000e+01	
			         1.43500	2.60000e+01	
			         1.43667	2.80000e+01	
			         1.43833	2.90000e+01	
			         1.44000	3.10000e+01	
			         1.44167	3.20000e+01	
			         1.44333	3.40000e+01	
			         1.44500	3.60000e+01	
			         1.44667	3.80000e+01	
			         1.44833	4.00000e+01	
			         1.45000	4.20000e+01	
			         1.45167	4.40000e+01	
			         1.45333	4.60000e+01	
			         1.45500	4.80000e+01	
			         1.45667	5.00000e+01	
			         1.45833	5.20000e+01	
			         1.46000	5.40000e+01	
			         1.46167	5.70000e+01	
			         1.46333	5.90000e+01	
			         1.46500	6.00000e+01	
			         1.46667	6.20000e+01	
			         1.46833	6.40000e+01	
			         1.47000	6.60000e+01	
			         1.47167	6.70000e+01	
			         1.47333	6.90000e+01	
			         1.47500	7.00000e+01	
			         1.47667	7.10000e+01	
			         1.47833	7.20000e+01	
			         1.48000	7.30000e+01	
			         1.48167	7.40000e+01	
			         1.48333	7.50000e+01	
			         1.48500	7.60000e+01	
			         1.48667	7.60000e+01	
			         1.48833	7.70000e+01	
			         1.49000	7.70000e+01	
			         1.49167	7.80000e+01	
			         1.49333	7.80000e+01	
			         1.49500	7.80000e+01	
			         1.49667	7.80000e+01	
			         1.49833	7.80000e+01	
			         1.50000	7.80000e+01	
			         1.50167	7.70000e+01	
			         1.50333	7.70000e+01	
			         1.50500	7.60000e+01	
			         1.50667	7.50000e+01	
			         1.50833	7.40000e+01	
			         1.51000	7.20000e+01	
			         1.51167	7.10000e+01	
			         1.51333	6.90000e+01	
			         1.51500	6.70000e+01	
			         1.51667	6.50000e+01	
			         1.51833	6.30000e+01	
			         1.52000	6.10000e+01	
			         1.52167	5.80000e+01	
			         1.52333	5.60000e+01	
			         1.52500	5.30000e+01	
			         1.52667	5.00000e+01	
			         1.52833	4.70000e+01	
			         1.53000	4.40000e+01	
			         1.53167	4.00000e+01	
			         1.53333	3.60000e+01	
			         1.53500	3.20000e+01	
			         1.53667	2.80000e+01	
			         1.53833	2.40000e+01	
			         1.54000	1.90000e+01	
			         1.54167	1.50000e+01	
			         1.54333	1.00000e+01	
			         1.54500	6.00000e+00	
			         1.54667	1.00000e+00	
			         1.54833	-3.00000e+00	
			         1.55000	-7.00000e+00	
			         1.55167	-1.10000e+01	
			         1.55333	-1.50000e+01	
			         1.55500	-1.80000e+01	
			         1.55667	-2.10000e+01	
			         1.55833	-2.40000e+01	
			         1.56000	-2.70000e+01	
			         1.56167	-3.00000e+01	
			         1.56333	-3.20000e+01	
			         1.56500	-3.40000e+01	
			         1.56667	-3.60000e+01	
			         1.56833	-3.70000e+01	
			         1.57000	-3.90000e+01	
			         1.57167	-4.10000e+01	
			         1.57333	-4.20000e+01	
			         1.57500	-4.30000e+01	
			         1.57667	-4.40000e+01	
			         1.57833	-4.40000e+01	
			         1.58000	-4.50000e+01	
			         1.58167	-4.60000e+01	
			         1.58333	-4.60000e+01	
			         1.58500	-4.60000e+01	
			         1.58667	-4.70000e+01	
			         1.58833	-4.70000e+01	
			         1.59000	-4.70000e+01	
			         1.59167	-4.70000e+01	
			         1.59333	-4.80000e+01	
			         1.59500	-4.80000e+01	
			         1.59667	-4.80000e+01	
			         1.59833	-4.80000e+01	
			         1.60000	-4.80000e+01	
			         1.60167	-4.80000e+01	
			         1.60333	-4.80000e+01	
			         1.60500	-4.80000e+01	
			         1.60667	-4.80000e+01	
			         1.60833	-4.80000e+01	
			         1.61000	-4.70000e+01	
			         1.61167	-4.70000e+01	
			         1.61333	-4.60000e+01	
			         1.61500	-4.60000e+01	
			         1.61667	-4.50000e+01	
			         1.61833	-4.40000e+01	
			         1.62000	-4.30000e+01	
			         1.62167	-4.20000e+01	
			         1.62333	-4.20000e+01	
			         1.62500	-4.10000e+01	
			         1.62667	-4.00000e+01	
			         1.62833	-3.90000e+01	
			         1.63000	-3.90000e+01	
			         1.63167	-3.80000e+01	
			         1.63333	-3.80000e+01	
			         1.63500	-3.70000e+01	
			         1.63667	-3.70000e+01	
			         1.63833	-3.60000e+01	
			         1.64000	-3.50000e+01	
			         1.64167	-3.50000e+01	
			         1.64333	-3.40000e+01	
			         1.64500	-3.40000e+01	
			         1.64667	-3.30000e+01	
			         1.64833	-3.20000e+01	
			         1.65000	-3.20000e+01	
			         1.65167	-3.10000e+01	
			         1.65333	-3.00000e+01	
			         1.65500	-3.00000e+01	
			         1.65667	-3.00000e+01	
			         1.65833	-2.90000e+01	
			         1.66000	-2.90000e+01	
			         1.66167	-2.90000e+01	
			         1.66333	-2.90000e+01	
			         1.66500	-2.90000e+01	
			         1.66667	-2.90000e+01	
			         1.66833	-2.90000e+01	
			         1.67000	-2.90000e+01	
			         1.67167	-2.90000e+01	
			         1.67333	-2.80000e+01	
			         1.67500	-2.80000e+01	
			         1.67667	-2.80000e+01	
			         1.67833	-2.70000e+01	
			         1.68000	-2.60000e+01	
			         1.68167	-2.50000e+01	
			         1.68333	-2.50000e+01	
			         1.68500	-2.40000e+01	
			         1.68667	-2.30000e+01	
			         1.68833	-2.20000e+01	
			         1.69000	-2.10000e+01	
			         1.69167	-2.00000e+01	
			         1.69333	-1.90000e+01	
			         1.69500	-1.80000e+01	
			         1.69667	-1.70000e+01	
			         1.69833	-1.70000e+01	
			         1.70000	-1.70000e+01	
			         1.70167	-1.60000e+01	
			         1.70333	-1.60000e+01	
			         1.70500	-1.60000e+01	
			         1.70667	-1.50000e+01	
			         1.70833	-1.50000e+01	
			         1.71000	-1.50000e+01	
			         1.71167	-1.50000e+01	
			         1.71333	-1.40000e+01	
			         1.71500	-1.40000e+01	
			         1.71667	-1.40000e+01	
			         1.71833	-1.30000e+01	
			         1.72000	-1.30000e+01	
			         1.72167	-1.20000e+01	
			         1.72333	-1.20000e+01	
			         1.72500	-1.20000e+01	
			         1.72667	-1.10000e+01	
			         1.72833	-1.10000e+01	
			         1.73000	-1.10000e+01	
			         1.73167	-1.10000e+01	
			         1.73333	-1.10000e+01	
			         1.73500	-1.10000e+01	
			         1.73667	-1.10000e+01	
			         1.73833	-1.10000e+01	
			         1.74000	-1.10000e+01	
			         1.74167	-1.10000e+01	
			         1.74333	-1.10000e+01	
			         1.74500	-1.10000e+01	
			         1.74667	-1.10000e+01	
			         1.74833	-1.10000e+01	
			         1.75000	-1.00000e+01	
			         1.75167	-1.00000e+01	
			         1.75333	-1.00000e+01	
			         1.75500	-9.00000e+00	
			         1.75667	-9.00000e+00	
			         1.75833	-8.00000e+00	
			         1.76000	-8.00000e+00	
			         1.76167	-7.00000e+00	
			         1.76333	-7.00000e+00	
			         1.76500	-7.00000e+00	
			         1.76667	-7.00000e+00	
			         1.76833	-7.00000e+00	
			         1.77000	-7.00000e+00	
			         1.77167	-7.00000e+00	
			         1.77333	-7.00000e+00	
			         1.77500	-8.00000e+00	
			         1.77667	-8.00000e+00	
			         1.77833	-9.00000e+00	
			         1.78000	-9.00000e+00	
			         1.78167	-9.00000e+00	
			         1.78333	-9.00000e+00	
			         1.78500	-1.00000e+01	
			         1.78667	-1.00000e+01	
			         1.78833	-1.00000e+01	
			         1.79000	-1.00000e+01	
			         1.79167	-9.00000e+00	
			         1.79333	-9.00000e+00	
			         1.79500	-9.00000e+00	
			         1.79667	-8.00000e+00	
			         1.79833	-8.00000e+00	
			         1.80000	-7.00000e+00	
			         1.80167	-7.00000e+00	
			         1.80333	-6.00000e+00	
			         1.80500	-6.00000e+00	
			         1.80667	-6.00000e+00	
			         1.80833	-6.00000e+00	
			         1.81000	-6.00000e+00	
			         1.81167	-6.00000e+00	
			         1.81333	-6.00000e+00	
			         1.81500	-6.00000e+00	
			         1.81667	-6.00000e+00	
			         1.81833	-6.00000e+00	
			         1.82000	-7.00000e+00	
			         1.82167	-7.00000e+00	
			         1.82333	-7.00000e+00	
			         1.82500	-7.00000e+00	
			         1.82667	-7.00000e+00	
			         1.82833	-7.00000e+00	
			         1.83000	-8.00000e+00	
			         1.83167	-8.00000e+00	
			         1.83333	-8.00000e+00	
			         1.83500	-8.00000e+00	
			         1.83667	-8.00000e+00	
			         1.83833	-8.00000e+00	
			         1.84000	-8.00000e+00	
			         1.84167	-8.00000e+00	
			         1.84333	-8.00000e+00	
			         1.84500	-8.00000e+00	
			         1.84667	-8.00000e+00	
			         1.84833	-8.00000e+00	
			         1.85000	-8.00000e+00	
			         1.85167	-7.00000e+00	
			         1.85333	-7.00000e+00	
			         1.85500	-7.00000e+00	
			         1.85667	-7.00000e+00	
			         1.85833	-7.00000e+00	
			         1.86000	-7.00000e+00	
			         1.86167	-7.00000e+00	
			         1.86333	-7.00000e+00	
			         1.86500	-7.00000e+00	
			         1.86667	-6.00000e+00	
			         1.86833	-6.00000e+00	
			         1.87000	-6.00000e+00	
			         1.87167	-6.00000e+00	
			         1.87333	-6.00000e+00	
			         1.87500	-5.00000e+00	
			         1.87667	-5.00000e+00	
			         1.87833	-5.00000e+00	
			         1.88000	-4.00000e+00	
			         1.88167	-4.00000e+00	
			         1.88333	-3.00000e+00	
			         1.88500	-3.00000e+00	
			         1.88667	-2.00000e+00	
			         1.88833	-2.00000e+00	
			         1.89000	-2.00000e+00	
			         1.89167	-2.00000e+00	
			         1.89333	-2.00000e+00	
			         1.89500	-2.00000e+00	
			         1.89667	-2.00000e+00	
			         1.89833	-2.00000e+00	
			         1.90000	-2.00000e+00	
			         1.90167	-2.00000e+00	
			         1.90333	-2.00000e+00	
			         1.90500	-2.00000e+00	
			         1.90667	-2.00000e+00	
			         1.90833	-2.00000e+00	
			         1.91000	-2.00000e+00	
			         1.91167	-1.00000e+00	
			         1.91333	-1.00000e+00	
			         1.91500	-1.00000e+00	
			         1.91667	-1.00000e+00	
			         1.91833	-1.00000e+00	
			         1.92000	-1.00000e+00	
			         1.92167	0.00000e+00	
			         1.92333	0.00000e+00	
			         1.92500	0.00000e+00	
			         1.92667	1.00000e+00	
			         1.92833	1.00000e+00	
			         1.93000	2.00000e+00	
			         1.93167	2.00000e+00	
			         1.93333	2.00000e+00	
			         1.93500	3.00000e+00	
			         1.93667	3.00000e+00	
			         1.93833	3.00000e+00	
			         1.94000	3.00000e+00	
			         1.94167	3.00000e+00	
			         1.94333	3.00000e+00	
			         1.94500	2.00000e+00	
			         1.94667	2.00000e+00	
			         1.94833	2.00000e+00	
			         1.95000	2.00000e+00	
			         1.95167	2.00000e+00	
			         1.95333	2.00000e+00	
			         1.95500	2.00000e+00	
			         1.95667	2.00000e+00	
			         1.95833	2.00000e+00	
			         1.96000	2.00000e+00	
			         1.96167	2.00000e+00	
			         1.96333	3.00000e+00	
			         1.96500	3.00000e+00	
			         1.96667	3.00000e+00	
			         1.96833	3.00000e+00	
			         1.97000	3.00000e+00	
			         1.97167	3.00000e+00	
			         1.97333	3.00000e+00	
			         1.97500	2.00000e+00	
			         1.97667	2.00000e+00	
			         1.97833	2.00000e+00	
			         1.98000	2.00000e+00	
			         1.98167	2.00000e+00	
			         1.98333	2.00000e+00	
			         1.98500	2.00000e+00	
			         1.98667	2.00000e+00	
			         1.98833	2.00000e+00	
			         1.99000	2.00000e+00	
			         1.99167	2.00000e+00	
			         1.99333	2.00000e+00	
			         1.99500	1.00000e+00	
			         1.99667	1.00000e+00	
			         1.99833	0.00000e+00	
			         2.00000	0.00000e+00	
			         2.00167	-1.00000e+00	
			         2.00333	-1.00000e+00	
			         2.00500	-2.00000e+00	
			         2.00667	-3.00000e+00	
			         2.00833	-3.00000e+00	
			         2.01000	-4.00000e+00	
			         2.01167	-4.00000e+00	
			         2.01333	-4.00000e+00	
			         2.01500	-4.00000e+00	
			         2.01667	-4.00000e+00	
			         2.01833	-4.00000e+00	
			         2.02000	-4.00000e+00	
			         2.02167	-4.00000e+00	
			         2.02333	-4.00000e+00	
			         2.02500	-4.00000e+00	
			         2.02667	-4.00000e+00	
			         2.02833	-4.00000e+00	
			         2.03000	-4.00000e+00	
			         2.03167	-4.00000e+00	
			         2.03333	-5.00000e+00	
			         2.03500	-5.00000e+00	
			         2.03667	-5.00000e+00	
			         2.03833	-5.00000e+00	
			         2.04000	-6.00000e+00	
			         2.04167	-6.00000e+00	
			         2.04333	-6.00000e+00	
			         2.04500	-6.00000e+00	
			         2.04667	-6.00000e+00	
			         2.04833	-6.00000e+00	
			         2.05000	-6.00000e+00	
			         2.05167	-5.00000e+00	
			         2.05333	-5.00000e+00	
			         2.05500	-5.00000e+00	
			         2.05667	-5.00000e+00	
			         2.05833	-5.00000e+00	
			         2.06000	-5.00000e+00	
			         2.06167	-4.00000e+00	
			         2.06333	-4.00000e+00	
			         2.06500	-4.00000e+00	
			         2.06667	-4.00000e+00	
			         2.06833	-4.00000e+00	
			         2.07000	-4.00000e+00	
			         2.07167	-4.00000e+00	
			         2.07333	-4.00000e+00	
			         2.07500	-3.00000e+00	
			         2.07667	-3.00000e+00	
			         2.07833	-3.00000e+00	
			         2.08000	-3.00000e+00	
			         2.08167	-3.00000e+00	
			         2.08333	-3.00000e+00	
			         2.08500	-3.00000e+00	
			         2.08667	-3.00000e+00	
			         2.08833	-3.00000e+00	
			         2.09000	-2.00000e+00	
			         2.09167	-2.00000e+00	
			         2.09333	-1.00000e+00	
			         2.09500	-1.00000e+00	
			         2.09667	-1.00000e+00	
			         2.09833	-1.00000e+00	
			         2.10000	-1.00000e+00	
			         2.10167	0.00000e+00	
			         2.10333	0.00000e+00	
			         2.10500	0.00000e+00	
			         2.10667	0.00000e+00	
			         2.10833	0.00000e+00	
			         2.11000	1.00000e+00	
			         2.11167	1.00000e+00	
			         2.11333	2.00000e+00	
			         2.11500	3.00000e+00	
			         2.11667	4.00000e+00	
			         2.11833	5.00000e+00	
			         2.12000	6.00000e+00	
			         2.12167	8.00000e+00	
			         2.12333	1.00000e+01	
			         2.12500	1.20000e+01	
			         2.12667	1.40000e+01	
			         2.12833	1.60000e+01	
			         2.13000	1.90000e+01	
			         2.13167	2.10000e+01	
			         2.13333	2.40000e+01	
			         2.13500	2.60000e+01	
			         2.13667	2.80000e+01	
			         2.13833	3.00000e+01	
			         2.14000	3.20000e+01	
			         2.14167	3.30000e+01	
			         2.14333	3.40000e+01	
			         2.14500	3.50000e+01	
			         2.14667	3.50000e+01	
			         2.14833	3.40000e+01	
			         2.15000	3.40000e+01	
			         2.15167	3.30000e+01	
			         2.15333	3.20000e+01	
			         2.15500	3.20000e+01	
			         2.15667	3.10000e+01	
			         2.15833	3.00000e+01	
			         2.16000	3.00000e+01	
			         2.16167	2.90000e+01	
			         2.16333	2.90000e+01	
			         2.16500	2.80000e+01	
			         2.16667	2.80000e+01	
			         2.16833	2.80000e+01	
			         2.17000	2.70000e+01	
			         2.17167	2.60000e+01	
			         2.17333	2.40000e+01	
			         2.17500	2.20000e+01	
			         2.17667	1.90000e+01	
			         2.17833	1.70000e+01	
			         2.18000	1.40000e+01	
			         2.18167	1.00000e+01	
			         2.18333	7.00000e+00	
			         2.18500	3.00000e+00	
			         2.18667	0.00000e+00	
			         2.18833	-3.00000e+00	
			         2.19000	-5.00000e+00	
			         2.19167	-8.00000e+00	
			         2.19333	-9.00000e+00	
			         2.19500	-1.10000e+01	
			         2.19667	-1.10000e+01	
			         2.19833	-1.20000e+01	
			         2.20000	-1.30000e+01	
			         2.20167	-1.30000e+01	
			         2.20333	-1.30000e+01	
			         2.20500	-1.40000e+01	
			         2.20667	-1.50000e+01	
			         2.20833	-1.60000e+01	
			         2.21000	-1.70000e+01	
			         2.21167	-1.80000e+01	
			         2.21333	-2.00000e+01	
			         2.21500	-2.20000e+01	
			         2.21667	-2.40000e+01	
			         2.21833	-2.60000e+01	
			         2.22000	-2.80000e+01	
			         2.22167	-3.00000e+01	
			         2.22333	-3.10000e+01	
			         2.22500	-3.30000e+01	
			         2.22667	-3.40000e+01	
			         2.22833	-3.50000e+01	
			         2.23000	-3.60000e+01	
			         2.23167	-3.60000e+01	
			         2.23333	-3.60000e+01	
			         2.23500	-3.60000e+01	
			         2.23667	-3.60000e+01	
			         2.23833	-3.60000e+01	
			         2.24000	-3.60000e+01	
			         2.24167	-3.50000e+01	
			         2.24333	-3.50000e+01	
			         2.24500	-3.40000e+01	
			         2.24667	-3.30000e+01	
			         2.24833	-3.20000e+01	
			         2.25000	-3.10000e+01	
			         2.25167	-3.00000e+01	
			         2.25333	-2.90000e+01	
			         2.25500	-2.80000e+01	
			         2.25667	-2.70000e+01	
			         2.25833	-2.60000e+01	
			         2.26000	-2.50000e+01	
			         2.26167	-2.40000e+01	
			         2.26333	-2.30000e+01	
			         2.26500	-2.20000e+01	
			         2.26667	-2.10000e+01	
			         2.26833	-2.10000e+01	
			         2.27000	-2.10000e+01	
			         2.27167	-2.00000e+01	
			         2.27333	-2.00000e+01	
			         2.27500	-1.90000e+01	
			         2.27667	-1.80000e+01	
			         2.27833	-1.70000e+01	
			         2.28000	-1.60000e+01	
			         2.28167	-1.50000e+01	
			         2.28333	-1.40000e+01	
			         2.28500	-1.20000e+01	
			         2.28667	-1.10000e+01	
			         2.28833	-9.00000e+00	
			         2.29000	-7.00000e+00	
			         2.29167	-4.00000e+00	
			         2.29333	-2.00000e+00	
			         2.29500	1.00000e+00	
			         2.29667	5.00000e+00	
			         2.29833	9.00000e+00	
			         2.30000	1.40000e+01	
			         2.30167	2.10000e+01	
			         2.30333	2.80000e+01	
			         2.30500	3.60000e+01	
			         2.30667	4.50000e+01	
			         2.30833	5.50000e+01	
			         2.31000	6.50000e+01	
			         2.31167	7.50000e+01	
			         2.31333	8.50000e+01	
			         2.31500	9.50000e+01	
			         2.31667	1.04000e+02	
			         2.31833	1.12000e+02	
			         2.32000	1.20000e+02	
			         2.32167	1.27000e+02	
			         2.32333	1.33000e+02	
			         2.32500	1.37000e+02	
			         2.32667	1.41000e+02	
			         2.32833	1.44000e+02	
			         2.33000	1.46000e+02	
			         2.33167	1.48000e+02	
			         2.33333	1.48000e+02	
			         2.33500	1.48000e+02	
			         2.33667	1.47000e+02	
			         2.33833	1.45000e+02	
			         2.34000	1.41000e+02	
			         2.34167	1.36000e+02	
			         2.34333	1.30000e+02	
			         2.34500	1.23000e+02	
			         2.34667	1.14000e+02	
			         2.34833	1.04000e+02	
			         2.35000	9.30000e+01	
			         2.35167	8.10000e+01	
			         2.35333	6.90000e+01	
			         2.35500	5.60000e+01	
			         2.35667	4.30000e+01	
			         2.35833	3.00000e+01	
			         2.36000	1.70000e+01	
			         2.36167	4.00000e+00	
			         2.36333	-8.00000e+00	
			         2.36500	-2.00000e+01	
			         2.36667	-3.10000e+01	
			         2.36833	-4.10000e+01	
			         2.37000	-5.10000e+01	
			         2.37167	-6.10000e+01	
			         2.37333	-6.90000e+01	
			         2.37500	-7.70000e+01	
			         2.37667	-8.40000e+01	
			         2.37833	-9.00000e+01	
			         2.38000	-9.50000e+01	
			         2.38167	-1.00000e+02	
			         2.38333	-1.03000e+02	
			         2.38500	-1.05000e+02	
			         2.38667	-1.06000e+02	
			         2.38833	-1.06000e+02	
			         2.39000	-1.04000e+02	
			         2.39167	-1.02000e+02	
			         2.39333	-9.90000e+01	
			         2.39500	-9.50000e+01	
			         2.39667	-9.10000e+01	
			         2.39833	-8.70000e+01	
			         2.40000	-8.20000e+01	
			         2.40167	-7.70000e+01	
			         2.40333	-7.20000e+01	
			         2.40500	-6.70000e+01	
			         2.40667	-6.30000e+01	
			         2.40833	-5.90000e+01	
			         2.41000	-5.60000e+01	
			         2.41167	-5.30000e+01	
			         2.41333	-5.10000e+01	
			         2.41500	-4.90000e+01	
			         2.41667	-4.70000e+01	
			         2.41833	-4.60000e+01	
			         2.42000	-4.50000e+01	
			         2.42167	-4.30000e+01	
			         2.42333	-4.20000e+01	
			         2.42500	-4.20000e+01	
			         2.42667	-4.10000e+01	
			         2.42833	-4.00000e+01	
			         2.43000	-3.90000e+01	
			         2.43167	-3.80000e+01	
			         2.43333	-3.70000e+01	
			         2.43500	-3.60000e+01	
			         2.43667	-3.50000e+01	
			         2.43833	-3.40000e+01	
			         2.44000	-3.40000e+01	
			         2.44167	-3.30000e+01	
			         2.44333	-3.20000e+01	
			         2.44500	-3.10000e+01	
			         2.44667	-3.10000e+01	
			         2.44833	-3.00000e+01	
			         2.45000	-2.90000e+01	
			         2.45167	-2.80000e+01	
			         2.45333	-2.80000e+01	
			         2.45500	-2.70000e+01	
			         2.45667	-2.60000e+01	
			         2.45833	-2.60000e+01	
			         2.46000	-2.50000e+01	
			         2.46167	-2.50000e+01	
			         2.46333	-2.50000e+01	
			         2.46500	-2.40000e+01	
			         2.46667	-2.40000e+01	
			         2.46833	-2.40000e+01	
			         2.47000	-2.30000e+01	
			         2.47167	-2.30000e+01	
			         2.47333	-2.30000e+01	
			         2.47500	-2.20000e+01	
			         2.47667	-2.20000e+01	
			         2.47833	-2.10000e+01	
			         2.48000	-2.10000e+01	
			         2.48167	-2.00000e+01	
			         2.48333	-1.90000e+01	
			         2.48500	-1.80000e+01	
			         2.48667	-1.70000e+01	
			         2.48833	-1.60000e+01	
			         2.49000	-1.50000e+01	
			         2.49167	-1.50000e+01	
			         2.49333	-1.40000e+01	
			         2.49500	-1.40000e+01	
			         2.49667	-1.30000e+01	
			         2.49833	-1.30000e+01	
			         2.50000	-1.30000e+01	
			         2.50167	-1.20000e+01	
			         2.50333	-1.20000e+01	
			         2.50500	-1.20000e+01	
			         2.50667	-1.10000e+01	
			         2.50833	-1.10000e+01	
			         2.51000	-1.10000e+01	
			         2.51167	-1.00000e+01	
			         2.51333	-1.00000e+01	
			         2.51500	-9.00000e+00	
			         2.51667	-9.00000e+00	
			         2.51833	-8.00000e+00	
			         2.52000	-8.00000e+00	
			         2.52167	-7.00000e+00	
			         2.52333	-7.00000e+00	
			         2.52500	-7.00000e+00	
			         2.52667	-6.00000e+00	
			         2.52833	-6.00000e+00	
			         2.53000	-5.00000e+00	
			         2.53167	-4.00000e+00	
			         2.53333	-4.00000e+00	
			         2.53500	-3.00000e+00	
			         2.53667	-2.00000e+00	
			         2.53833	-1.00000e+00	
			         2.54000	0.00000e+00	
			         2.54167	1.00000e+00	
			         2.54333	2.00000e+00	
			         2.54500	3.00000e+00	
			         2.54667	4.00000e+00	
			         2.54833	5.00000e+00	
			         2.55000	6.00000e+00	
			         2.55167	7.00000e+00	
			         2.55333	7.00000e+00	
			         2.55500	8.00000e+00	
			         2.55667	8.00000e+00	
			         2.55833	9.00000e+00	
			         2.56000	1.00000e+01	
			         2.56167	1.00000e+01	
			         2.56333	1.10000e+01	
			         2.56500	1.20000e+01	
			         2.56667	1.40000e+01	
			         2.56833	1.50000e+01	
			         2.57000	1.70000e+01	
			         2.57167	1.90000e+01	
			         2.57333	2.10000e+01	
			         2.57500	2.30000e+01	
			         2.57667	2.50000e+01	
			         2.57833	2.70000e+01	
			         2.58000	2.90000e+01	
			         2.58167	3.10000e+01	
			         2.58333	3.20000e+01	
			         2.58500	3.40000e+01	
			         2.58667	3.60000e+01	
			         2.58833	3.80000e+01	
			         2.59000	3.90000e+01	
			         2.59167	4.00000e+01	
			         2.59333	4.20000e+01	
			         2.59500	4.30000e+01	
			         2.59667	4.40000e+01	
			         2.59833	4.50000e+01	
			         2.60000	4.60000e+01	
			         2.60167	4.70000e+01	
			         2.60333	4.90000e+01	
			         2.60500	5.00000e+01	
			         2.60667	5.10000e+01	
			         2.60833	5.30000e+01	
			         2.61000	5.40000e+01	
			         2.61167	5.60000e+01	
			         2.61333	5.80000e+01	
			         2.61500	5.90000e+01	
			         2.61667	6.10000e+01	
			         2.61833	6.30000e+01	
			         2.62000	6.50000e+01	
			         2.62167	6.60000e+01	
			         2.62333	6.80000e+01	
			         2.62500	7.00000e+01	
			         2.62667	7.10000e+01	
			         2.62833	7.30000e+01	
			         2.63000	7.40000e+01	
			         2.63167	7.50000e+01	
			         2.63333	7.60000e+01	
			         2.63500	7.70000e+01	
			         2.63667	7.70000e+01	
			         2.63833	7.80000e+01	
			         2.64000	7.80000e+01	
			         2.64167	7.80000e+01	
			         2.64333	7.90000e+01	
			         2.64500	7.90000e+01	
			         2.64667	7.90000e+01	
			         2.64833	7.80000e+01	
			         2.65000	7.80000e+01	
			         2.65167	7.70000e+01	
			         2.65333	7.60000e+01	
			         2.65500	7.60000e+01	
			         2.65667	7.40000e+01	
			         2.65833	7.30000e+01	
			         2.66000	7.20000e+01	
			         2.66167	7.00000e+01	
			         2.66333	6.80000e+01	
			         2.66500	6.60000e+01	
			         2.66667	6.40000e+01	
			         2.66833	6.20000e+01	
			         2.67000	5.90000e+01	
			         2.67167	5.70000e+01	
			         2.67333	5.40000e+01	
			         2.67500	5.00000e+01	
			         2.67667	4.70000e+01	
			         2.67833	4.30000e+01	
			         2.68000	4.00000e+01	
			         2.68167	3.60000e+01	
			         2.68333	3.20000e+01	
			         2.68500	2.70000e+01	
			         2.68667	2.30000e+01	
			         2.68833	1.90000e+01	
			         2.69000	1.40000e+01	
			         2.69167	1.00000e+01	
			         2.69333	5.00000e+00	
			         2.69500	1.00000e+00	
			         2.69667	-3.00000e+00	
			         2.69833	-6.00000e+00	
			         2.70000	-1.00000e+01	
			         2.70167	-1.40000e+01	
			         2.70333	-1.70000e+01	
			         2.70500	-2.00000e+01	
			         2.70667	-2.30000e+01	
			         2.70833	-2.60000e+01	
			         2.71000	-2.90000e+01	
			         2.71167	-3.20000e+01	
			         2.71333	-3.40000e+01	
			         2.71500	-3.70000e+01	
			         2.71667	-3.90000e+01	
			         2.71833	-4.10000e+01	
			         2.72000	-4.30000e+01	
			         2.72167	-4.50000e+01	
			         2.72333	-4.60000e+01	
			         2.72500	-4.80000e+01	
			         2.72667	-4.90000e+01	
			         2.72833	-4.90000e+01	
			         2.73000	-5.00000e+01	
			         2.73167	-5.00000e+01	
			         2.73333	-5.00000e+01	
			         2.73500	-5.00000e+01	
			         2.73667	-4.90000e+01	
			         2.73833	-4.90000e+01	
			         2.74000	-4.80000e+01	
			         2.74167	-4.70000e+01	
			         2.74333	-4.70000e+01	
			         2.74500	-4.60000e+01	
			         2.74667	-4.60000e+01	
			         2.74833	-4.50000e+01	
			         2.75000	-4.50000e+01	
			         2.75167	-4.50000e+01	
			         2.75333	-4.40000e+01	
			         2.75500	-4.40000e+01	
			         2.75667	-4.40000e+01	
			         2.75833	-4.40000e+01	
			         2.76000	-4.40000e+01	
			         2.76167	-4.30000e+01	
			         2.76333	-4.30000e+01	
			         2.76500	-4.30000e+01	
			         2.76667	-4.20000e+01	
			         2.76833	-4.10000e+01	
			         2.77000	-4.10000e+01	
			         2.77167	-4.00000e+01	
			         2.77333	-4.00000e+01	
			         2.77500	-4.00000e+01	
			         2.77667	-3.90000e+01	
			         2.77833	-3.90000e+01	
			         2.78000	-3.80000e+01	
			         2.78167	-3.80000e+01	
			         2.78333	-3.70000e+01	
			         2.78500	-3.70000e+01	
			         2.78667	-3.60000e+01	
			         2.78833	-3.60000e+01	
			         2.79000	-3.50000e+01	
			         2.79167	-3.50000e+01	
			         2.79333	-3.50000e+01	
			         2.79500	-3.40000e+01	
			         2.79667	-3.40000e+01	
			         2.79833	-3.30000e+01	
			         2.80000	-3.30000e+01	
			         2.80167	-3.20000e+01	
			         2.80333	-3.20000e+01	
			         2.80500	-3.10000e+01	
			         2.80667	-3.10000e+01	
			         2.80833	-3.00000e+01	
			         2.81000	-3.00000e+01	
			         2.81167	-2.90000e+01	
			         2.81333	-2.90000e+01	
			         2.81500	-2.80000e+01	
			         2.81667	-2.80000e+01	
			         2.81833	-2.70000e+01	
			         2.82000	-2.60000e+01	
			         2.82167	-2.60000e+01	
			         2.82333	-2.50000e+01	
			         2.82500	-2.50000e+01	
			         2.82667	-2.40000e+01	
			         2.82833	-2.30000e+01	
			         2.83000	-2.30000e+01	
			         2.83167	-2.20000e+01	
			         2.83333	-2.20000e+01	
			         2.83500	-2.20000e+01	
			         2.83667	-2.10000e+01	
			         2.83833	-2.10000e+01	
			         2.84000	-2.10000e+01	
			         2.84167	-2.00000e+01	
			         2.84333	-2.00000e+01	
			         2.84500	-1.90000e+01	
			         2.84667	-1.80000e+01	
			         2.84833	-1.80000e+01	
			         2.85000	-1.70000e+01	
			         2.85167	-1.60000e+01	
			         2.85333	-1.50000e+01	
			         2.85500	-1.50000e+01	
			         2.85667	-1.40000e+01	
			         2.85833	-1.30000e+01	
			         2.86000	-1.20000e+01	
			         2.86167	-1.10000e+01	
			         2.86333	-1.10000e+01	
			         2.86500	-1.00000e+01	
			         2.86667	-9.00000e+00	
			         2.86833	-9.00000e+00	
			         2.87000	-9.00000e+00	
			         2.87167	-8.00000e+00	
			         2.87333	-8.00000e+00	
			         2.87500	-8.00000e+00	
			         2.87667	-8.00000e+00	
			         2.87833	-8.00000e+00	
			         2.88000	-8.00000e+00	
			         2.88167	-7.00000e+00	
			         2.88333	-7.00000e+00	
			         2.88500	-7.00000e+00	
			         2.88667	-7.00000e+00	
			         2.88833	-6.00000e+00	
			         2.89000	-6.00000e+00	
			         2.89167	-6.00000e+00	
			         2.89333	-6.00000e+00	
			         2.89500	-6.00000e+00	
			         2.89667	-5.00000e+00	
			         2.89833	-5.00000e+00	
			         2.90000	-5.00000e+00	
			         2.90167	-5.00000e+00	
			         2.90333	-5.00000e+00	
			         2.90500	-6.00000e+00	
			         2.90667	-6.00000e+00	
			         2.90833	-6.00000e+00	
			         2.91000	-7.00000e+00	
			         2.91167	-7.00000e+00	
			         2.91333	-8.00000e+00	
			         2.91500	-8.00000e+00	
			         2.91667	-9.00000e+00	
			         2.91833	-9.00000e+00	
			         2.92000	-9.00000e+00	
			         2.92167	-9.00000e+00	
			         2.92333	-9.00000e+00	
			         2.92500	-9.00000e+00	
			         2.92667	-8.00000e+00	
			         2.92833	-8.00000e+00	
			         2.93000	-8.00000e+00	
			         2.93167	-7.00000e+00	
			         2.93333	-7.00000e+00	
			         2.93500	-7.00000e+00	
			         2.93667	-6.00000e+00	
			         2.93833	-6.00000e+00	
			         2.94000	-6.00000e+00	
			         2.94167	-5.00000e+00	
			         2.94333	-5.00000e+00	
			         2.94500	-4.00000e+00	
			         2.94667	-4.00000e+00	
			         2.94833	-3.00000e+00	
			         2.95000	-3.00000e+00	
			         2.95167	-2.00000e+00	
			         2.95333	-2.00000e+00	
			         2.95500	-1.00000e+00	
			         2.95667	0.00000e+00	
			         2.95833	0.00000e+00	
			         2.96000	0.00000e+00	
			         2.96167	1.00000e+00	
			         2.96333	1.00000e+00	
			         2.96500	1.00000e+00	
			         2.96667	1.00000e+00	
			         2.96833	0.00000e+00	
			         2.97000	0.00000e+00	
			         2.97167	0.00000e+00	
			         2.97333	-1.00000e+00	
			         2.97500	-2.00000e+00	
			         2.97667	-2.00000e+00	
			         2.97833	-3.00000e+00	
			         2.98000	-3.00000e+00	
			         2.98167	-4.00000e+00	
			         2.98333	-5.00000e+00	
			         2.98500	-5.00000e+00	
			         2.98667	-6.00000e+00	
			         2.98833	-6.00000e+00	
			         2.99000	-7.00000e+00	
			         2.99167	-7.00000e+00	
			         2.99333	-7.00000e+00	
			         2.99500	-7.00000e+00	
			         2.99667	-6.00000e+00	
			         2.99833	-6.00000e+00	
			         3.00000	-6.00000e+00	
			         3.00167	-5.00000e+00	
			         3.00333	-4.00000e+00	
			         3.00500	-3.00000e+00	
			         3.00667	-3.00000e+00	
			         3.00833	-2.00000e+00	
			         3.01000	-1.00000e+00	
			         3.01167	-1.00000e+00	
			         3.01333	0.00000e+00	
			         3.01500	0.00000e+00	
			         3.01667	0.00000e+00	
			         3.01833	1.00000e+00	
			         3.02000	1.00000e+00	
			         3.02167	0.00000e+00	
			         3.02333	0.00000e+00	
			         3.02500	0.00000e+00	
			         3.02667	0.00000e+00	
			         3.02833	0.00000e+00	
			         3.03000	0.00000e+00	
			         3.03167	0.00000e+00	
			         3.03333	-1.00000e+00	
			         3.03500	-1.00000e+00	
			         3.03667	-1.00000e+00	
			         3.03833	-1.00000e+00	
			         3.04000	-1.00000e+00	
			         3.04167	-1.00000e+00	
			         3.04333	-1.00000e+00	
			         3.04500	-1.00000e+00	
			         3.04667	-1.00000e+00	
			         3.04833	-1.00000e+00	
			         3.05000	-2.00000e+00	
			         3.05167	-2.00000e+00	
			         3.05333	-3.00000e+00	
			         3.05500	-3.00000e+00	
			         3.05667	-4.00000e+00	
			         3.05833	-4.00000e+00	
			         3.06000	-5.00000e+00	
			         3.06167	-5.00000e+00	
			         3.06333	-5.00000e+00	
			         3.06500	-6.00000e+00	
			         3.06667	-6.00000e+00	
			         3.06833	-6.00000e+00	
			         3.07000	-6.00000e+00	
			         3.07167	-5.00000e+00	
			         3.07333	-5.00000e+00	
			         3.07500	-4.00000e+00	
			         3.07667	-4.00000e+00	
			         3.07833	-3.00000e+00	
			         3.08000	-3.00000e+00	
			         3.08167	-2.00000e+00	
			         3.08333	-2.00000e+00	
			         3.08500	-1.00000e+00	
			         3.08667	-1.00000e+00	
			         3.08833	-1.00000e+00	
			         3.09000	-1.00000e+00	
			         3.09167	-1.00000e+00	
			         3.09333	-1.00000e+00	
			         3.09500	-1.00000e+00	
			         3.09667	-1.00000e+00	
			         3.09833	-2.00000e+00	
			         3.10000	-2.00000e+00	
			         3.10167	-2.00000e+00	
			         3.10333	-2.00000e+00	
			         3.10500	-2.00000e+00	
			         3.10667	-2.00000e+00	
			         3.10833	-2.00000e+00	
			         3.11000	-2.00000e+00	
			         3.11167	-1.00000e+00	
			         3.11333	-1.00000e+00	
			         3.11500	-1.00000e+00	
			         3.11667	0.00000e+00	
			         3.11833	0.00000e+00	
			         3.12000	1.00000e+00	
			         3.12167	1.00000e+00	
			         3.12333	1.00000e+00	
			         3.12500	2.00000e+00	
			         3.12667	2.00000e+00	
			         3.12833	3.00000e+00	
			         3.13000	3.00000e+00	
			         3.13167	3.00000e+00	
			         3.13333	3.00000e+00	
			         3.13500	4.00000e+00	
			         3.13667	4.00000e+00	
			         3.13833	4.00000e+00	
			         3.14000	4.00000e+00	
			         3.14167	3.00000e+00	
			         3.14333	3.00000e+00	
			         3.14500	3.00000e+00	
			         3.14667	2.00000e+00	
			         3.14833	2.00000e+00	
			         3.15000	1.00000e+00	
			         3.15167	1.00000e+00	
			         3.15333	0.00000e+00	
			         3.15500	0.00000e+00	
			         3.15667	0.00000e+00	
			         3.15833	0.00000e+00	
			         3.16000	0.00000e+00	
			         3.16167	0.00000e+00	
			         3.16333	0.00000e+00	
			         3.16500	0.00000e+00	
			         3.16667	0.00000e+00	
			         3.16833	0.00000e+00	
			         3.17000	1.00000e+00	
			         3.17167	1.00000e+00	
			         3.17333	1.00000e+00	
			         3.17500	1.00000e+00	
			         3.17667	1.00000e+00	
			         3.17833	0.00000e+00	
			         3.18000	0.00000e+00	
			         3.18167	0.00000e+00	
			         3.18333	-1.00000e+00	
			         3.18500	-2.00000e+00	
			         3.18667	-3.00000e+00	
			         3.18833	-3.00000e+00	
			         3.19000	-4.00000e+00	
			         3.19167	-5.00000e+00	
			         3.19333	-5.00000e+00	
			         3.19500	-5.00000e+00	
			         3.19667	-5.00000e+00	
			         3.19833	-5.00000e+00	
			         3.20000	-5.00000e+00	
			         3.20167	-4.00000e+00	
			         3.20333	-4.00000e+00	
			         3.20500	-3.00000e+00	
			         3.20667	-3.00000e+00	
			         3.20833	-2.00000e+00	
			         3.21000	-2.00000e+00	
			         3.21167	-1.00000e+00	
			         3.21333	-1.00000e+00	
			         3.21500	-1.00000e+00	
			         3.21667	-1.00000e+00	
			         3.21833	-1.00000e+00	
			         3.22000	-1.00000e+00	
			         3.22167	-1.00000e+00	
			         3.22333	-1.00000e+00	
			         3.22500	-1.00000e+00	
			         3.22667	-1.00000e+00	
			         3.22833	-1.00000e+00	
			         3.23000	-2.00000e+00	
			         3.23167	-2.00000e+00	
			         3.23333	-2.00000e+00	
			         3.23500	-2.00000e+00	
			         3.23667	-2.00000e+00	
			         3.23833	-2.00000e+00	
			         3.24000	-2.00000e+00	
			         3.24167	-2.00000e+00	
			         3.24333	-2.00000e+00	
			         3.24500	-2.00000e+00	
			         3.24667	-2.00000e+00	
			         3.24833	-2.00000e+00	
			         3.25000	-1.00000e+00	
			         3.25167	-1.00000e+00	
			         3.25333	0.00000e+00	
			         3.25500	0.00000e+00	
			         3.25667	1.00000e+00	
			         3.25833	2.00000e+00	
			         3.26000	3.00000e+00	
			         3.26167	3.00000e+00	
			         3.26333	4.00000e+00	
			         3.26500	5.00000e+00	
			         3.26667	6.00000e+00	
			         3.26833	8.00000e+00	
			         3.27000	9.00000e+00	
			         3.27167	1.00000e+01	
			         3.27333	1.20000e+01	
			         3.27500	1.40000e+01	
			         3.27667	1.60000e+01	
			         3.27833	1.80000e+01	
			         3.28000	2.00000e+01	
			         3.28167	2.30000e+01	
			         3.28333	2.60000e+01	
			         3.28500	2.80000e+01	
			         3.28667	3.10000e+01	
			         3.28833	3.40000e+01	
			         3.29000	3.60000e+01	
			         3.29167	3.80000e+01	
			         3.29333	3.90000e+01	
			         3.29500	3.90000e+01	
			         3.29667	4.00000e+01	
			         3.29833	4.00000e+01	
			         3.30000	3.90000e+01	
			         3.30167	3.80000e+01	
			         3.30333	3.70000e+01	
			         3.30500	3.50000e+01	
			         3.30667	3.40000e+01	
			         3.30833	3.20000e+01	
			         3.31000	3.10000e+01	
			         3.31167	3.00000e+01	
			         3.31333	2.90000e+01	
			         3.31500	2.90000e+01	
			         3.31667	2.80000e+01	
			         3.31833	2.70000e+01	
			         3.32000	2.60000e+01	
			         3.32167	2.50000e+01	
			         3.32333	2.40000e+01	
			         3.32500	2.20000e+01	
			         3.32667	2.00000e+01	
			         3.32833	1.80000e+01	
			         3.33000	1.50000e+01	
			         3.33167	1.20000e+01	
			         3.33333	9.00000e+00	
			         3.33500	6.00000e+00	
			         3.33667	3.00000e+00	
			         3.33833	0.00000e+00	
			         3.34000	-2.00000e+00	
			         3.34167	-5.00000e+00	
			         3.34333	-7.00000e+00	
			         3.34500	-8.00000e+00	
			         3.34667	-9.00000e+00	
			         3.34833	-1.10000e+01	
			         3.35000	-1.10000e+01	
			         3.35167	-1.20000e+01	
			         3.35333	-1.30000e+01	
			         3.35500	-1.40000e+01	
			         3.35667	-1.50000e+01	
			         3.35833	-1.70000e+01	
			         3.36000	-1.90000e+01	
			         3.36167	-2.00000e+01	
			         3.36333	-2.20000e+01	
			         3.36500	-2.40000e+01	
			         3.36667	-2.60000e+01	
			         3.36833	-2.80000e+01	
			         3.37000	-3.00000e+01	
			         3.37167	-3.10000e+01	
			         3.37333	-3.30000e+01	
			         3.37500	-3.30000e+01	
			         3.37667	-3.40000e+01	
			         3.37833	-3.50000e+01	
			         3.38000	-3.50000e+01	
			         3.38167	-3.50000e+01	
			         3.38333	-3.40000e+01	
			         3.38500	-3.40000e+01	
			         3.38667	-3.40000e+01	
			         3.38833	-3.30000e+01	
			         3.39000	-3.20000e+01	
			         3.39167	-3.20000e+01	
			         3.39333	-3.10000e+01	
			         3.39500	-3.10000e+01	
			         3.39667	-3.00000e+01	
			         3.39833	-2.90000e+01	
			         3.40000	-2.80000e+01	
			         3.40167	-2.80000e+01	
			         3.40333	-2.70000e+01	
			         3.40500	-2.60000e+01	
			         3.40667	-2.50000e+01	
			         3.40833	-2.40000e+01	
			         3.41000	-2.40000e+01	
			         3.41167	-2.30000e+01	
			         3.41333	-2.20000e+01	
			         3.41500	-2.20000e+01	
			         3.41667	-2.10000e+01	
			         3.41833	-2.00000e+01	
			         3.42000	-2.00000e+01	
			         3.42167	-1.90000e+01	
			         3.42333	-1.80000e+01	
			         3.42500	-1.70000e+01	
			         3.42667	-1.60000e+01	
			         3.42833	-1.50000e+01	
			         3.43000	-1.40000e+01	
			         3.43167	-1.30000e+01	
			         3.43333	-1.10000e+01	
			         3.43500	-1.00000e+01	
			         3.43667	-8.00000e+00	
			         3.43833	-6.00000e+00	
			         3.44000	-4.00000e+00	
			         3.44167	-2.00000e+00	
			         3.44333	0.00000e+00	
			         3.44500	2.00000e+00	
			         3.44667	5.00000e+00	
			         3.44833	9.00000e+00	
			         3.45000	1.30000e+01	
			         3.45167	1.80000e+01	
			         3.45333	2.50000e+01	
			         3.45500	3.20000e+01	
			         3.45667	4.00000e+01	
			         3.45833	4.90000e+01	
			         3.46000	5.90000e+01	
			         3.46167	6.90000e+01	
			         3.46333	7.90000e+01	
			         3.46500	8.90000e+01	
			         3.46667	9.90000e+01	
			         3.46833	1.08000e+02	
			         3.47000	1.17000e+02	
			         3.47167	1.25000e+02	
			         3.47333	1.32000e+02	
			         3.47500	1.38000e+02	
			         3.47667	1.43000e+02	
			         3.47833	1.47000e+02	
			         3.48000	1.50000e+02	
			         3.48167	1.52000e+02	
			         3.48333	1.54000e+02	
			         3.48500	1.54000e+02	
			         3.48667	1.53000e+02	
			         3.48833	1.51000e+02	
			         3.49000	1.48000e+02	
			         3.49167	1.44000e+02	
			         3.49333	1.38000e+02	
			         3.49500	1.30000e+02	
			         3.49667	1.21000e+02	
			         3.49833	1.11000e+02	
			         3.50000	9.90000e+01	
			         3.50167	8.70000e+01	
			         3.50333	7.40000e+01	
			         3.50500	6.10000e+01	
			         3.50667	4.70000e+01	
			         3.50833	3.40000e+01	
			         3.51000	2.10000e+01	
			         3.51167	8.00000e+00	
			         3.51333	-4.00000e+00	
			         3.51500	-1.60000e+01	
			         3.51667	-2.70000e+01	
			         3.51833	-3.80000e+01	
			         3.52000	-4.70000e+01	
			         3.52167	-5.60000e+01	
			         3.52333	-6.50000e+01	
			         3.52500	-7.20000e+01	
			         3.52667	-7.90000e+01	
			         3.52833	-8.60000e+01	
			         3.53000	-9.10000e+01	
			         3.53167	-9.60000e+01	
			         3.53333	-1.00000e+02	
			         3.53500	-1.03000e+02	
			         3.53667	-1.05000e+02	
			         3.53833	-1.05000e+02	
			         3.54000	-1.05000e+02	
			         3.54167	-1.04000e+02	
