Velocity (TVI), in cm/s

Time (s) :	Trace 1 : 		Ecg : 		
0.00597   	-5.02006e-02		         0.00000	4.81000e+02	
0.01209   	5.14722e-01		         0.00167	5.13000e+02	
0.01821   	1.08215e+00		         0.00333	5.34000e+02	
0.02433   	2.29704e+00		         0.00500	5.42000e+02	
0.03073   	2.65391e+00		         0.00667	5.37000e+02	
0.03684   	2.51763e+00		         0.00833	5.17000e+02	
0.04297   	2.26765e+00		         0.01000	4.84000e+02	
0.04909   	1.63494e+00		         0.01167	4.38000e+02	
0.05548   	1.17700e+00		         0.01333	3.82000e+02	
0.06160   	1.05904e+00		         0.01500	3.18000e+02	
0.06802   	1.29247e+00		         0.01667	2.47000e+02	
0.07385   	1.64748e+00		         0.01833	1.74000e+02	
0.08024   	2.36212e+00		         0.02000	1.02000e+02	
0.08636   	2.86705e+00		         0.02167	3.20000e+01	
0.09248   	3.41822e+00		         0.02333	-3.10000e+01	
0.09860   	3.88327e+00		         0.02500	-8.80000e+01	
0.10499   	4.20804e+00		         0.02667	-1.37000e+02	
0.11111   	4.30804e+00		         0.02833	-1.77000e+02	
0.11723   	4.36279e+00		         0.03000	-2.08000e+02	
0.12336   	4.40420e+00		         0.03167	-2.31000e+02	
0.12975   	4.39918e+00		         0.03333	-2.46000e+02	
0.13587   	4.39888e+00		         0.03500	-2.55000e+02	
0.14199   	4.41660e+00		         0.03667	-2.58000e+02	
0.14811   	4.38832e+00		         0.03833	-2.57000e+02	
0.15451   	4.34947e+00		         0.04000	-2.53000e+02	
0.16063   	4.31192e+00		         0.04167	-2.47000e+02	
0.16675   	4.24358e+00		         0.04333	-2.39000e+02	
0.17287   	4.22990e+00		         0.04500	-2.31000e+02	
0.17926   	4.17660e+00		         0.04667	-2.22000e+02	
0.18538   	4.20758e+00		         0.04833	-2.14000e+02	
0.19150   	4.19803e+00		         0.05000	-2.06000e+02	
0.19763   	4.24797e+00		         0.05167	-1.99000e+02	
0.20402   	4.25911e+00		         0.05333	-1.92000e+02	
0.21014   	4.30734e+00		         0.05500	-1.86000e+02	
0.21626   	4.15548e+00		         0.05667	-1.81000e+02	
0.22238   	4.05113e+00		         0.05833	-1.76000e+02	
0.22877   	3.89216e+00		         0.06000	-1.72000e+02	
0.23489   	3.78479e+00		         0.06167	-1.68000e+02	
0.24102   	3.57336e+00		         0.06333	-1.64000e+02	
0.24714   	3.53023e+00		         0.06500	-1.61000e+02	
0.25353   	3.40142e+00		         0.06667	-1.59000e+02	
0.25965   	3.31816e+00		         0.06833	-1.56000e+02	
0.26577   	3.13638e+00		         0.07000	-1.53000e+02	
0.27189   	3.04741e+00		         0.07167	-1.51000e+02	
0.27829   	2.89119e+00		         0.07333	-1.48000e+02	
0.28440   	2.82017e+00		         0.07500	-1.45000e+02	
0.29053   	2.68535e+00		         0.07667	-1.42000e+02	
0.29665   	2.57919e+00		         0.07833	-1.38000e+02	
0.30304   	2.49102e+00		         0.08000	-1.35000e+02	
0.30916   	2.34438e+00		         0.08167	-1.32000e+02	
0.31528   	2.20831e+00		         0.08333	-1.29000e+02	
0.32141   	2.07179e+00		         0.08500	-1.26000e+02	
0.32780   	1.89587e+00		         0.08667	-1.24000e+02	
0.33392   	1.71761e+00		         0.08833	-1.21000e+02	
0.34004   	1.58137e+00		         0.09000	-1.18000e+02	
0.34616   	1.42587e+00		         0.09167	-1.15000e+02	
0.35255   	1.26413e+00		         0.09333	-1.13000e+02	
0.35868   	1.10619e+00		         0.09500	-1.11000e+02	
0.36480   	8.28544e-01		         0.09667	-1.09000e+02	
0.37092   	5.04548e-01		         0.09833	-1.07000e+02	
0.37731   	9.69499e-02		         0.10000	-1.05000e+02	
0.38378   	-3.67094e-01		         0.10167	-1.04000e+02	
0.38955   	-9.91925e-01		         0.10333	-1.02000e+02	
0.39567   	-1.43441e+00		         0.10500	-9.90000e+01	
0.40206   	-1.77204e+00		         0.10667	-9.70000e+01	
0.40819   	-1.88160e+00		         0.10833	-9.50000e+01	
0.41431   	-1.78862e+00		         0.11000	-9.30000e+01	
0.42043   	-1.51102e+00		         0.11167	-9.10000e+01	
0.42682   	-1.33692e+00		         0.11333	-8.90000e+01	
0.43327   	-1.04865e+00		         0.11500	-8.70000e+01	
0.43906   	-9.39244e-01		         0.11667	-8.50000e+01	
0.44519   	-9.65964e-01		         0.11833	-8.20000e+01	
0.45158   	-1.04546e+00		         0.12000	-8.00000e+01	
0.45770   	-1.00382e+00		         0.12167	-7.80000e+01	
0.46382   	-1.20427e+00		         0.12333	-7.60000e+01	
0.46994   	-1.48329e+00		         0.12500	-7.40000e+01	
0.47633   	-1.81245e+00		         0.12667	-7.20000e+01	
0.48245   	-2.21327e+00		         0.12833	-7.10000e+01	
0.48858   	-2.76543e+00		         0.13000	-6.90000e+01	
0.49470   	-3.29727e+00		         0.13167	-6.70000e+01	
0.50109   	-3.62360e+00		         0.13333	-6.60000e+01	
0.50722   	-3.90635e+00		         0.13500	-6.40000e+01	
0.51333   	-3.93507e+00		         0.13667	-6.20000e+01	
0.51945   	-3.98666e+00		         0.13833	-6.10000e+01	
0.52584   	-3.84176e+00		         0.14000	-5.90000e+01	
0.53196   	-3.75654e+00		         0.14167	-5.80000e+01	
0.53809   	-3.55300e+00		         0.14333	-5.60000e+01	
0.54421   	-3.45592e+00		         0.14500	-5.50000e+01	
0.55060   	-3.28183e+00		         0.14667	-5.30000e+01	
0.55672   	-3.21591e+00		         0.14833	-5.20000e+01	
0.56284   	-3.13361e+00		         0.15000	-5.00000e+01	
0.56896   	-3.11792e+00		         0.15167	-4.90000e+01	
0.57536   	-3.05297e+00		         0.15333	-4.70000e+01	
0.58148   	-2.89916e+00		         0.15500	-4.60000e+01	
0.58760   	-2.73487e+00		         0.15667	-4.50000e+01	
0.59372   	-2.53302e+00		         0.15833	-4.40000e+01	
0.60011   	-2.24560e+00		         0.16000	-4.30000e+01	
0.60624   	-1.97954e+00		         0.16167	-4.20000e+01	
0.61236   	-1.69311e+00		         0.16333	-4.10000e+01	
0.61848   	-1.37916e+00		         0.16500	-3.90000e+01	
0.62487   	-1.04530e+00		         0.16667	-3.80000e+01	
0.63099   	-7.91983e-01		         0.16833	-3.70000e+01	
0.63711   	-5.46825e-01		         0.17000	-3.60000e+01	
0.64323   	-3.85487e-01		         0.17167	-3.50000e+01	
0.64962   	-2.92612e-01		         0.17333	-3.40000e+01	
0.65575   	-2.24694e-01		         0.17500	-3.20000e+01	
0.66187   	-1.94794e-01		         0.17667	-3.10000e+01	
0.66799   	-1.61619e-01		         0.17833	-3.00000e+01	
0.67438   	-1.79412e-01		         0.18000	-2.90000e+01	
0.68050   	-1.48265e-01		         0.18167	-2.70000e+01	
0.68662   	-1.49214e-01		         0.18333	-2.60000e+01	
0.69275   	-1.24938e-01		         0.18500	-2.50000e+01	
0.69914   	-9.54556e-02		         0.18667	-2.40000e+01	
0.70526   	-2.51027e-02		         0.18833	-2.20000e+01	
0.71138   	-8.16003e-03		         0.19000	-2.10000e+01	
0.71750   	-1.84055e-02		         0.19167	-2.00000e+01	
0.72389   	-5.10188e-02		         0.19333	-1.90000e+01	
0.73001   	-1.39638e-01		         0.19500	-1.70000e+01	
0.73614   	-2.66478e-01		         0.19667	-1.60000e+01	
0.74226   	-4.25361e-01		         0.19833	-1.50000e+01	
0.74865   	-7.04670e-01		         0.20000	-1.40000e+01	
0.75477   	-1.29641e+00		         0.20167	-1.30000e+01	
0.76089   	-2.15182e+00		         0.20333	-1.20000e+01	
0.76701   	-3.27317e+00		         0.20500	-1.10000e+01	
0.77341   	-4.58236e+00		         0.20667	-1.10000e+01	
0.77953   	-5.82190e+00		         0.20833	-1.00000e+01	
0.78565   	-6.72232e+00		         0.21000	-9.00000e+00	
0.79177   	-7.35283e+00		         0.21167	-8.00000e+00	
0.79841   	-7.62230e+00		         0.21333	-7.00000e+00	
0.80428   	-7.52202e+00		         0.21500	-5.00000e+00	
0.81040   	-7.11966e+00		         0.21667	-4.00000e+00	
0.81652   	-6.51243e+00		         0.21833	-2.00000e+00	
0.82292   	-5.64567e+00		         0.22000	0.00000e+00	
0.82904   	-4.56134e+00		         0.22167	2.00000e+00	
0.83516   	-3.64246e+00		         0.22333	4.00000e+00	
0.84128   	-2.75101e+00		         0.22500	7.00000e+00	
0.84767   	-1.93714e+00		         0.22667	9.00000e+00	
0.85380   	-1.10080e+00		         0.22833	1.20000e+01	
0.85992   	-2.89271e-01		         0.23000	1.40000e+01	
0.86604   	8.01842e-01		         0.23167	1.60000e+01	
0.87243   	1.75565e+00		         0.23333	1.80000e+01	
0.87855   	2.50753e+00		         0.23500	2.00000e+01	
0.88467   	2.65417e+00		         0.23667	2.20000e+01	
0.89079   	2.59210e+00		         0.23833	2.40000e+01	
0.89718   	2.02968e+00		         0.24000	2.60000e+01	
0.90331   	1.45136e+00		         0.24167	2.80000e+01	
0.90943   	1.20332e+00		         0.24333	3.00000e+01	
0.91555   	1.28628e+00		         0.24500	3.20000e+01	
0.92194   	1.45078e+00		         0.24667	3.30000e+01	
0.92806   	1.99511e+00		         0.24833	3.50000e+01	
0.93418   	2.71281e+00		         0.25000	3.70000e+01	
0.94031   	3.21698e+00		         0.25167	3.90000e+01	
0.94670   	3.79396e+00		         0.25333	4.10000e+01	
0.95282   	4.22857e+00		         0.25500	4.30000e+01	
0.95894   	4.55165e+00		         0.25667	4.50000e+01	
0.96506   	4.60058e+00		         0.25833	4.70000e+01	
0.97145   	4.61398e+00		         0.26000	4.90000e+01	
0.97757   	4.54676e+00		         0.26167	5.20000e+01	
0.98370   	4.49422e+00		         0.26333	5.40000e+01	
0.98982   	4.43446e+00		         0.26500	5.60000e+01	
0.99621   	4.41505e+00		         0.26667	5.80000e+01	
1.00233   	4.35785e+00		         0.26833	6.10000e+01	
1.00845   	4.32898e+00		         0.27000	6.30000e+01	
1.01457   	4.31753e+00		         0.27167	6.50000e+01	
1.02096   	4.32110e+00		         0.27333	6.80000e+01	
1.02709   	4.25802e+00		         0.27500	7.00000e+01	
1.03321   	4.33063e+00		         0.27667	7.30000e+01	
1.03933   	4.32041e+00		         0.27833	7.50000e+01	
1.04572   	4.30333e+00		         0.28000	7.80000e+01	
1.05185   	4.27734e+00		         0.28167	8.00000e+01	
1.05796   	4.30502e+00		         0.28333	8.20000e+01	
1.06416   	4.18280e+00		         0.28500	8.40000e+01	
1.07048   	4.09873e+00		         0.28667	8.50000e+01	
1.07660   	4.02617e+00		         0.28833	8.60000e+01	
1.08272   	3.91043e+00		         0.29000	8.80000e+01	
1.08884   	3.76978e+00		         0.29167	8.80000e+01	
1.09523   	3.69221e+00		         0.29333	8.90000e+01	
1.10135   	3.65247e+00		         0.29500	8.90000e+01	
1.10748   	3.57264e+00		         0.29667	8.90000e+01	
1.11360   	3.45501e+00		         0.29833	8.80000e+01	
1.11999   	3.36225e+00		         0.30000	8.70000e+01	
1.12611   	3.18709e+00		         0.30167	8.50000e+01	
1.13223   	2.99660e+00		         0.30333	8.30000e+01	
1.13835   	2.85187e+00		         0.30500	8.10000e+01	
1.14474   	2.68751e+00		         0.30667	7.90000e+01	
1.15087   	2.49434e+00		         0.30833	7.70000e+01	
1.15699   	2.37436e+00		         0.31000	7.40000e+01	
1.16311   	2.21895e+00		         0.31167	7.10000e+01	
1.16950   	2.06088e+00		         0.31333	6.80000e+01	
1.17562   	1.91171e+00		         0.31500	6.50000e+01	
1.18174   	1.77102e+00		         0.31667	6.20000e+01	
1.18787   	1.58758e+00		         0.31833	5.90000e+01	
1.19426   	1.43445e+00		         0.32000	5.50000e+01	
1.20060   	1.21058e+00		         0.32167	5.10000e+01	
1.20650   	9.71423e-01		         0.32333	4.70000e+01	
1.21262   	7.42804e-01		         0.32500	4.30000e+01	
1.21901   	4.98389e-01		         0.32667	3.90000e+01	
1.22513   	1.61561e-01		         0.32833	3.50000e+01	
1.23125   	-2.99586e-01		         0.33000	3.10000e+01	
1.23738   	-7.85873e-01		         0.33167	2.70000e+01	
1.24377   	-1.32683e+00		         0.33333	2.30000e+01	
1.24989   	-1.67537e+00		         0.33500	1.90000e+01	
1.25601   	-1.66609e+00		         0.33667	1.50000e+01	
1.26213   	-1.62778e+00		         0.33833	1.10000e+01	
1.26853   	-1.43530e+00		         0.34000	8.00000e+00	
1.27465   	-1.18977e+00		         0.34167	5.00000e+00	
1.28077   	-1.06390e+00		         0.34333	2.00000e+00	
1.28689   	-1.13227e+00		         0.34500	0.00000e+00	
1.29328   	-1.06146e+00		         0.34667	-3.00000e+00	
1.29940   	-1.06605e+00		         0.34833	-5.00000e+00	
1.30552   	-1.06356e+00		         0.35000	-7.00000e+00	
1.31164   	-1.25644e+00		         0.35167	-9.00000e+00	
1.31804   	-1.44854e+00		         0.35333	-1.00000e+01	
1.32416   	-1.72123e+00		         0.35500	-1.20000e+01	
1.33028   	-2.12039e+00		         0.35667	-1.30000e+01	
1.33640   	-2.66332e+00		         0.35833	-1.40000e+01	
1.34279   	-3.19199e+00		         0.36000	-1.40000e+01	
1.34891   	-3.61327e+00		         0.36167	-1.50000e+01	
1.35503   	-4.02715e+00		         0.36333	-1.60000e+01	
1.36116   	-4.14231e+00		         0.36500	-1.60000e+01	
1.36755   	-4.16664e+00		         0.36667	-1.70000e+01	
1.37367   	-3.97732e+00		         0.36833	-1.70000e+01	
1.37979   	-3.94434e+00		         0.37000	-1.70000e+01	
1.38591   	-3.85898e+00		         0.37167	-1.80000e+01	
1.39231   	-3.79567e+00		         0.37333	-1.80000e+01	
1.39843   	-3.64014e+00		         0.37500	-1.90000e+01	
1.40455   	-3.55130e+00		         0.37667	-1.90000e+01	
1.41067   	-3.45646e+00		         0.37833	-2.00000e+01	
1.41706   	-3.29081e+00		         0.38000	-2.00000e+01	
1.42318   	-3.19728e+00		         0.38167	-2.00000e+01	
1.42944   	-3.07906e+00		         0.38333	-2.00000e+01	
1.43543   	-2.89833e+00		         0.38500	-2.00000e+01	
1.44182   	-2.68848e+00		         0.38667	-2.00000e+01	
1.44794   	-2.46137e+00		         0.38833	-2.00000e+01	
1.45406   	-2.19817e+00		         0.39000	-2.00000e+01	
1.46018   	-1.91141e+00		         0.39167	-2.00000e+01	
1.46658   	-1.60086e+00		         0.39333	-2.00000e+01	
1.47269   	-1.27856e+00		         0.39500	-2.00000e+01	
1.47905   	-9.47700e-01		         0.39667	-2.00000e+01	
1.48494   	-6.65736e-01		         0.39833	-2.10000e+01	
1.49133   	-4.28259e-01		         0.40000	-2.10000e+01	
1.49745   	-2.79241e-01		         0.40167	-2.10000e+01	
1.50357   	-1.67790e-01		         0.40333	-2.20000e+01	
1.50969   	-1.51453e-01		         0.40500	-2.20000e+01	
1.51608   	-1.82680e-01		         0.40667	-2.30000e+01	
1.52221   	-1.97230e-01		         0.40833	-2.30000e+01	
1.52833   	-1.88912e-01		         0.41000	-2.40000e+01	
1.53445   	-1.63855e-01		         0.41167	-2.40000e+01	
1.54084   	-1.25657e-01		         0.41333	-2.50000e+01	
1.54696   	-8.27354e-02		         0.41500	-2.50000e+01	
1.55308   	-7.53299e-02		         0.41667	-2.60000e+01	
1.55920   	-1.09808e-01		         0.41833	-2.60000e+01	
1.56560   	-2.11414e-01		         0.42000	-2.60000e+01	
1.57172   	-3.30030e-01		         0.42167	-2.70000e+01	
1.57784   	-4.43422e-01		         0.42333	-2.70000e+01	
1.58396   	-6.96170e-01		         0.42500	-2.80000e+01	
1.59035   	-1.25721e+00		         0.42667	-2.80000e+01	
1.59647   	-2.13646e+00		         0.42833	-2.90000e+01	
1.60260   	-3.24638e+00		         0.43000	-2.90000e+01	
1.60872   	-4.54435e+00		         0.43167	-2.90000e+01	
1.61511   	-5.81124e+00		         0.43333	-2.90000e+01	
1.62123   	-6.74970e+00		         0.43500	-2.90000e+01	
1.62735   	-7.29513e+00		         0.43667	-2.90000e+01	
1.63348   	-7.58136e+00		         0.43833	-2.90000e+01	
1.63987   	-7.46529e+00		         0.44000	-2.80000e+01	
1.64598   	-7.09483e+00		         0.44167	-2.80000e+01	
1.65211   	-6.43564e+00		         0.44333	-2.80000e+01	
1.65823   	-5.54387e+00		         0.44500	-2.80000e+01	
1.66462   	-4.46569e+00		         0.44667	-2.70000e+01	
1.67074   	-3.54023e+00		         0.44833	-2.70000e+01	
1.67686   	-2.66317e+00		         0.45000	-2.60000e+01	
1.68299   	-1.83619e+00		         0.45167	-2.60000e+01	
1.68938   	-9.96815e-01		         0.45333	-2.50000e+01	
1.69550   	-1.57830e-01		         0.45500	-2.50000e+01	
1.70162   	9.12313e-01		         0.45667	-2.40000e+01	
1.70774   	1.92098e+00		         0.45833	-2.40000e+01	
1.71413   	2.67545e+00		         0.46000	-2.30000e+01	
1.72025   	2.69438e+00		         0.46167	-2.30000e+01	
1.72637   	2.38631e+00		         0.46333	-2.20000e+01	
1.73250   	1.74114e+00		         0.46500	-2.10000e+01	
1.73889   	1.10794e+00		         0.46667	-2.00000e+01	
1.74507   	8.57149e-01		         0.46833	-1.90000e+01	
1.75113   	9.76666e-01		         0.47000	-1.80000e+01	
1.75725   	1.34003e+00		         0.47167	-1.60000e+01	
1.76364   	1.90818e+00		         0.47333	-1.50000e+01	
1.76977   	2.63795e+00		         0.47500	-1.30000e+01	
1.77589   	3.14707e+00		         0.47667	-1.20000e+01	
1.78201   	3.73069e+00		         0.47833	-1.00000e+01	
1.78841   	4.22781e+00		         0.48000	-9.00000e+00	
1.79452   	4.59006e+00		         0.48167	-8.00000e+00	
1.80064   	4.68815e+00		         0.48333	-7.00000e+00	
1.80677   	4.67940e+00		         0.48500	-6.00000e+00	
1.81316   	4.60944e+00		         0.48667	-6.00000e+00	
1.81928   	4.54201e+00		         0.48833	-5.00000e+00	
1.82540   	4.47243e+00		         0.49000	-5.00000e+00	
1.83152   	4.44844e+00		         0.49167	-5.00000e+00	
1.83791   	4.36976e+00		         0.49333	-5.00000e+00	
1.84403   	4.32025e+00		         0.49500	-5.00000e+00	
1.85016   	4.33652e+00		         0.49667	-5.00000e+00	
1.85628   	4.31555e+00		         0.49833	-4.00000e+00	
1.86267   	4.26196e+00		         0.50000	-4.00000e+00	
1.86879   	4.29711e+00		         0.50167	-3.00000e+00	
1.87491   	4.31961e+00		         0.50333	-3.00000e+00	
1.88103   	4.28418e+00		         0.50500	-2.00000e+00	
1.88743   	4.21031e+00		         0.50667	-1.00000e+00	
1.89355   	4.21620e+00		         0.50833	0.00000e+00	
1.89967   	4.10622e+00		         0.51000	1.00000e+00	
1.90579   	4.10620e+00		         0.51167	2.00000e+00	
1.91218   	3.98629e+00		         0.51333	2.00000e+00	
1.91830   	3.93665e+00		         0.51500	3.00000e+00	
1.92442   	3.77479e+00		         0.51667	3.00000e+00	
1.93054   	3.61599e+00		         0.51833	4.00000e+00	
1.93694   	3.44022e+00		         0.52000	4.00000e+00	
1.94306   	3.35451e+00		         0.52167	4.00000e+00	
1.94918   	3.20241e+00		         0.52333	4.00000e+00	
1.95530   	3.07449e+00		         0.52500	4.00000e+00	
1.96169   	3.00866e+00		         0.52667	4.00000e+00	
1.96782   	2.88393e+00		         0.52833	4.00000e+00	
1.97394   	2.67473e+00		         0.53000	3.00000e+00	
1.98006   	2.48499e+00		         0.53167	3.00000e+00	
1.98645   	2.34537e+00		         0.53333	2.00000e+00	
1.99257   	2.14631e+00		         0.53500	2.00000e+00	
1.99869   	1.92320e+00		         0.53667	2.00000e+00	
2.00482   	1.78157e+00		         0.53833	2.00000e+00	
2.01121   	1.65148e+00		         0.54000	2.00000e+00	
2.01733   	1.53260e+00		         0.54167	2.00000e+00	
2.02345   	1.43623e+00		         0.54333	2.00000e+00	
2.02957   	1.34686e+00		         0.54500	2.00000e+00	
2.03596   	1.23738e+00		         0.54667	2.00000e+00	
2.04208   	1.13563e+00		         0.54833	2.00000e+00	
2.04821   	1.01384e+00		         0.55000	1.00000e+00	
2.05433   	1.03841e+00		         0.55167	0.00000e+00	
2.06072   	6.19528e-01		         0.55333	-1.00000e+00	
2.06684   	3.22536e-01		         0.55500	-2.00000e+00	
2.07296   	-1.85014e-01		         0.55667	-3.00000e+00	
2.07908   	-8.21139e-01		         0.55833	-4.00000e+00	
2.08547   	-1.46665e+00		         0.56000	-5.00000e+00	
2.09159   	-1.46217e+00		         0.56167	-6.00000e+00	
2.09772   	-1.56960e+00		         0.56333	-7.00000e+00	
2.10384   	-1.38486e+00		         0.56500	-8.00000e+00	
2.11023   	-1.05032e+00		         0.56667	-8.00000e+00	
2.11635   	-7.58838e-01		         0.56833	-8.00000e+00	
2.12247   	-7.59519e-01		         0.57000	-8.00000e+00	
2.12859   	-7.76455e-01		         0.57167	-7.00000e+00	
2.13499   	-9.20411e-01		         0.57333	-6.00000e+00	
2.14111   	-1.04783e+00		         0.57500	-5.00000e+00	
2.14723   	-1.35656e+00		         0.57667	-4.00000e+00	
2.15335   	-1.58726e+00		         0.57833	-3.00000e+00	
2.15981   	-1.94525e+00		         0.58000	-2.00000e+00	
2.16587   	-2.39353e+00		         0.58167	-1.00000e+00	
2.17198   	-2.84876e+00		         0.58333	-1.00000e+00	
2.17810   	-3.23881e+00		         0.58500	0.00000e+00	
2.18450   	-3.69711e+00		         0.58667	0.00000e+00	
2.19062   	-3.96313e+00		         0.58833	0.00000e+00	
2.19674   	-4.00381e+00		         0.59000	0.00000e+00	
2.20286   	-4.09778e+00		         0.59167	0.00000e+00	
2.20943   	-4.05737e+00		         0.59333	-1.00000e+00	
2.21538   	-3.88290e+00		         0.59500	-2.00000e+00	
2.22150   	-3.66402e+00		         0.59667	-3.00000e+00	
2.22762   	-3.52347e+00		         0.59833	-4.00000e+00	
2.23401   	-3.43453e+00		         0.60000	-5.00000e+00	
2.24013   	-3.34899e+00		         0.60167	-6.00000e+00	
2.24625   	-3.25723e+00		         0.60333	-6.00000e+00	
2.25237   	-3.19185e+00		         0.60500	-7.00000e+00	
2.25877   	-3.09727e+00		         0.60667	-7.00000e+00	
2.26489   	-2.86318e+00		         0.60833	-7.00000e+00	
2.27101   	-2.64197e+00		         0.61000	-7.00000e+00	
2.27713   	-2.41749e+00		         0.61167	-7.00000e+00	
2.28352   	-2.21573e+00		         0.61333	-6.00000e+00	
2.28964   	-1.96213e+00		         0.61500	-5.00000e+00	
2.29576   	-1.68405e+00		         0.61667	-5.00000e+00	
2.30188   	-1.44335e+00		         0.61833	-4.00000e+00	
2.30828   	-1.15400e+00		         0.62000	-3.00000e+00	
2.31440   	-8.67640e-01		         0.62167	-2.00000e+00	
2.32052   	-6.62458e-01		         0.62333	-2.00000e+00	
2.32664   	-5.24435e-01		         0.62500	-2.00000e+00	
2.33303   	-4.08663e-01		         0.62667	-3.00000e+00	
2.33916   	-3.71227e-01		         0.62833	-3.00000e+00	
2.34528   	-3.43597e-01		         0.63000	-4.00000e+00	
2.35140   	-3.80175e-01		         0.63167	-5.00000e+00	
2.35779   	-3.83972e-01		         0.63333	-6.00000e+00	
2.36391   	-3.85379e-01		         0.63500	-8.00000e+00	
2.37003   	-3.13945e-01		         0.63667	-9.00000e+00	
2.37615   	-2.57963e-01		         0.63833	-1.10000e+01	
2.38255   	-1.53024e-01		         0.64000	-1.20000e+01	
2.38867   	-1.24696e-01		         0.64167	-1.30000e+01	
2.39479   	-1.21793e-01		         0.64333	-1.40000e+01	
2.40091   	-2.51739e-01		         0.64500	-1.40000e+01	
2.40730   	-5.67795e-01		         0.64667	-1.40000e+01	
2.41343   	-8.66571e-01		         0.64833	-1.40000e+01	
2.41955   	-1.61324e+00		         0.65000	-1.40000e+01	
2.42567   	-2.53099e+00		         0.65167	-1.40000e+01	
2.43206   	-3.52619e+00		         0.65333	-1.30000e+01	
2.43818   	-4.59165e+00		         0.65500	-1.30000e+01	
2.44430   	-5.71874e+00		         0.65667	-1.20000e+01	
2.45042   	-6.44821e+00		         0.65833	-1.10000e+01	
2.45681   	-7.01055e+00		         0.66000	-1.10000e+01	
2.46293   	-7.27381e+00		         0.66167	-1.00000e+01	
2.46906   	-7.19384e+00		         0.66333	-1.00000e+01	
2.47521   	-6.81686e+00		         0.66500	-1.00000e+01	
2.48157   	-6.12538e+00		         0.66667	-1.00000e+01	
2.48769   	-5.21147e+00		         0.66833	-1.00000e+01	
2.49381   	-4.38566e+00		         0.67000	-9.00000e+00	
2.49993   	-3.46356e+00		         0.67167	-9.00000e+00	
2.50632   	-2.57824e+00		         0.67333	-8.00000e+00	
2.51245   	-1.93587e+00		         0.67500	-7.00000e+00	
2.51857   	-1.17691e+00		         0.67667	-5.00000e+00	
2.52508   	-2.70569e-01		         0.67833	-3.00000e+00	
2.53108   	1.32977e-01		         0.68000	-1.00000e+00	
2.53720   	4.83133e-01		         0.68167	2.00000e+00	
			         0.68333	5.00000e+00	
			         0.68500	9.00000e+00	
			         0.68667	1.30000e+01	
			         0.68833	1.60000e+01	
			         0.69000	2.00000e+01	
			         0.69167	2.40000e+01	
			         0.69333	2.70000e+01	
			         0.69500	3.00000e+01	
			         0.69667	3.30000e+01	
			         0.69833	3.50000e+01	
			         0.70000	3.70000e+01	
			         0.70167	3.90000e+01	
			         0.70333	4.10000e+01	
			         0.70500	4.30000e+01	
			         0.70667	4.50000e+01	
			         0.70833	4.70000e+01	
			         0.71000	4.90000e+01	
			         0.71167	5.10000e+01	
			         0.71333	5.40000e+01	
			         0.71500	5.60000e+01	
			         0.71667	5.90000e+01	
			         0.71833	6.10000e+01	
			         0.72000	6.30000e+01	
			         0.72167	6.50000e+01	
			         0.72333	6.70000e+01	
			         0.72500	6.90000e+01	
			         0.72667	7.10000e+01	
			         0.72833	7.20000e+01	
			         0.73000	7.30000e+01	
			         0.73167	7.30000e+01	
			         0.73333	7.40000e+01	
			         0.73500	7.40000e+01	
			         0.73667	7.30000e+01	
			         0.73833	7.30000e+01	
			         0.74000	7.20000e+01	
			         0.74167	7.00000e+01	
			         0.74333	6.80000e+01	
			         0.74500	6.60000e+01	
			         0.74667	6.30000e+01	
			         0.74833	6.00000e+01	
			         0.75000	5.60000e+01	
			         0.75167	5.20000e+01	
			         0.75333	4.70000e+01	
			         0.75500	4.20000e+01	
			         0.75667	3.70000e+01	
			         0.75833	3.10000e+01	
			         0.76000	2.40000e+01	
			         0.76167	1.80000e+01	
			         0.76333	1.10000e+01	
			         0.76500	4.00000e+00	
			         0.76667	-3.00000e+00	
			         0.76833	-1.00000e+01	
			         0.77000	-1.70000e+01	
			         0.77167	-2.30000e+01	
			         0.77333	-2.90000e+01	
			         0.77500	-3.50000e+01	
			         0.77667	-4.00000e+01	
			         0.77833	-4.50000e+01	
			         0.78000	-4.90000e+01	
			         0.78167	-5.30000e+01	
			         0.78333	-5.60000e+01	
			         0.78500	-5.80000e+01	
			         0.78667	-6.00000e+01	
			         0.78833	-6.20000e+01	
			         0.79000	-6.30000e+01	
			         0.79167	-6.40000e+01	
			         0.79333	-6.50000e+01	
			         0.79500	-6.50000e+01	
			         0.79667	-6.50000e+01	
			         0.79833	-6.40000e+01	
			         0.80000	-6.40000e+01	
			         0.80167	-6.30000e+01	
			         0.80333	-6.30000e+01	
			         0.80500	-6.20000e+01	
			         0.80667	-6.20000e+01	
			         0.80833	-6.10000e+01	
			         0.81000	-6.00000e+01	
			         0.81167	-6.00000e+01	
			         0.81333	-5.90000e+01	
			         0.81500	-5.80000e+01	
			         0.81667	-5.70000e+01	
			         0.81833	-5.60000e+01	
			         0.82000	-5.40000e+01	
			         0.82167	-5.10000e+01	
			         0.82333	-4.70000e+01	
			         0.82500	-4.10000e+01	
			         0.82667	-3.40000e+01	
			         0.82833	-2.40000e+01	
			         0.83000	-1.20000e+01	
			         0.83167	4.00000e+00	
			         0.83333	2.40000e+01	
			         0.83500	4.90000e+01	
			         0.83667	7.90000e+01	
			         0.83833	1.15000e+02	
			         0.84000	1.55000e+02	
			         0.84167	1.99000e+02	
			         0.84333	2.47000e+02	
			         0.84500	2.97000e+02	
			         0.84667	3.48000e+02	
			         0.84833	3.98000e+02	
			         0.85000	4.43000e+02	
			         0.85167	4.82000e+02	
			         0.85333	5.12000e+02	
			         0.85500	5.30000e+02	
			         0.85667	5.36000e+02	
			         0.85833	5.28000e+02	
			         0.86000	5.06000e+02	
			         0.86167	4.72000e+02	
			         0.86333	4.25000e+02	
			         0.86500	3.68000e+02	
			         0.86667	3.03000e+02	
			         0.86833	2.34000e+02	
			         0.87000	1.61000e+02	
			         0.87167	9.00000e+01	
			         0.87333	2.30000e+01	
			         0.87500	-3.90000e+01	
			         0.87667	-9.40000e+01	
			         0.87833	-1.40000e+02	
			         0.88000	-1.78000e+02	
			         0.88167	-2.08000e+02	
			         0.88333	-2.29000e+02	
			         0.88500	-2.42000e+02	
			         0.88667	-2.50000e+02	
			         0.88833	-2.52000e+02	
			         0.89000	-2.50000e+02	
			         0.89167	-2.46000e+02	
			         0.89333	-2.39000e+02	
			         0.89500	-2.31000e+02	
			         0.89667	-2.23000e+02	
			         0.89833	-2.14000e+02	
			         0.90000	-2.06000e+02	
			         0.90167	-1.98000e+02	
			         0.90333	-1.91000e+02	
			         0.90500	-1.84000e+02	
			         0.90667	-1.79000e+02	
			         0.90833	-1.73000e+02	
			         0.91000	-1.69000e+02	
			         0.91167	-1.64000e+02	
			         0.91333	-1.60000e+02	
			         0.91500	-1.57000e+02	
			         0.91667	-1.53000e+02	
			         0.91833	-1.50000e+02	
			         0.92000	-1.47000e+02	
			         0.92167	-1.44000e+02	
			         0.92333	-1.42000e+02	
			         0.92500	-1.39000e+02	
			         0.92667	-1.36000e+02	
			         0.92833	-1.33000e+02	
			         0.93000	-1.31000e+02	
			         0.93167	-1.28000e+02	
			         0.93333	-1.25000e+02	
			         0.93500	-1.23000e+02	
			         0.93667	-1.20000e+02	
			         0.93833	-1.17000e+02	
			         0.94000	-1.15000e+02	
			         0.94167	-1.12000e+02	
			         0.94333	-1.09000e+02	
			         0.94500	-1.06000e+02	
			         0.94667	-1.03000e+02	
			         0.94833	-1.00000e+02	
			         0.95000	-9.70000e+01	
			         0.95167	-9.40000e+01	
			         0.95333	-9.10000e+01	
			         0.95500	-8.90000e+01	
			         0.95667	-8.60000e+01	
			         0.95833	-8.30000e+01	
			         0.96000	-8.10000e+01	
			         0.96167	-7.80000e+01	
			         0.96333	-7.60000e+01	
			         0.96500	-7.30000e+01	
			         0.96667	-7.10000e+01	
			         0.96833	-6.80000e+01	
			         0.97000	-6.50000e+01	
			         0.97167	-6.30000e+01	
			         0.97333	-6.10000e+01	
			         0.97500	-5.80000e+01	
			         0.97667	-5.60000e+01	
			         0.97833	-5.50000e+01	
			         0.98000	-5.30000e+01	
			         0.98167	-5.10000e+01	
			         0.98333	-5.00000e+01	
			         0.98500	-4.80000e+01	
			         0.98667	-4.70000e+01	
			         0.98833	-4.60000e+01	
			         0.99000	-4.40000e+01	
			         0.99167	-4.30000e+01	
			         0.99333	-4.10000e+01	
			         0.99500	-4.00000e+01	
			         0.99667	-3.80000e+01	
			         0.99833	-3.70000e+01	
			         1.00000	-3.60000e+01	
			         1.00167	-3.40000e+01	
			         1.00333	-3.30000e+01	
			         1.00500	-3.20000e+01	
			         1.00667	-3.00000e+01	
			         1.00833	-2.90000e+01	
			         1.01000	-2.90000e+01	
			         1.01167	-2.80000e+01	
			         1.01333	-2.70000e+01	
			         1.01500	-2.60000e+01	
			         1.01667	-2.50000e+01	
			         1.01833	-2.40000e+01	
			         1.02000	-2.30000e+01	
			         1.02167	-2.20000e+01	
			         1.02333	-2.10000e+01	
			         1.02500	-1.90000e+01	
			         1.02667	-1.80000e+01	
			         1.02833	-1.70000e+01	
			         1.03000	-1.50000e+01	
			         1.03167	-1.40000e+01	
			         1.03333	-1.30000e+01	
			         1.03500	-1.20000e+01	
			         1.03667	-1.10000e+01	
			         1.03833	-1.00000e+01	
			         1.04000	-9.00000e+00	
			         1.04167	-8.00000e+00	
			         1.04333	-8.00000e+00	
			         1.04500	-8.00000e+00	
			         1.04667	-8.00000e+00	
			         1.04833	-8.00000e+00	
			         1.05000	-8.00000e+00	
			         1.05167	-8.00000e+00	
			         1.05333	-8.00000e+00	
			         1.05500	-8.00000e+00	
			         1.05667	-7.00000e+00	
			         1.05833	-7.00000e+00	
			         1.06000	-6.00000e+00	
			         1.06167	-5.00000e+00	
			         1.06333	-3.00000e+00	
			         1.06500	-2.00000e+00	
			         1.06667	0.00000e+00	
			         1.06833	2.00000e+00	
			         1.07000	4.00000e+00	
			         1.07167	7.00000e+00	
			         1.07333	9.00000e+00	
			         1.07500	1.10000e+01	
			         1.07667	1.20000e+01	
			         1.07833	1.40000e+01	
			         1.08000	1.60000e+01	
			         1.08167	1.70000e+01	
			         1.08333	1.80000e+01	
			         1.08500	2.00000e+01	
			         1.08667	2.10000e+01	
			         1.08833	2.30000e+01	
			         1.09000	2.40000e+01	
			         1.09167	2.60000e+01	
			         1.09333	2.80000e+01	
			         1.09500	3.00000e+01	
			         1.09667	3.30000e+01	
			         1.09833	3.50000e+01	
			         1.10000	3.80000e+01	
			         1.10167	4.10000e+01	
			         1.10333	4.50000e+01	
			         1.10500	4.80000e+01	
			         1.10667	5.10000e+01	
			         1.10833	5.40000e+01	
			         1.11000	5.70000e+01	
			         1.11167	6.00000e+01	
			         1.11333	6.30000e+01	
			         1.11500	6.60000e+01	
			         1.11667	6.90000e+01	
			         1.11833	7.10000e+01	
			         1.12000	7.40000e+01	
			         1.12167	7.60000e+01	
			         1.12333	7.80000e+01	
			         1.12500	8.00000e+01	
			         1.12667	8.20000e+01	
			         1.12833	8.40000e+01	
			         1.13000	8.50000e+01	
			         1.13167	8.70000e+01	
			         1.13333	8.80000e+01	
			         1.13500	9.00000e+01	
			         1.13667	9.10000e+01	
			         1.13833	9.20000e+01	
			         1.14000	9.30000e+01	
			         1.14167	9.40000e+01	
			         1.14333	9.50000e+01	
			         1.14500	9.60000e+01	
			         1.14667	9.60000e+01	
			         1.14833	9.60000e+01	
			         1.15000	9.60000e+01	
			         1.15167	9.50000e+01	
			         1.15333	9.40000e+01	
			         1.15500	9.30000e+01	
			         1.15667	9.10000e+01	
			         1.15833	8.90000e+01	
			         1.16000	8.70000e+01	
			         1.16167	8.40000e+01	
			         1.16333	8.10000e+01	
			         1.16500	7.80000e+01	
			         1.16667	7.40000e+01	
			         1.16833	7.00000e+01	
			         1.17000	6.60000e+01	
			         1.17167	6.20000e+01	
			         1.17333	5.80000e+01	
			         1.17500	5.30000e+01	
			         1.17667	4.90000e+01	
			         1.17833	4.50000e+01	
			         1.18000	4.10000e+01	
			         1.18167	3.70000e+01	
			         1.18333	3.30000e+01	
			         1.18500	3.00000e+01	
			         1.18667	2.60000e+01	
			         1.18833	2.30000e+01	
			         1.19000	2.00000e+01	
			         1.19167	1.70000e+01	
			         1.19333	1.40000e+01	
			         1.19500	1.10000e+01	
			         1.19667	9.00000e+00	
			         1.19833	7.00000e+00	
			         1.20000	5.00000e+00	
			         1.20167	4.00000e+00	
			         1.20333	2.00000e+00	
			         1.20500	0.00000e+00	
			         1.20667	-1.00000e+00	
			         1.20833	-2.00000e+00	
			         1.21000	-4.00000e+00	
			         1.21167	-6.00000e+00	
			         1.21333	-7.00000e+00	
			         1.21500	-9.00000e+00	
			         1.21667	-1.10000e+01	
			         1.21833	-1.20000e+01	
			         1.22000	-1.40000e+01	
			         1.22167	-1.60000e+01	
			         1.22333	-1.70000e+01	
			         1.22500	-1.80000e+01	
			         1.22667	-1.90000e+01	
			         1.22833	-2.00000e+01	
			         1.23000	-2.00000e+01	
			         1.23167	-2.10000e+01	
			         1.23333	-2.10000e+01	
			         1.23500	-2.20000e+01	
			         1.23667	-2.20000e+01	
			         1.23833	-2.20000e+01	
			         1.24000	-2.20000e+01	
			         1.24167	-2.20000e+01	
			         1.24333	-2.10000e+01	
			         1.24500	-2.10000e+01	
			         1.24667	-2.10000e+01	
			         1.24833	-2.00000e+01	
			         1.25000	-2.00000e+01	
			         1.25167	-1.90000e+01	
			         1.25333	-1.90000e+01	
			         1.25500	-1.80000e+01	
			         1.25667	-1.80000e+01	
			         1.25833	-1.80000e+01	
			         1.26000	-1.80000e+01	
			         1.26167	-1.70000e+01	
			         1.26333	-1.80000e+01	
			         1.26500	-1.80000e+01	
			         1.26667	-1.80000e+01	
			         1.26833	-1.80000e+01	
			         1.27000	-1.80000e+01	
			         1.27167	-1.80000e+01	
			         1.27333	-1.80000e+01	
			         1.27500	-1.80000e+01	
			         1.27667	-1.80000e+01	
			         1.27833	-1.80000e+01	
			         1.28000	-1.80000e+01	
			         1.28167	-1.70000e+01	
			         1.28333	-1.70000e+01	
			         1.28500	-1.70000e+01	
			         1.28667	-1.60000e+01	
			         1.28833	-1.50000e+01	
			         1.29000	-1.50000e+01	
			         1.29167	-1.40000e+01	
			         1.29333	-1.30000e+01	
			         1.29500	-1.20000e+01	
			         1.29667	-1.20000e+01	
			         1.29833	-1.10000e+01	
			         1.30000	-1.00000e+01	
			         1.30167	-9.00000e+00	
			         1.30333	-9.00000e+00	
			         1.30500	-8.00000e+00	
			         1.30667	-7.00000e+00	
			         1.30833	-6.00000e+00	
			         1.31000	-6.00000e+00	
			         1.31167	-6.00000e+00	
			         1.31333	-6.00000e+00	
			         1.31500	-5.00000e+00	
			         1.31667	-5.00000e+00	
			         1.31833	-5.00000e+00	
			         1.32000	-5.00000e+00	
			         1.32167	-5.00000e+00	
			         1.32333	-5.00000e+00	
			         1.32500	-4.00000e+00	
			         1.32667	-4.00000e+00	
			         1.32833	-3.00000e+00	
			         1.33000	-3.00000e+00	
			         1.33167	-2.00000e+00	
			         1.33333	-1.00000e+00	
			         1.33500	0.00000e+00	
			         1.33667	1.00000e+00	
			         1.33833	1.00000e+00	
			         1.34000	2.00000e+00	
			         1.34167	3.00000e+00	
			         1.34333	4.00000e+00	
			         1.34500	4.00000e+00	
			         1.34667	5.00000e+00	
			         1.34833	6.00000e+00	
			         1.35000	7.00000e+00	
			         1.35167	8.00000e+00	
			         1.35333	8.00000e+00	
			         1.35500	9.00000e+00	
			         1.35667	1.00000e+01	
			         1.35833	1.00000e+01	
			         1.36000	1.00000e+01	
			         1.36167	1.10000e+01	
			         1.36333	1.10000e+01	
			         1.36500	1.10000e+01	
			         1.36667	1.00000e+01	
			         1.36833	1.00000e+01	
			         1.37000	1.00000e+01	
			         1.37167	9.00000e+00	
			         1.37333	8.00000e+00	
			         1.37500	8.00000e+00	
			         1.37667	7.00000e+00	
			         1.37833	7.00000e+00	
			         1.38000	7.00000e+00	
			         1.38167	7.00000e+00	
			         1.38333	7.00000e+00	
			         1.38500	7.00000e+00	
			         1.38667	7.00000e+00	
			         1.38833	8.00000e+00	
			         1.39000	8.00000e+00	
			         1.39167	9.00000e+00	
			         1.39333	9.00000e+00	
			         1.39500	9.00000e+00	
			         1.39667	9.00000e+00	
			         1.39833	9.00000e+00	
			         1.40000	9.00000e+00	
			         1.40167	9.00000e+00	
			         1.40333	9.00000e+00	
			         1.40500	9.00000e+00	
			         1.40667	9.00000e+00	
			         1.40833	9.00000e+00	
			         1.41000	9.00000e+00	
			         1.41167	9.00000e+00	
			         1.41333	9.00000e+00	
			         1.41500	9.00000e+00	
			         1.41667	9.00000e+00	
			         1.41833	9.00000e+00	
			         1.42000	9.00000e+00	
			         1.42167	9.00000e+00	
			         1.42333	9.00000e+00	
			         1.42500	9.00000e+00	
			         1.42667	8.00000e+00	
			         1.42833	8.00000e+00	
			         1.43000	8.00000e+00	
			         1.43167	7.00000e+00	
			         1.43333	7.00000e+00	
			         1.43500	6.00000e+00	
			         1.43667	5.00000e+00	
			         1.43833	4.00000e+00	
			         1.44000	4.00000e+00	
			         1.44167	3.00000e+00	
			         1.44333	2.00000e+00	
			         1.44500	1.00000e+00	
			         1.44667	0.00000e+00	
			         1.44833	0.00000e+00	
			         1.45000	-1.00000e+00	
			         1.45167	-1.00000e+00	
			         1.45333	-1.00000e+00	
			         1.45500	-1.00000e+00	
			         1.45667	-1.00000e+00	
			         1.45833	-1.00000e+00	
			         1.46000	-1.00000e+00	
			         1.46167	-1.00000e+00	
			         1.46333	-1.00000e+00	
			         1.46500	-1.00000e+00	
			         1.46667	-1.00000e+00	
			         1.46833	-1.00000e+00	
			         1.47000	-1.00000e+00	
			         1.47167	-1.00000e+00	
			         1.47333	-1.00000e+00	
			         1.47500	-1.00000e+00	
			         1.47667	-1.00000e+00	
			         1.47833	0.00000e+00	
			         1.48000	0.00000e+00	
			         1.48167	0.00000e+00	
			         1.48333	1.00000e+00	
			         1.48500	1.00000e+00	
			         1.48667	1.00000e+00	
			         1.48833	2.00000e+00	
			         1.49000	2.00000e+00	
			         1.49167	2.00000e+00	
			         1.49333	2.00000e+00	
			         1.49500	2.00000e+00	
			         1.49667	2.00000e+00	
			         1.49833	2.00000e+00	
			         1.50000	2.00000e+00	
			         1.50167	3.00000e+00	
			         1.50333	3.00000e+00	
			         1.50500	4.00000e+00	
			         1.50667	5.00000e+00	
			         1.50833	7.00000e+00	
			         1.51000	8.00000e+00	
			         1.51167	1.00000e+01	
			         1.51333	1.30000e+01	
			         1.51500	1.50000e+01	
			         1.51667	1.80000e+01	
			         1.51833	2.00000e+01	
			         1.52000	2.30000e+01	
			         1.52167	2.60000e+01	
			         1.52333	2.90000e+01	
			         1.52500	3.20000e+01	
			         1.52667	3.50000e+01	
			         1.52833	3.80000e+01	
			         1.53000	4.00000e+01	
			         1.53167	4.30000e+01	
			         1.53333	4.50000e+01	
			         1.53500	4.70000e+01	
			         1.53667	4.90000e+01	
			         1.53833	5.10000e+01	
			         1.54000	5.30000e+01	
			         1.54167	5.50000e+01	
			         1.54333	5.80000e+01	
			         1.54500	6.00000e+01	
			         1.54667	6.20000e+01	
			         1.54833	6.40000e+01	
			         1.55000	6.60000e+01	
			         1.55167	6.80000e+01	
			         1.55333	6.90000e+01	
			         1.55500	7.10000e+01	
			         1.55667	7.20000e+01	
			         1.55833	7.30000e+01	
			         1.56000	7.40000e+01	
			         1.56167	7.50000e+01	
			         1.56333	7.50000e+01	
			         1.56500	7.60000e+01	
			         1.56667	7.60000e+01	
			         1.56833	7.60000e+01	
			         1.57000	7.50000e+01	
			         1.57167	7.50000e+01	
			         1.57333	7.40000e+01	
			         1.57500	7.30000e+01	
			         1.57667	7.20000e+01	
			         1.57833	7.10000e+01	
			         1.58000	6.90000e+01	
			         1.58167	6.70000e+01	
			         1.58333	6.50000e+01	
			         1.58500	6.20000e+01	
			         1.58667	5.90000e+01	
			         1.58833	5.60000e+01	
			         1.59000	5.20000e+01	
			         1.59167	4.70000e+01	
			         1.59333	4.20000e+01	
			         1.59500	3.60000e+01	
			         1.59667	3.00000e+01	
			         1.59833	2.40000e+01	
			         1.60000	1.70000e+01	
			         1.60167	1.00000e+01	
			         1.60333	3.00000e+00	
			         1.60500	-4.00000e+00	
			         1.60667	-1.20000e+01	
			         1.60833	-1.80000e+01	
			         1.61000	-2.50000e+01	
			         1.61167	-3.10000e+01	
			         1.61333	-3.60000e+01	
			         1.61500	-4.10000e+01	
			         1.61667	-4.50000e+01	
			         1.61833	-4.80000e+01	
			         1.62000	-5.10000e+01	
			         1.62167	-5.30000e+01	
			         1.62333	-5.50000e+01	
			         1.62500	-5.60000e+01	
			         1.62667	-5.70000e+01	
			         1.62833	-5.70000e+01	
			         1.63000	-5.70000e+01	
			         1.63167	-5.70000e+01	
			         1.63333	-5.70000e+01	
			         1.63500	-5.70000e+01	
			         1.63667	-5.60000e+01	
			         1.63833	-5.50000e+01	
			         1.64000	-5.50000e+01	
			         1.64167	-5.40000e+01	
			         1.64333	-5.30000e+01	
			         1.64500	-5.20000e+01	
			         1.64667	-5.00000e+01	
			         1.64833	-4.90000e+01	
			         1.65000	-4.80000e+01	
			         1.65167	-4.60000e+01	
			         1.65333	-4.50000e+01	
			         1.65500	-4.30000e+01	
			         1.65667	-4.10000e+01	
			         1.65833	-3.80000e+01	
			         1.66000	-3.30000e+01	
			         1.66167	-2.70000e+01	
			         1.66333	-2.00000e+01	
			         1.66500	-1.00000e+01	
			         1.66667	3.00000e+00	
			         1.66833	1.90000e+01	
			         1.67000	4.00000e+01	
			         1.67167	6.60000e+01	
			         1.67333	9.70000e+01	
			         1.67500	1.34000e+02	
			         1.67667	1.75000e+02	
			         1.67833	2.21000e+02	
			         1.68000	2.70000e+02	
			         1.68167	3.20000e+02	
			         1.68333	3.71000e+02	
			         1.68500	4.19000e+02	
			         1.68667	4.62000e+02	
			         1.68833	4.98000e+02	
			         1.69000	5.23000e+02	
			         1.69167	5.37000e+02	
			         1.69333	5.38000e+02	
			         1.69500	5.24000e+02	
			         1.69667	4.98000e+02	
			         1.69833	4.58000e+02	
			         1.70000	4.08000e+02	
			         1.70167	3.48000e+02	
			         1.70333	2.81000e+02	
			         1.70500	2.11000e+02	
			         1.70667	1.39000e+02	
			         1.70833	7.00000e+01	
			         1.71000	5.00000e+00	
			         1.71167	-5.40000e+01	
			         1.71333	-1.05000e+02	
			         1.71500	-1.48000e+02	
			         1.71667	-1.82000e+02	
			         1.71833	-2.08000e+02	
			         1.72000	-2.26000e+02	
			         1.72167	-2.37000e+02	
			         1.72333	-2.43000e+02	
			         1.72500	-2.44000e+02	
			         1.72667	-2.42000e+02	
			         1.72833	-2.37000e+02	
			         1.73000	-2.31000e+02	
			         1.73167	-2.24000e+02	
			         1.73333	-2.17000e+02	
			         1.73500	-2.09000e+02	
			         1.73667	-2.02000e+02	
			         1.73833	-1.95000e+02	
			         1.74000	-1.89000e+02	
			         1.74167	-1.83000e+02	
			         1.74333	-1.78000e+02	
			         1.74500	-1.74000e+02	
			         1.74667	-1.69000e+02	
			         1.74833	-1.66000e+02	
			         1.75000	-1.62000e+02	
			         1.75167	-1.58000e+02	
			         1.75333	-1.55000e+02	
			         1.75500	-1.52000e+02	
			         1.75667	-1.49000e+02	
			         1.75833	-1.46000e+02	
			         1.76000	-1.43000e+02	
			         1.76167	-1.39000e+02	
			         1.76333	-1.36000e+02	
			         1.76500	-1.33000e+02	
			         1.76667	-1.30000e+02	
			         1.76833	-1.27000e+02	
			         1.77000	-1.24000e+02	
			         1.77167	-1.22000e+02	
			         1.77333	-1.19000e+02	
			         1.77500	-1.16000e+02	
			         1.77667	-1.14000e+02	
			         1.77833	-1.11000e+02	
			         1.78000	-1.09000e+02	
			         1.78167	-1.07000e+02	
			         1.78333	-1.04000e+02	
			         1.78500	-1.02000e+02	
			         1.78667	-1.00000e+02	
			         1.78833	-9.80000e+01	
			         1.79000	-9.50000e+01	
			         1.79167	-9.30000e+01	
			         1.79333	-9.00000e+01	
			         1.79500	-8.80000e+01	
			         1.79667	-8.50000e+01	
			         1.79833	-8.30000e+01	
			         1.80000	-8.10000e+01	
			         1.80167	-7.90000e+01	
			         1.80333	-7.70000e+01	
			         1.80500	-7.50000e+01	
			         1.80667	-7.30000e+01	
			         1.80833	-7.10000e+01	
			         1.81000	-6.90000e+01	
			         1.81167	-6.70000e+01	
			         1.81333	-6.50000e+01	
			         1.81500	-6.40000e+01	
			         1.81667	-6.20000e+01	
			         1.81833	-6.00000e+01	
			         1.82000	-5.80000e+01	
			         1.82167	-5.60000e+01	
			         1.82333	-5.40000e+01	
			         1.82500	-5.20000e+01	
			         1.82667	-5.00000e+01	
			         1.82833	-4.90000e+01	
			         1.83000	-4.70000e+01	
			         1.83167	-4.60000e+01	
			         1.83333	-4.50000e+01	
			         1.83500	-4.40000e+01	
			         1.83667	-4.30000e+01	
			         1.83833	-4.20000e+01	
			         1.84000	-4.20000e+01	
			         1.84167	-4.10000e+01	
			         1.84333	-4.10000e+01	
			         1.84500	-4.10000e+01	
			         1.84667	-4.10000e+01	
			         1.84833	-4.00000e+01	
			         1.85000	-3.90000e+01	
			         1.85167	-3.90000e+01	
			         1.85333	-3.70000e+01	
			         1.85500	-3.60000e+01	
			         1.85667	-3.50000e+01	
			         1.85833	-3.30000e+01	
			         1.86000	-3.20000e+01	
			         1.86167	-3.00000e+01	
			         1.86333	-2.90000e+01	
			         1.86500	-2.80000e+01	
			         1.86667	-2.70000e+01	
			         1.86833	-2.60000e+01	
			         1.87000	-2.50000e+01	
			         1.87167	-2.50000e+01	
			         1.87333	-2.50000e+01	
			         1.87500	-2.50000e+01	
			         1.87667	-2.40000e+01	
			         1.87833	-2.40000e+01	
			         1.88000	-2.40000e+01	
			         1.88167	-2.30000e+01	
			         1.88333	-2.20000e+01	
			         1.88500	-2.20000e+01	
			         1.88667	-2.10000e+01	
			         1.88833	-2.00000e+01	
			         1.89000	-1.90000e+01	
			         1.89167	-1.70000e+01	
			         1.89333	-1.60000e+01	
			         1.89500	-1.40000e+01	
			         1.89667	-1.30000e+01	
			         1.89833	-1.10000e+01	
			         1.90000	-9.00000e+00	
			         1.90167	-8.00000e+00	
			         1.90333	-6.00000e+00	
			         1.90500	-4.00000e+00	
			         1.90667	-1.00000e+00	
			         1.90833	1.00000e+00	
			         1.91000	4.00000e+00	
			         1.91167	6.00000e+00	
			         1.91333	9.00000e+00	
			         1.91500	1.20000e+01	
			         1.91667	1.50000e+01	
			         1.91833	1.80000e+01	
			         1.92000	2.10000e+01	
			         1.92167	2.40000e+01	
			         1.92333	2.60000e+01	
			         1.92500	2.90000e+01	
			         1.92667	3.10000e+01	
			         1.92833	3.30000e+01	
			         1.93000	3.50000e+01	
			         1.93167	3.70000e+01	
			         1.93333	3.90000e+01	
			         1.93500	4.10000e+01	
			         1.93667	4.30000e+01	
			         1.93833	4.50000e+01	
			         1.94000	4.70000e+01	
			         1.94167	4.90000e+01	
			         1.94333	5.10000e+01	
			         1.94500	5.30000e+01	
			         1.94667	5.50000e+01	
			         1.94833	5.80000e+01	
			         1.95000	6.00000e+01	
			         1.95167	6.30000e+01	
			         1.95333	6.50000e+01	
			         1.95500	6.80000e+01	
			         1.95667	7.00000e+01	
			         1.95833	7.30000e+01	
			         1.96000	7.50000e+01	
			         1.96167	7.70000e+01	
			         1.96333	7.90000e+01	
			         1.96500	8.10000e+01	
			         1.96667	8.30000e+01	
			         1.96833	8.40000e+01	
			         1.97000	8.50000e+01	
			         1.97167	8.60000e+01	
			         1.97333	8.70000e+01	
			         1.97500	8.70000e+01	
			         1.97667	8.80000e+01	
			         1.97833	8.80000e+01	
			         1.98000	8.80000e+01	
			         1.98167	8.70000e+01	
			         1.98333	8.70000e+01	
			         1.98500	8.60000e+01	
			         1.98667	8.50000e+01	
			         1.98833	8.40000e+01	
			         1.99000	8.30000e+01	
			         1.99167	8.20000e+01	
			         1.99333	8.00000e+01	
			         1.99500	7.80000e+01	
			         1.99667	7.60000e+01	
			         1.99833	7.30000e+01	
			         2.00000	7.00000e+01	
			         2.00167	6.70000e+01	
			         2.00333	6.30000e+01	
			         2.00500	6.00000e+01	
			         2.00667	5.60000e+01	
			         2.00833	5.10000e+01	
			         2.01000	4.70000e+01	
			         2.01167	4.30000e+01	
			         2.01333	3.80000e+01	
			         2.01500	3.40000e+01	
			         2.01667	3.00000e+01	
			         2.01833	2.60000e+01	
			         2.02000	2.20000e+01	
			         2.02167	1.80000e+01	
			         2.02333	1.40000e+01	
			         2.02500	1.10000e+01	
			         2.02667	8.00000e+00	
			         2.02833	5.00000e+00	
			         2.03000	3.00000e+00	
			         2.03167	0.00000e+00	
			         2.03333	-2.00000e+00	
			         2.03500	-4.00000e+00	
			         2.03667	-6.00000e+00	
			         2.03833	-8.00000e+00	
			         2.04000	-9.00000e+00	
			         2.04167	-1.00000e+01	
			         2.04333	-1.20000e+01	
			         2.04500	-1.30000e+01	
			         2.04667	-1.40000e+01	
			         2.04833	-1.50000e+01	
			         2.05000	-1.60000e+01	
			         2.05167	-1.80000e+01	
			         2.05333	-1.90000e+01	
			         2.05500	-2.00000e+01	
			         2.05667	-2.10000e+01	
			         2.05833	-2.20000e+01	
			         2.06000	-2.20000e+01	
			         2.06167	-2.30000e+01	
			         2.06333	-2.30000e+01	
			         2.06500	-2.40000e+01	
			         2.06667	-2.40000e+01	
			         2.06833	-2.40000e+01	
			         2.07000	-2.40000e+01	
			         2.07167	-2.40000e+01	
			         2.07333	-2.30000e+01	
			         2.07500	-2.30000e+01	
			         2.07667	-2.30000e+01	
			         2.07833	-2.30000e+01	
			         2.08000	-2.30000e+01	
			         2.08167	-2.30000e+01	
			         2.08333	-2.30000e+01	
			         2.08500	-2.30000e+01	
			         2.08667	-2.30000e+01	
			         2.08833	-2.30000e+01	
			         2.09000	-2.30000e+01	
			         2.09167	-2.30000e+01	
			         2.09333	-2.30000e+01	
			         2.09500	-2.30000e+01	
			         2.09667	-2.30000e+01	
			         2.09833	-2.30000e+01	
			         2.10000	-2.20000e+01	
			         2.10167	-2.20000e+01	
			         2.10333	-2.10000e+01	
			         2.10500	-2.00000e+01	
			         2.10667	-2.00000e+01	
			         2.10833	-1.90000e+01	
			         2.11000	-1.90000e+01	
			         2.11167	-1.80000e+01	
			         2.11333	-1.70000e+01	
			         2.11500	-1.70000e+01	
			         2.11667	-1.70000e+01	
			         2.11833	-1.70000e+01	
			         2.12000	-1.70000e+01	
			         2.12167	-1.70000e+01	
			         2.12333	-1.80000e+01	
			         2.12500	-1.80000e+01	
			         2.12667	-1.80000e+01	
			         2.12833	-1.80000e+01	
			         2.13000	-1.70000e+01	
			         2.13167	-1.70000e+01	
			         2.13333	-1.60000e+01	
			         2.13500	-1.60000e+01	
			         2.13667	-1.50000e+01	
			         2.13833	-1.40000e+01	
			         2.14000	-1.30000e+01	
			         2.14167	-1.20000e+01	
			         2.14333	-1.10000e+01	
			         2.14500	-1.10000e+01	
			         2.14667	-1.00000e+01	
			         2.14833	-1.00000e+01	
			         2.15000	-1.00000e+01	
			         2.15167	-1.00000e+01	
			         2.15333	-1.00000e+01	
			         2.15500	-9.00000e+00	
			         2.15667	-9.00000e+00	
			         2.15833	-9.00000e+00	
			         2.16000	-8.00000e+00	
			         2.16167	-8.00000e+00	
			         2.16333	-7.00000e+00	
			         2.16500	-7.00000e+00	
			         2.16667	-6.00000e+00	
			         2.16833	-4.00000e+00	
			         2.17000	-3.00000e+00	
			         2.17167	-2.00000e+00	
			         2.17333	-1.00000e+00	
			         2.17500	0.00000e+00	
			         2.17667	1.00000e+00	
			         2.17833	3.00000e+00	
			         2.18000	4.00000e+00	
			         2.18167	5.00000e+00	
			         2.18333	5.00000e+00	
			         2.18500	6.00000e+00	
			         2.18667	7.00000e+00	
			         2.18833	7.00000e+00	
			         2.19000	8.00000e+00	
			         2.19167	8.00000e+00	
			         2.19333	8.00000e+00	
			         2.19500	8.00000e+00	
			         2.19667	8.00000e+00	
			         2.19833	8.00000e+00	
			         2.20000	7.00000e+00	
			         2.20167	7.00000e+00	
			         2.20333	6.00000e+00	
			         2.20500	6.00000e+00	
			         2.20667	5.00000e+00	
			         2.20833	4.00000e+00	
			         2.21000	4.00000e+00	
			         2.21167	3.00000e+00	
			         2.21333	3.00000e+00	
			         2.21500	2.00000e+00	
			         2.21667	2.00000e+00	
			         2.21833	1.00000e+00	
			         2.22000	1.00000e+00	
			         2.22167	1.00000e+00	
			         2.22333	0.00000e+00	
			         2.22500	0.00000e+00	
			         2.22667	0.00000e+00	
			         2.22833	-1.00000e+00	
			         2.23000	-1.00000e+00	
			         2.23167	-1.00000e+00	
			         2.23333	-1.00000e+00	
			         2.23500	-1.00000e+00	
			         2.23667	-1.00000e+00	
			         2.23833	-1.00000e+00	
			         2.24000	-1.00000e+00	
			         2.24167	-2.00000e+00	
			         2.24333	-2.00000e+00	
			         2.24500	-2.00000e+00	
			         2.24667	-3.00000e+00	
			         2.24833	-3.00000e+00	
			         2.25000	-4.00000e+00	
			         2.25167	-4.00000e+00	
			         2.25333	-5.00000e+00	
			         2.25500	-5.00000e+00	
			         2.25667	-5.00000e+00	
			         2.25833	-6.00000e+00	
			         2.26000	-6.00000e+00	
			         2.26167	-6.00000e+00	
			         2.26333	-6.00000e+00	
			         2.26500	-6.00000e+00	
			         2.26667	-6.00000e+00	
			         2.26833	-6.00000e+00	
			         2.27000	-6.00000e+00	
			         2.27167	-6.00000e+00	
			         2.27333	-7.00000e+00	
			         2.27500	-7.00000e+00	
			         2.27667	-7.00000e+00	
			         2.27833	-8.00000e+00	
			         2.28000	-8.00000e+00	
			         2.28167	-9.00000e+00	
			         2.28333	-9.00000e+00	
			         2.28500	-1.00000e+01	
			         2.28667	-1.00000e+01	
			         2.28833	-1.00000e+01	
			         2.29000	-1.10000e+01	
			         2.29167	-1.10000e+01	
			         2.29333	-1.10000e+01	
			         2.29500	-1.10000e+01	
			         2.29667	-1.10000e+01	
			         2.29833	-1.00000e+01	
			         2.30000	-1.00000e+01	
			         2.30167	-9.00000e+00	
			         2.30333	-9.00000e+00	
			         2.30500	-8.00000e+00	
			         2.30667	-7.00000e+00	
			         2.30833	-6.00000e+00	
			         2.31000	-6.00000e+00	
			         2.31167	-5.00000e+00	
			         2.31333	-5.00000e+00	
			         2.31500	-5.00000e+00	
			         2.31667	-5.00000e+00	
			         2.31833	-5.00000e+00	
			         2.32000	-5.00000e+00	
			         2.32167	-5.00000e+00	
			         2.32333	-5.00000e+00	
			         2.32500	-6.00000e+00	
			         2.32667	-6.00000e+00	
			         2.32833	-6.00000e+00	
			         2.33000	-6.00000e+00	
			         2.33167	-6.00000e+00	
			         2.33333	-5.00000e+00	
			         2.33500	-4.00000e+00	
			         2.33667	-3.00000e+00	
			         2.33833	-2.00000e+00	
			         2.34000	-1.00000e+00	
			         2.34167	1.00000e+00	
			         2.34333	3.00000e+00	
			         2.34500	5.00000e+00	
			         2.34667	8.00000e+00	
			         2.34833	1.00000e+01	
			         2.35000	1.30000e+01	
			         2.35167	1.60000e+01	
			         2.35333	1.90000e+01	
			         2.35500	2.20000e+01	
			         2.35667	2.40000e+01	
			         2.35833	2.60000e+01	
			         2.36000	2.90000e+01	
			         2.36167	3.10000e+01	
			         2.36333	3.30000e+01	
			         2.36500	3.50000e+01	
			         2.36667	3.70000e+01	
			         2.36833	4.00000e+01	
			         2.37000	4.20000e+01	
			         2.37167	4.40000e+01	
			         2.37333	4.70000e+01	
			         2.37500	4.90000e+01	
			         2.37667	5.20000e+01	
			         2.37833	5.50000e+01	
			         2.38000	5.80000e+01	
			         2.38167	6.00000e+01	
			         2.38333	6.30000e+01	
			         2.38500	6.50000e+01	
			         2.38667	6.70000e+01	
			         2.38833	6.90000e+01	
			         2.39000	7.00000e+01	
			         2.39167	7.10000e+01	
			         2.39333	7.20000e+01	
			         2.39500	7.30000e+01	
			         2.39667	7.40000e+01	
			         2.39833	7.40000e+01	
			         2.40000	7.30000e+01	
			         2.40167	7.30000e+01	
			         2.40333	7.20000e+01	
			         2.40500	7.10000e+01	
			         2.40667	7.00000e+01	
			         2.40833	6.80000e+01	
			         2.41000	6.60000e+01	
			         2.41167	6.40000e+01	
			         2.41333	6.10000e+01	
			         2.41500	5.70000e+01	
			         2.41667	5.30000e+01	
			         2.41833	4.80000e+01	
			         2.42000	4.30000e+01	
			         2.42167	3.70000e+01	
			         2.42333	3.10000e+01	
			         2.42500	2.40000e+01	
			         2.42667	1.70000e+01	
			         2.42833	9.00000e+00	
			         2.43000	1.00000e+00	
			         2.43167	-7.00000e+00	
			         2.43333	-1.40000e+01	
			         2.43500	-2.20000e+01	
			         2.43667	-2.90000e+01	
			         2.43833	-3.50000e+01	
			         2.44000	-4.10000e+01	
			         2.44167	-4.70000e+01	
			         2.44333	-5.10000e+01	
			         2.44500	-5.50000e+01	
			         2.44667	-5.80000e+01	
			         2.44833	-6.10000e+01	
			         2.45000	-6.20000e+01	
			         2.45167	-6.40000e+01	
			         2.45333	-6.50000e+01	
			         2.45500	-6.50000e+01	
			         2.45667	-6.50000e+01	
			         2.45833	-6.50000e+01	
			         2.46000	-6.50000e+01	
			         2.46167	-6.50000e+01	
			         2.46333	-6.50000e+01	
			         2.46500	-6.40000e+01	
			         2.46667	-6.40000e+01	
			         2.46833	-6.30000e+01	
			         2.47000	-6.20000e+01	
			         2.47167	-6.20000e+01	
			         2.47333	-6.10000e+01	
			         2.47500	-6.00000e+01	
			         2.47667	-5.90000e+01	
			         2.47833	-5.80000e+01	
			         2.48000	-5.70000e+01	
			         2.48167	-5.60000e+01	
			         2.48333	-5.50000e+01	
			         2.48500	-5.30000e+01	
			         2.48667	-5.00000e+01	
			         2.48833	-4.60000e+01	
			         2.49000	-4.10000e+01	
			         2.49167	-3.40000e+01	
			         2.49333	-2.40000e+01	
			         2.49500	-1.20000e+01	
			         2.49667	5.00000e+00	
			         2.49833	2.70000e+01	
			         2.50000	5.30000e+01	
			         2.50167	8.60000e+01	
			         2.50333	1.24000e+02	
			         2.50500	1.67000e+02	
			         2.50667	2.15000e+02	
			         2.50833	2.66000e+02	
			         2.51000	3.18000e+02	
			         2.51167	3.71000e+02	
			         2.51333	4.22000e+02	
			         2.51500	4.67000e+02	
			         2.51667	5.05000e+02	
			         2.51833	5.32000e+02	
			         2.52000	5.46000e+02	
			         2.52167	5.46000e+02	
			         2.52333	5.32000e+02	
			         2.52500	5.04000e+02	
			         2.52667	4.62000e+02	
			         2.52833	4.08000e+02	
			         2.53000	3.45000e+02	
			         2.53167	2.74000e+02	
			         2.53333	1.99000e+02	
			         2.53500	1.24000e+02	
			         2.53667	5.10000e+01	
			         2.53833	-1.70000e+01	
			         2.54000	-7.80000e+01	
			         2.54167	-1.31000e+02	
			         2.54333	-1.75000e+02	
			         2.54500	-2.09000e+02	
			         2.54667	-2.34000e+02	
			         2.54833	-2.51000e+02	
			         2.55000	-2.60000e+02	
			         2.55167	-2.64000e+02	
			         2.55333	-2.62000e+02	
			         2.55500	-2.57000e+02	
			         2.55667	-2.50000e+02	
			         2.55833	-2.41000e+02	
			         2.56000	-2.31000e+02	
			         2.56167	-2.21000e+02	
			         2.56333	-2.12000e+02	
			         2.56500	-2.02000e+02	
			         2.56667	-1.94000e+02	
			         2.56833	-1.85000e+02	
			         2.57000	-1.78000e+02	
			         2.57167	-1.71000e+02	
			         2.57333	-1.65000e+02	
			         2.57500	-1.60000e+02	
			         2.57667	-1.54000e+02	
