Velocity (TVI), in cm/s

Time (s) :	Trace 1 : 		Ecg : 		
0.00499   	-1.93408e+00		         0.00000	0.00000e+00	
0.01138   	-1.18978e+00		         0.00167	8.00000e+00	
0.01774   	-8.19109e-01		         0.00333	2.10000e+01	
0.02411   	-1.67999e-01		         0.00500	3.60000e+01	
0.03049   	1.32109e+00		         0.00667	5.50000e+01	
0.03689   	3.00573e+00		         0.00833	7.60000e+01	
0.04323   	3.69305e+00		         0.01000	1.00000e+02	
0.04961   	2.80665e+00		         0.01167	1.24000e+02	
0.05598   	1.75850e+00		         0.01333	1.48000e+02	
0.06237   	4.34750e-01		         0.01500	1.72000e+02	
0.06873   	-8.64715e-01		         0.01667	1.93000e+02	
0.07510   	-1.34323e+00		         0.01833	2.10000e+02	
0.08148   	2.64719e-01		         0.02000	2.24000e+02	
0.08787   	1.99287e+00		         0.02167	2.33000e+02	
0.09422   	3.40012e+00		         0.02333	2.37000e+02	
0.10060   	4.68354e+00		         0.02500	2.35000e+02	
0.10697   	5.58574e+00		         0.02667	2.28000e+02	
0.11336   	6.14566e+00		         0.02833	2.14000e+02	
0.11972   	6.70450e+00		         0.03000	1.96000e+02	
0.12610   	7.09034e+00		         0.03167	1.75000e+02	
0.13248   	7.32356e+00		         0.03333	1.50000e+02	
0.13886   	7.42816e+00		         0.03500	1.24000e+02	
0.14522   	7.37173e+00		         0.03667	9.70000e+01	
0.15159   	7.02561e+00		         0.03833	7.10000e+01	
0.15797   	6.73451e+00		         0.04000	4.50000e+01	
0.16436   	6.48976e+00		         0.04167	2.00000e+01	
0.17071   	6.20893e+00		         0.04333	-3.00000e+00	
0.17709   	5.93136e+00		         0.04500	-2.30000e+01	
0.18346   	5.81420e+00		         0.04667	-4.10000e+01	
0.18985   	5.72924e+00		         0.04833	-5.60000e+01	
0.19621   	5.50750e+00		         0.05000	-6.80000e+01	
0.20258   	5.36569e+00		         0.05167	-7.70000e+01	
0.20896   	5.33000e+00		         0.05333	-8.30000e+01	
0.21534   	5.18071e+00		         0.05500	-8.70000e+01	
0.22170   	4.93708e+00		         0.05667	-8.90000e+01	
0.22808   	4.80076e+00		         0.05833	-8.90000e+01	
0.23445   	4.54629e+00		         0.06000	-8.80000e+01	
0.24084   	4.36623e+00		         0.06167	-8.60000e+01	
0.24720   	4.13604e+00		         0.06333	-8.30000e+01	
0.25357   	3.96362e+00		         0.06500	-8.00000e+01	
0.25995   	3.68198e+00		         0.06667	-7.70000e+01	
0.26635   	3.46103e+00		         0.06833	-7.40000e+01	
0.27270   	3.18940e+00		         0.07000	-7.00000e+01	
0.27907   	2.90600e+00		         0.07167	-6.70000e+01	
0.28545   	2.54354e+00		         0.07333	-6.30000e+01	
0.29184   	2.33639e+00		         0.07500	-5.90000e+01	
0.29820   	2.15476e+00		         0.07667	-5.60000e+01	
0.30457   	1.90066e+00		         0.07833	-5.20000e+01	
0.31094   	1.65802e+00		         0.08000	-4.90000e+01	
0.31734   	1.53794e+00		         0.08167	-4.50000e+01	
0.32369   	1.24794e+00		         0.08333	-4.20000e+01	
0.33006   	8.83188e-01		         0.08500	-3.90000e+01	
0.33644   	4.36892e-01		         0.08667	-3.70000e+01	
0.34282   	-1.88647e-02		         0.08833	-3.50000e+01	
0.34919   	-6.74222e-01		         0.09000	-3.30000e+01	
0.35574   	-1.29557e+00		         0.09167	-3.20000e+01	
0.36193   	-1.59059e+00		         0.09333	-3.10000e+01	
0.36834   	-1.96507e+00		         0.09500	-3.00000e+01	
0.37468   	-1.92177e+00		         0.09667	-2.90000e+01	
0.38106   	-1.34877e+00		         0.09833	-2.80000e+01	
0.38743   	-6.42505e-01		         0.10000	-2.80000e+01	
0.39382   	-1.23865e-01		         0.10167	-2.70000e+01	
0.40018   	1.07759e+00		         0.10333	-2.60000e+01	
0.40655   	1.94478e+00		         0.10500	-2.50000e+01	
0.41293   	2.39417e+00		         0.10667	-2.40000e+01	
0.41933   	2.92366e+00		         0.10833	-2.30000e+01	
0.42567   	3.00094e+00		         0.11000	-2.20000e+01	
0.43205   	2.50745e+00		         0.11167	-2.10000e+01	
0.43865   	1.65014e+00		         0.11333	-2.00000e+01	
0.44483   	4.20152e-01		         0.11500	-1.90000e+01	
0.45117   	-8.76848e-01		         0.11667	-1.90000e+01	
0.45754   	-1.96319e+00		         0.11833	-1.80000e+01	
0.46392   	-3.15017e+00		         0.12000	-1.70000e+01	
0.47031   	-4.07856e+00		         0.12167	-1.60000e+01	
0.47667   	-4.27977e+00		         0.12333	-1.60000e+01	
0.48304   	-4.68508e+00		         0.12500	-1.40000e+01	
0.48942   	-4.69813e+00		         0.12667	-1.30000e+01	
0.49581   	-4.65400e+00		         0.12833	-1.20000e+01	
0.50216   	-4.53075e+00		         0.13000	-1.10000e+01	
0.50854   	-4.63790e+00		         0.13167	-1.00000e+01	
0.51491   	-4.75746e+00		         0.13333	-9.00000e+00	
0.52157   	-4.99668e+00		         0.13500	-7.00000e+00	
0.52766   	-5.07616e+00		         0.13667	-6.00000e+00	
0.53403   	-5.02487e+00		         0.13833	-5.00000e+00	
0.54041   	-5.02492e+00		         0.14000	-3.00000e+00	
0.54680   	-4.79273e+00		         0.14167	-2.00000e+00	
0.55315   	-4.43117e+00		         0.14333	-1.00000e+00	
0.55953   	-4.17533e+00		         0.14500	0.00000e+00	
0.56590   	-3.92665e+00		         0.14667	0.00000e+00	
0.57230   	-3.62505e+00		         0.14833	1.00000e+00	
0.57865   	-3.31056e+00		         0.15000	1.00000e+00	
0.58502   	-3.01663e+00		         0.15167	1.00000e+00	
0.59140   	-2.78809e+00		         0.15333	0.00000e+00	
0.59780   	-2.47600e+00		         0.15500	0.00000e+00	
0.60414   	-2.19241e+00		         0.15667	0.00000e+00	
0.61052   	-1.89643e+00		         0.15833	0.00000e+00	
0.61690   	-1.67154e+00		         0.16000	-1.00000e+00	
0.62329   	-1.26790e+00		         0.16167	0.00000e+00	
0.62964   	-1.05656e+00		         0.16333	0.00000e+00	
0.63602   	-8.37069e-01		         0.16500	1.00000e+00	
0.64239   	-6.58855e-01		         0.16667	2.00000e+00	
0.64878   	-5.68618e-01		         0.16833	4.00000e+00	
0.65514   	-4.97089e-01		         0.17000	5.00000e+00	
0.66151   	-3.71742e-01		         0.17167	7.00000e+00	
0.66789   	-2.00419e-01		         0.17333	9.00000e+00	
0.67428   	-1.55705e-01		         0.17500	1.10000e+01	
0.68064   	-2.84213e-02		         0.17667	1.20000e+01	
0.68701   	4.83329e-02		         0.17833	1.30000e+01	
0.69338   	1.20512e-01		         0.18000	1.40000e+01	
0.69978   	1.01974e-01		         0.18167	1.40000e+01	
0.70613   	1.18688e-01		         0.18333	1.40000e+01	
0.71251   	2.85669e-02		         0.18500	1.40000e+01	
0.71888   	-1.27671e-02		         0.18667	1.30000e+01	
0.72528   	-8.42998e-02		         0.18833	1.30000e+01	
0.73163   	-1.30718e-01		         0.19000	1.30000e+01	
0.73800   	-1.53530e-01		         0.19167	1.30000e+01	
0.74438   	-1.58753e-01		         0.19333	1.30000e+01	
0.75077   	-2.24200e-01		         0.19500	1.40000e+01	
0.75713   	-2.49260e-01		         0.19667	1.50000e+01	
0.76350   	-3.19070e-01		         0.19833	1.60000e+01	
0.76987   	-3.84617e-01		         0.20000	1.80000e+01	
0.77626   	-5.51563e-01		         0.20167	1.90000e+01	
0.78262   	-7.86121e-01		         0.20333	2.00000e+01	
0.78899   	-1.21209e+00		         0.20500	2.10000e+01	
0.79537   	-2.02799e+00		         0.20667	2.20000e+01	
0.80176   	-2.66077e+00		         0.20833	2.30000e+01	
0.80812   	-3.39159e+00		         0.21000	2.40000e+01	
0.81449   	-4.29553e+00		         0.21167	2.40000e+01	
0.82086   	-5.42145e+00		         0.21333	2.50000e+01	
0.82725   	-6.20038e+00		         0.21500	2.50000e+01	
0.83361   	-7.27958e+00		         0.21667	2.50000e+01	
0.83998   	-8.25951e+00		         0.21833	2.60000e+01	
0.84636   	-9.05601e+00		         0.22000	2.70000e+01	
0.85276   	-9.49542e+00		         0.22167	2.80000e+01	
0.85911   	-9.82830e+00		         0.22333	3.00000e+01	
0.86548   	-9.61114e+00		         0.22500	3.10000e+01	
0.87186   	-9.19473e+00		         0.22667	3.20000e+01	
0.87827   	-8.49757e+00		         0.22833	3.30000e+01	
0.88460   	-7.57891e+00		         0.23000	3.40000e+01	
0.89098   	-6.46554e+00		         0.23167	3.50000e+01	
0.89735   	-5.51394e+00		         0.23333	3.60000e+01	
0.90374   	-4.57508e+00		         0.23500	3.60000e+01	
0.91010   	-3.77442e+00		         0.23667	3.70000e+01	
0.91647   	-3.16243e+00		         0.23833	3.70000e+01	
0.92285   	-2.49999e+00		         0.24000	3.80000e+01	
0.92923   	-2.49619e+00		         0.24167	3.80000e+01	
0.93559   	-2.52982e+00		         0.24333	3.80000e+01	
0.94197   	-2.90716e+00		         0.24500	3.90000e+01	
0.94835   	-3.05636e+00		         0.24667	4.00000e+01	
0.95474   	-1.97984e+00		         0.24833	4.00000e+01	
0.96109   	-6.85850e-01		         0.25000	4.10000e+01	
0.96747   	1.29145e+00		         0.25167	4.20000e+01	
0.97384   	3.23104e+00		         0.25333	4.30000e+01	
0.98023   	3.65556e+00		         0.25500	4.40000e+01	
0.98659   	2.27660e+00		         0.25667	4.50000e+01	
0.99296   	1.70845e+00		         0.25833	4.60000e+01	
0.99934   	8.17254e-01		         0.26000	4.70000e+01	
1.00574   	4.83850e-01		         0.26167	4.70000e+01	
1.01208   	1.40454e+00		         0.26333	4.80000e+01	
1.01846   	2.91288e+00		         0.26500	4.80000e+01	
1.02484   	4.00051e+00		         0.26667	4.80000e+01	
1.03122   	4.68881e+00		         0.26833	4.90000e+01	
1.03758   	5.18903e+00		         0.27000	4.90000e+01	
1.04395   	5.90067e+00		         0.27167	4.90000e+01	
1.05033   	6.31582e+00		         0.27333	5.00000e+01	
1.05673   	6.47934e+00		         0.27500	5.10000e+01	
1.06308   	6.71980e+00		         0.27667	5.20000e+01	
1.06945   	6.78956e+00		         0.27833	5.20000e+01	
1.07583   	6.67628e+00		         0.28000	5.30000e+01	
1.08222   	6.51264e+00		         0.28167	5.40000e+01	
1.08857   	6.29313e+00		         0.28333	5.50000e+01	
1.09495   	6.03967e+00		         0.28500	5.50000e+01	
1.10132   	5.83380e+00		         0.28667	5.50000e+01	
1.10770   	5.58953e+00		         0.28833	5.50000e+01	
1.11406   	5.42876e+00		         0.29000	5.40000e+01	
1.12044   	5.32382e+00		         0.29167	5.30000e+01	
1.12682   	5.13635e+00		         0.29333	5.10000e+01	
1.13321   	4.92956e+00		         0.29500	4.90000e+01	
1.13956   	4.85928e+00		         0.29667	4.70000e+01	
1.14594   	4.83821e+00		         0.29833	4.40000e+01	
1.15240   	4.75722e+00		         0.30000	4.10000e+01	
1.15871   	4.65205e+00		         0.30167	3.80000e+01	
1.16506   	4.58101e+00		         0.30333	3.60000e+01	
1.17143   	4.38677e+00		         0.30500	3.30000e+01	
1.17781   	4.11766e+00		         0.30667	3.10000e+01	
1.18421   	3.85334e+00		         0.30833	2.90000e+01	
1.19056   	3.62226e+00		         0.31000	2.70000e+01	
1.19693   	3.42091e+00		         0.31167	2.60000e+01	
1.20330   	3.21774e+00		         0.31333	2.50000e+01	
1.20971   	3.04541e+00		         0.31500	2.40000e+01	
1.21605   	2.87521e+00		         0.31667	2.30000e+01	
1.22243   	2.72248e+00		         0.31833	2.10000e+01	
1.22880   	2.56288e+00		         0.32000	2.00000e+01	
1.23540   	2.31071e+00		         0.32167	1.80000e+01	
1.24155   	2.02844e+00		         0.32333	1.50000e+01	
1.24792   	1.83186e+00		         0.32500	1.30000e+01	
1.25430   	1.59072e+00		         0.32667	1.00000e+01	
1.26068   	1.24601e+00		         0.32833	7.00000e+00	
1.26704   	9.10591e-01		         0.33000	3.00000e+00	
1.27342   	6.17645e-01		         0.33167	0.00000e+00	
1.27980   	7.48013e-02		         0.33333	-4.00000e+00	
1.28620   	-5.01237e-01		         0.33500	-8.00000e+00	
1.29254   	-1.05105e+00		         0.33667	-1.20000e+01	
1.29891   	-1.05081e+00		         0.33833	-1.50000e+01	
1.30529   	-1.09935e+00		         0.34000	-1.90000e+01	
1.31168   	-8.29397e-01		         0.34167	-2.20000e+01	
1.31838   	-2.54733e-01		         0.34333	-2.50000e+01	
1.32441   	2.74894e-01		         0.34500	-2.70000e+01	
1.33079   	4.04864e-01		         0.34667	-2.90000e+01	
1.33717   	1.01018e+00		         0.34833	-3.10000e+01	
1.34353   	1.40181e+00		         0.35000	-3.30000e+01	
1.34991   	1.42361e+00		         0.35167	-3.40000e+01	
1.35629   	1.53182e+00		         0.35333	-3.50000e+01	
1.36268   	1.23106e+00		         0.35500	-3.50000e+01	
1.36903   	1.73540e-01		         0.35667	-3.50000e+01	
1.37540   	-9.68536e-01		         0.35833	-3.50000e+01	
1.38178   	-2.11985e+00		         0.36000	-3.40000e+01	
1.38818   	-3.29133e+00		         0.36167	-3.40000e+01	
1.39453   	-3.96552e+00		         0.36333	-3.30000e+01	
1.40090   	-4.49034e+00		         0.36500	-3.30000e+01	
1.40728   	-4.63613e+00		         0.36667	-3.20000e+01	
1.41368   	-4.62934e+00		         0.36833	-3.10000e+01	
1.42002   	-4.30716e+00		         0.37000	-3.10000e+01	
1.42640   	-4.25537e+00		         0.37167	-3.00000e+01	
1.43277   	-4.06817e+00		         0.37333	-3.00000e+01	
1.43918   	-4.08041e+00		         0.37500	-2.90000e+01	
1.44552   	-4.16392e+00		         0.37667	-2.90000e+01	
1.45189   	-4.45525e+00		         0.37833	-2.90000e+01	
1.45827   	-4.51260e+00		         0.38000	-2.90000e+01	
1.46465   	-4.58648e+00		         0.38167	-2.90000e+01	
1.47101   	-4.44532e+00		         0.38333	-2.90000e+01	
1.47739   	-4.15650e+00		         0.38500	-2.90000e+01	
1.48376   	-4.00028e+00		         0.38667	-2.90000e+01	
1.49015   	-3.83622e+00		         0.38833	-2.90000e+01	
1.49651   	-3.58349e+00		         0.39000	-2.90000e+01	
1.50288   	-3.34856e+00		         0.39167	-2.90000e+01	
1.50926   	-3.06963e+00		         0.39333	-2.80000e+01	
1.51565   	-2.64622e+00		         0.39500	-2.80000e+01	
1.52201   	-2.33679e+00		         0.39667	-2.80000e+01	
1.52838   	-2.09705e+00		         0.39833	-2.80000e+01	
1.53475   	-1.89583e+00		         0.40000	-2.80000e+01	
1.54115   	-1.74801e+00		         0.40167	-2.80000e+01	
1.54750   	-1.56456e+00		         0.40333	-2.80000e+01	
1.55388   	-1.26235e+00		         0.40500	-2.80000e+01	
1.56025   	-9.47662e-01		         0.40667	-2.70000e+01	
1.56664   	-6.95504e-01		         0.40833	-2.70000e+01	
1.57300   	-4.00959e-01		         0.41000	-2.70000e+01	
1.57937   	-1.50324e-01		         0.41167	-2.60000e+01	
1.58575   	7.54677e-02		         0.41333	-2.60000e+01	
1.59213   	3.10065e-01		         0.41500	-2.70000e+01	
1.59849   	4.69502e-01		         0.41667	-2.70000e+01	
1.60487   	5.16403e-01		         0.41833	-2.70000e+01	
1.61124   	4.82843e-01		         0.42000	-2.80000e+01	
1.61764   	4.67955e-01		         0.42167	-2.80000e+01	
1.62399   	3.37207e-01		         0.42333	-2.80000e+01	
1.63036   	1.88920e-01		         0.42500	-2.80000e+01	
1.63674   	1.13625e-01		         0.42667	-2.80000e+01	
1.64312   	7.41576e-02		         0.42833	-2.80000e+01	
1.64949   	-4.01785e-03		         0.43000	-2.80000e+01	
1.65586   	-3.96943e-02		         0.43167	-2.70000e+01	
1.66224   	2.49293e-02		         0.43333	-2.70000e+01	
1.66862   	1.02467e-02		         0.43500	-2.60000e+01	
1.67498   	1.20248e-02		         0.43667	-2.50000e+01	
1.68136   	-3.64953e-02		         0.43833	-2.40000e+01	
1.68774   	-2.80342e-02		         0.44000	-2.40000e+01	
1.69412   	-9.50995e-02		         0.44167	-2.30000e+01	
1.70048   	-1.66259e-01		         0.44333	-2.20000e+01	
1.70685   	-3.22254e-01		         0.44500	-2.10000e+01	
1.71323   	-5.84382e-01		         0.44667	-2.10000e+01	
1.71962   	-8.82972e-01		         0.44833	-2.00000e+01	
1.72597   	-1.33382e+00		         0.45000	-1.90000e+01	
1.73235   	-1.91531e+00		         0.45167	-1.90000e+01	
1.73872   	-2.76755e+00		         0.45333	-1.80000e+01	
1.74511   	-3.80496e+00		         0.45500	-1.70000e+01	
1.75147   	-4.82568e+00		         0.45667	-1.70000e+01	
1.75785   	-5.89988e+00		         0.45833	-1.70000e+01	
1.76422   	-6.99916e+00		         0.46000	-1.60000e+01	
1.77061   	-8.08607e+00		         0.46167	-1.60000e+01	
1.77697   	-8.88865e+00		         0.46333	-1.50000e+01	
1.78334   	-9.53879e+00		         0.46500	-1.50000e+01	
1.78972   	-1.01012e+01		         0.46667	-1.50000e+01	
1.79610   	-1.02622e+01		         0.46833	-1.40000e+01	
1.80246   	-9.99223e+00		         0.47000	-1.40000e+01	
1.80884   	-9.49525e+00		         0.47167	-1.40000e+01	
1.81521   	-9.00465e+00		         0.47333	-1.40000e+01	
1.82161   	-7.97429e+00		         0.47500	-1.40000e+01	
1.82796   	-7.13779e+00		         0.47667	-1.30000e+01	
1.83433   	-6.13730e+00		         0.47833	-1.30000e+01	
1.84071   	-5.32400e+00		         0.48000	-1.30000e+01	
1.84709   	-4.53541e+00		         0.48167	-1.20000e+01	
1.85345   	-4.32285e+00		         0.48333	-1.10000e+01	
1.85983   	-3.89699e+00		         0.48500	-1.10000e+01	
1.86627   	-3.66015e+00		         0.48667	-1.10000e+01	
1.87259   	-3.56781e+00		         0.48833	-1.10000e+01	
1.87895   	-6.68555e+00		         0.49000	-1.20000e+01	
1.88532   	5.35327e-01		         0.49167	-1.20000e+01	
1.89170   	1.56059e+00		         0.49333	-1.30000e+01	
1.89807   	4.09209e+00		         0.49500	-1.40000e+01	
1.90445   	6.05412e+00		         0.49667	-1.50000e+01	
1.91082   	4.00504e+00		         0.49833	-1.60000e+01	
1.91720   	3.23774e+00		         0.50000	-1.60000e+01	
1.92360   	2.22982e+00		         0.50167	-1.70000e+01	
1.92994   	1.86119e-01		         0.50333	-1.70000e+01	
1.93632   	-8.78941e-01		         0.50500	-1.80000e+01	
1.94269   	-8.61387e-01		         0.50667	-1.70000e+01	
1.94913   	7.84413e-01		         0.50833	-1.70000e+01	
1.95544   	2.33893e+00		         0.51000	-1.70000e+01	
1.96181   	3.57466e+00		         0.51167	-1.60000e+01	
1.96819   	4.58082e+00		         0.51333	-1.50000e+01	
1.97459   	5.37298e+00		         0.51500	-1.40000e+01	
1.98094   	5.86261e+00		         0.51667	-1.40000e+01	
1.98731   	6.33726e+00		         0.51833	-1.40000e+01	
1.99369   	6.55281e+00		         0.52000	-1.40000e+01	
2.00007   	6.70290e+00		         0.52167	-1.40000e+01	
2.00643   	6.65567e+00		         0.52333	-1.50000e+01	
2.01281   	6.60228e+00		         0.52500	-1.60000e+01	
2.01918   	6.33011e+00		         0.52667	-1.60000e+01	
2.02557   	6.09507e+00		         0.52833	-1.70000e+01	
2.03193   	5.83690e+00		         0.53000	-1.70000e+01	
2.03830   	5.63008e+00		         0.53167	-1.70000e+01	
2.04468   	5.38345e+00		         0.53333	-1.60000e+01	
2.05107   	5.26598e+00		         0.53500	-1.50000e+01	
2.05742   	5.23751e+00		         0.53667	-1.40000e+01	
2.06380   	5.13788e+00		         0.53833	-1.30000e+01	
2.07017   	5.00992e+00		         0.54000	-1.20000e+01	
2.07656   	4.90728e+00		         0.54167	-1.00000e+01	
2.08292   	4.82705e+00		         0.54333	-9.00000e+00	
2.08929   	4.64755e+00		         0.54500	-8.00000e+00	
2.09567   	4.37688e+00		         0.54667	-8.00000e+00	
2.10206   	4.20141e+00		         0.54833	-7.00000e+00	
2.10842   	3.99044e+00		         0.55000	-8.00000e+00	
2.11479   	3.76991e+00		         0.55167	-8.00000e+00	
2.12117   	3.45657e+00		         0.55333	-9.00000e+00	
2.12756   	3.28133e+00		         0.55500	-1.00000e+01	
2.13391   	3.02094e+00		         0.55667	-1.10000e+01	
2.14029   	2.82082e+00		         0.55833	-1.20000e+01	
2.14666   	2.57671e+00		         0.56000	-1.30000e+01	
2.15306   	2.35861e+00		         0.56167	-1.50000e+01	
2.15941   	2.19690e+00		         0.56333	-1.60000e+01	
2.16578   	2.01924e+00		         0.56500	-1.70000e+01	
2.17216   	1.78902e+00		         0.56667	-1.80000e+01	
2.17854   	1.59051e+00		         0.56833	-1.80000e+01	
2.18490   	1.41658e+00		         0.57000	-1.80000e+01	
2.19128   	1.10387e+00		         0.57167	-1.80000e+01	
2.19765   	6.96870e-01		         0.57333	-1.80000e+01	
2.20404   	1.92968e-01		         0.57500	-1.70000e+01	
2.21040   	-4.28105e-01		         0.57667	-1.70000e+01	
2.21677   	-1.14794e+00		         0.57833	-1.60000e+01	
2.22315   	-1.73438e+00		         0.58000	-1.60000e+01	
2.22954   	-2.20390e+00		         0.58167	-1.50000e+01	
2.23590   	-2.26428e+00		         0.58333	-1.40000e+01	
2.24227   	-2.07642e+00		         0.58500	-1.30000e+01	
2.24864   	-1.74974e+00		         0.58667	-1.10000e+01	
2.25504   	-1.26778e+00		         0.58833	-1.00000e+01	
2.26139   	-7.16132e-01		         0.59000	-1.00000e+01	
2.26777   	-2.88347e-01		         0.59167	-9.00000e+00	
2.27414   	-1.64308e-01		         0.59333	-8.00000e+00	
2.28054   	-1.30422e-01		         0.59500	-7.00000e+00	
2.28689   	-2.58948e-01		         0.59667	-7.00000e+00	
2.29326   	-4.27110e-01		         0.59833	-6.00000e+00	
2.29964   	-8.97802e-01		         0.60000	-5.00000e+00	
2.30604   	-1.40793e+00		         0.60167	-4.00000e+00	
2.31238   	-2.00041e+00		         0.60333	-4.00000e+00	
2.31876   	-2.56735e+00		         0.60500	-3.00000e+00	
2.32513   	-3.20697e+00		         0.60667	-2.00000e+00	
2.33152   	-3.61069e+00		         0.60833	-1.00000e+00	
2.33788   	-3.87035e+00		         0.61000	-1.00000e+00	
2.34425   	-4.00537e+00		         0.61167	0.00000e+00	
2.35063   	-4.04856e+00		         0.61333	0.00000e+00	
2.35703   	-4.04222e+00		         0.61500	0.00000e+00	
2.36338   	-4.01837e+00		         0.61667	1.00000e+00	
2.36975   	-4.07777e+00		         0.61833	1.00000e+00	
2.37613   	-4.09988e+00		         0.62000	0.00000e+00	
2.38253   	-4.25976e+00		         0.62167	0.00000e+00	
2.38887   	-4.06453e+00		         0.62333	-1.00000e+00	
2.39525   	-4.24218e+00		         0.62500	-2.00000e+00	
2.40163   	-4.11656e+00		         0.62667	-3.00000e+00	
2.40802   	-4.09013e+00		         0.62833	-4.00000e+00	
2.41437   	-3.90551e+00		         0.63000	-5.00000e+00	
2.42074   	-4.20526e+00		         0.63167	-6.00000e+00	
2.42712   	-4.07147e+00		         0.63333	-7.00000e+00	
2.43351   	-3.97330e+00		         0.63500	-7.00000e+00	
2.43987   	-3.82166e+00		         0.63667	-8.00000e+00	
2.44624   	-3.71073e+00		         0.63833	-9.00000e+00	
2.45262   	-3.45960e+00		         0.64000	-9.00000e+00	
2.45900   	-3.25062e+00		         0.64167	-1.00000e+01	
2.46536   	-3.11052e+00		         0.64333	-1.00000e+01	
2.47174   	-2.80635e+00		         0.64500	-1.00000e+01	
2.47811   	-2.50737e+00		         0.64667	-1.00000e+01	
2.48450   	-2.11720e+00		         0.64833	-1.00000e+01	
2.49086   	-1.85972e+00		         0.65000	-1.10000e+01	
2.49723   	-1.55031e+00		         0.65167	-1.10000e+01	
2.50361   	-1.17834e+00		         0.65333	-1.10000e+01	
2.50999   	-9.37622e-01		         0.65500	-1.10000e+01	
2.51635   	-7.19066e-01		         0.65667	-1.10000e+01	
2.52273   	-5.04023e-01		         0.65833	-1.10000e+01	
2.52910   	-3.70090e-01		         0.66000	-1.10000e+01	
2.53550   	-3.28109e-01		         0.66167	-1.20000e+01	
2.54185   	-2.13308e-01		         0.66333	-1.20000e+01	
2.54822   	-1.55979e-01		         0.66500	-1.20000e+01	
2.55460   	-5.40550e-02		         0.66667	-1.20000e+01	
2.56099   	2.49822e-02		         0.66833	-1.20000e+01	
2.56735   	2.49934e-02		         0.67000	-1.10000e+01	
2.57372   	1.34832e-02		         0.67167	-1.10000e+01	
2.58030   	-9.36960e-02		         0.67333	-1.10000e+01	
2.58650   	-1.91141e-01		         0.67500	-1.00000e+01	
2.59284   	-2.36003e-01		         0.67667	-1.00000e+01	
2.59922   	-2.80699e-01		         0.67833	-1.00000e+01	
2.60559   	-2.92431e-01		         0.68000	-9.00000e+00	
2.61199   	-3.03809e-01		         0.68167	-9.00000e+00	
2.61834   	-3.31541e-01		         0.68333	-8.00000e+00	
2.62471   	-4.14174e-01		         0.68500	-8.00000e+00	
2.63109   	-4.61691e-01		         0.68667	-8.00000e+00	
2.63748   	-5.32592e-01		         0.68833	-8.00000e+00	
2.64384   	-5.41640e-01		         0.69000	-7.00000e+00	
2.65021   	-6.11097e-01		         0.69167	-7.00000e+00	
2.65658   	-7.72952e-01		         0.69333	-7.00000e+00	
2.66317   	-1.00173e+00		         0.69500	-7.00000e+00	
2.66933   	-1.53458e+00		         0.69667	-6.00000e+00	
2.67570   	-2.39471e+00		         0.69833	-5.00000e+00	
2.68208   	-3.14354e+00		         0.70000	-4.00000e+00	
2.68847   	-4.21665e+00		         0.70167	-2.00000e+00	
2.69482   	-5.13189e+00		         0.70333	-1.00000e+00	
2.70120   	-6.00702e+00		         0.70500	0.00000e+00	
2.70758   	-6.72779e+00		         0.70667	1.00000e+00	
2.71398   	-7.61763e+00		         0.70833	1.00000e+00	
2.72032   	-8.30615e+00		         0.71000	1.00000e+00	
2.72670   	-9.14292e+00		         0.71167	1.00000e+00	
2.73307   	-9.78496e+00		         0.71333	1.00000e+00	
2.73946   	-1.00974e+01		         0.71500	0.00000e+00	
2.74582   	-1.02927e+01		         0.71667	-1.00000e+00	
2.75219   	-9.89763e+00		         0.71833	-2.00000e+00	
2.75857   	-9.25460e+00		         0.72000	-4.00000e+00	
2.76496   	-8.29805e+00		         0.72167	-5.00000e+00	
2.77132   	-7.30518e+00		         0.72333	-7.00000e+00	
2.77769   	-6.01879e+00		         0.72500	-8.00000e+00	
2.78406   	-4.93266e+00		         0.72667	-9.00000e+00	
2.79045   	-4.13732e+00		         0.72833	-1.00000e+01	
2.79681   	-3.39169e+00		         0.73000	-1.00000e+01	
2.80318   	-2.68132e+00		         0.73167	-9.00000e+00	
2.80956   	-2.50922e+00		         0.73333	-8.00000e+00	
2.81595   	-2.91038e+00		         0.73500	-7.00000e+00	
2.82231   	-2.95688e+00		         0.73667	-6.00000e+00	
2.82868   	-2.49962e+00		         0.73833	-5.00000e+00	
2.83506   	-1.73612e+00		         0.74000	-4.00000e+00	
2.84145   	-2.77240e-02		         0.74167	-2.00000e+00	
2.84780   	2.27282e+00		         0.74333	-1.00000e+00	
2.85418   	3.71063e+00		         0.74500	-1.00000e+00	
2.86055   	4.90611e+00		         0.74667	0.00000e+00	
			         0.74833	0.00000e+00	
			         0.75000	0.00000e+00	
			         0.75167	0.00000e+00	
			         0.75333	0.00000e+00	
			         0.75500	0.00000e+00	
			         0.75667	0.00000e+00	
			         0.75833	0.00000e+00	
			         0.76000	0.00000e+00	
			         0.76167	0.00000e+00	
			         0.76333	0.00000e+00	
			         0.76500	1.00000e+00	
			         0.76667	2.00000e+00	
			         0.76833	3.00000e+00	
			         0.77000	4.00000e+00	
			         0.77167	5.00000e+00	
			         0.77333	6.00000e+00	
			         0.77500	8.00000e+00	
			         0.77667	8.00000e+00	
			         0.77833	9.00000e+00	
			         0.78000	1.00000e+01	
			         0.78167	1.10000e+01	
			         0.78333	1.20000e+01	
			         0.78500	1.30000e+01	
			         0.78667	1.40000e+01	
			         0.78833	1.50000e+01	
			         0.79000	1.60000e+01	
			         0.79167	1.60000e+01	
			         0.79333	1.70000e+01	
			         0.79500	1.70000e+01	
			         0.79667	1.70000e+01	
			         0.79833	1.60000e+01	
			         0.80000	1.60000e+01	
			         0.80167	1.50000e+01	
			         0.80333	1.40000e+01	
			         0.80500	1.30000e+01	
			         0.80667	1.30000e+01	
			         0.80833	1.20000e+01	
			         0.81000	1.20000e+01	
			         0.81167	1.30000e+01	
			         0.81333	1.40000e+01	
			         0.81500	1.50000e+01	
			         0.81667	1.70000e+01	
			         0.81833	1.90000e+01	
			         0.82000	2.10000e+01	
			         0.82167	2.30000e+01	
			         0.82333	2.40000e+01	
			         0.82500	2.60000e+01	
			         0.82667	2.60000e+01	
			         0.82833	2.70000e+01	
			         0.83000	2.60000e+01	
			         0.83167	2.60000e+01	
			         0.83333	2.40000e+01	
			         0.83500	2.20000e+01	
			         0.83667	1.90000e+01	
			         0.83833	1.70000e+01	
			         0.84000	1.30000e+01	
			         0.84167	1.00000e+01	
			         0.84333	7.00000e+00	
			         0.84500	4.00000e+00	
			         0.84667	2.00000e+00	
			         0.84833	-1.00000e+00	
			         0.85000	-3.00000e+00	
			         0.85167	-5.00000e+00	
			         0.85333	-7.00000e+00	
			         0.85500	-8.00000e+00	
			         0.85667	-1.00000e+01	
			         0.85833	-1.00000e+01	
			         0.86000	-1.10000e+01	
			         0.86167	-1.20000e+01	
			         0.86333	-1.20000e+01	
			         0.86500	-1.20000e+01	
			         0.86667	-1.20000e+01	
			         0.86833	-1.20000e+01	
			         0.87000	-1.20000e+01	
			         0.87167	-1.20000e+01	
			         0.87333	-1.10000e+01	
			         0.87500	-1.10000e+01	
			         0.87667	-1.00000e+01	
			         0.87833	-9.00000e+00	
			         0.88000	-9.00000e+00	
			         0.88167	-8.00000e+00	
			         0.88333	-8.00000e+00	
			         0.88500	-8.00000e+00	
			         0.88667	-7.00000e+00	
			         0.88833	-8.00000e+00	
			         0.89000	-8.00000e+00	
			         0.89167	-8.00000e+00	
			         0.89333	-9.00000e+00	
			         0.89500	-1.00000e+01	
			         0.89667	-1.00000e+01	
			         0.89833	-1.10000e+01	
			         0.90000	-1.10000e+01	
			         0.90167	-1.20000e+01	
			         0.90333	-1.20000e+01	
			         0.90500	-1.20000e+01	
			         0.90667	-1.20000e+01	
			         0.90833	-1.20000e+01	
			         0.91000	-1.20000e+01	
			         0.91167	-1.20000e+01	
			         0.91333	-1.20000e+01	
			         0.91500	-1.30000e+01	
			         0.91667	-1.40000e+01	
			         0.91833	-1.50000e+01	
			         0.92000	-1.70000e+01	
			         0.92167	-1.80000e+01	
			         0.92333	-2.00000e+01	
			         0.92500	-2.00000e+01	
			         0.92667	-1.80000e+01	
			         0.92833	-1.50000e+01	
			         0.93000	-8.00000e+00	
			         0.93167	1.00000e+00	
			         0.93333	1.30000e+01	
			         0.93500	2.90000e+01	
			         0.93667	4.80000e+01	
			         0.93833	7.00000e+01	
			         0.94000	9.30000e+01	
			         0.94167	1.16000e+02	
			         0.94333	1.40000e+02	
			         0.94500	1.62000e+02	
			         0.94667	1.81000e+02	
			         0.94833	1.98000e+02	
			         0.95000	2.10000e+02	
			         0.95167	2.18000e+02	
			         0.95333	2.20000e+02	
			         0.95500	2.17000e+02	
			         0.95667	2.09000e+02	
			         0.95833	1.95000e+02	
			         0.96000	1.78000e+02	
			         0.96167	1.57000e+02	
			         0.96333	1.35000e+02	
			         0.96500	1.11000e+02	
			         0.96667	8.60000e+01	
			         0.96833	6.10000e+01	
			         0.97000	3.70000e+01	
			         0.97167	1.40000e+01	
			         0.97333	-7.00000e+00	
			         0.97500	-2.60000e+01	
			         0.97667	-4.30000e+01	
			         0.97833	-5.60000e+01	
			         0.98000	-6.70000e+01	
			         0.98167	-7.60000e+01	
			         0.98333	-8.20000e+01	
			         0.98500	-8.50000e+01	
			         0.98667	-8.70000e+01	
			         0.98833	-8.70000e+01	
			         0.99000	-8.60000e+01	
			         0.99167	-8.40000e+01	
			         0.99333	-8.10000e+01	
			         0.99500	-7.80000e+01	
			         0.99667	-7.40000e+01	
			         0.99833	-7.00000e+01	
			         1.00000	-6.70000e+01	
			         1.00167	-6.30000e+01	
			         1.00333	-6.00000e+01	
			         1.00500	-5.80000e+01	
			         1.00667	-5.50000e+01	
			         1.00833	-5.30000e+01	
			         1.01000	-5.10000e+01	
			         1.01167	-4.90000e+01	
			         1.01333	-4.70000e+01	
			         1.01500	-4.50000e+01	
			         1.01667	-4.40000e+01	
			         1.01833	-4.20000e+01	
			         1.02000	-4.00000e+01	
			         1.02167	-3.90000e+01	
			         1.02333	-3.80000e+01	
			         1.02500	-3.70000e+01	
			         1.02667	-3.50000e+01	
			         1.02833	-3.40000e+01	
			         1.03000	-3.30000e+01	
			         1.03167	-3.20000e+01	
			         1.03333	-3.10000e+01	
			         1.03500	-3.00000e+01	
			         1.03667	-2.90000e+01	
			         1.03833	-2.90000e+01	
			         1.04000	-2.80000e+01	
			         1.04167	-2.80000e+01	
			         1.04333	-2.70000e+01	
			         1.04500	-2.70000e+01	
			         1.04667	-2.70000e+01	
			         1.04833	-2.70000e+01	
			         1.05000	-2.70000e+01	
			         1.05167	-2.70000e+01	
			         1.05333	-2.60000e+01	
			         1.05500	-2.60000e+01	
			         1.05667	-2.50000e+01	
			         1.05833	-2.40000e+01	
			         1.06000	-2.30000e+01	
			         1.06167	-2.10000e+01	
			         1.06333	-1.90000e+01	
			         1.06500	-1.70000e+01	
			         1.06667	-1.50000e+01	
			         1.06833	-1.30000e+01	
			         1.07000	-1.10000e+01	
			         1.07167	-9.00000e+00	
			         1.07333	-8.00000e+00	
			         1.07500	-7.00000e+00	
			         1.07667	-6.00000e+00	
			         1.07833	-5.00000e+00	
			         1.08000	-4.00000e+00	
			         1.08167	-4.00000e+00	
			         1.08333	-4.00000e+00	
			         1.08500	-4.00000e+00	
			         1.08667	-5.00000e+00	
			         1.08833	-5.00000e+00	
			         1.09000	-6.00000e+00	
			         1.09167	-6.00000e+00	
			         1.09333	-6.00000e+00	
			         1.09500	-7.00000e+00	
			         1.09667	-7.00000e+00	
			         1.09833	-6.00000e+00	
			         1.10000	-5.00000e+00	
			         1.10167	-4.00000e+00	
			         1.10333	-3.00000e+00	
			         1.10500	-2.00000e+00	
			         1.10667	0.00000e+00	
			         1.10833	1.00000e+00	
			         1.11000	3.00000e+00	
			         1.11167	4.00000e+00	
			         1.11333	6.00000e+00	
			         1.11500	7.00000e+00	
			         1.11667	9.00000e+00	
			         1.11833	1.00000e+01	
			         1.12000	1.00000e+01	
			         1.12167	1.10000e+01	
			         1.12333	1.10000e+01	
			         1.12500	1.20000e+01	
			         1.12667	1.20000e+01	
			         1.12833	1.20000e+01	
			         1.13000	1.30000e+01	
			         1.13167	1.30000e+01	
			         1.13333	1.40000e+01	
			         1.13500	1.40000e+01	
			         1.13667	1.50000e+01	
			         1.13833	1.60000e+01	
			         1.14000	1.60000e+01	
			         1.14167	1.70000e+01	
			         1.14333	1.90000e+01	
			         1.14500	2.00000e+01	
			         1.14667	2.20000e+01	
			         1.14833	2.40000e+01	
			         1.15000	2.60000e+01	
			         1.15167	2.80000e+01	
			         1.15333	3.00000e+01	
			         1.15500	3.20000e+01	
			         1.15667	3.40000e+01	
			         1.15833	3.60000e+01	
			         1.16000	3.80000e+01	
			         1.16167	3.90000e+01	
			         1.16333	4.00000e+01	
			         1.16500	4.10000e+01	
			         1.16667	4.10000e+01	
			         1.16833	4.10000e+01	
			         1.17000	4.10000e+01	
			         1.17167	4.10000e+01	
			         1.17333	4.10000e+01	
			         1.17500	4.10000e+01	
			         1.17667	4.20000e+01	
			         1.17833	4.30000e+01	
			         1.18000	4.30000e+01	
			         1.18167	4.40000e+01	
			         1.18333	4.50000e+01	
			         1.18500	4.60000e+01	
			         1.18667	4.70000e+01	
			         1.18833	4.80000e+01	
			         1.19000	4.80000e+01	
			         1.19167	4.90000e+01	
			         1.19333	4.90000e+01	
			         1.19500	4.90000e+01	
			         1.19667	4.90000e+01	
			         1.19833	4.80000e+01	
			         1.20000	4.80000e+01	
			         1.20167	4.80000e+01	
			         1.20333	4.80000e+01	
			         1.20500	4.70000e+01	
			         1.20667	4.70000e+01	
			         1.20833	4.70000e+01	
			         1.21000	4.70000e+01	
			         1.21167	4.70000e+01	
			         1.21333	4.70000e+01	
			         1.21500	4.70000e+01	
			         1.21667	4.70000e+01	
			         1.21833	4.70000e+01	
			         1.22000	4.70000e+01	
			         1.22167	4.70000e+01	
			         1.22333	4.60000e+01	
			         1.22500	4.50000e+01	
			         1.22667	4.40000e+01	
			         1.22833	4.30000e+01	
			         1.23000	4.20000e+01	
			         1.23167	4.00000e+01	
			         1.23333	3.80000e+01	
			         1.23500	3.70000e+01	
			         1.23667	3.50000e+01	
			         1.23833	3.30000e+01	
			         1.24000	3.10000e+01	
			         1.24167	2.90000e+01	
			         1.24333	2.70000e+01	
			         1.24500	2.40000e+01	
			         1.24667	2.30000e+01	
			         1.24833	2.10000e+01	
			         1.25000	1.90000e+01	
			         1.25167	1.80000e+01	
			         1.25333	1.60000e+01	
			         1.25500	1.40000e+01	
			         1.25667	1.20000e+01	
			         1.25833	9.00000e+00	
			         1.26000	6.00000e+00	
			         1.26167	3.00000e+00	
			         1.26333	0.00000e+00	
			         1.26500	-3.00000e+00	
			         1.26667	-7.00000e+00	
			         1.26833	-1.00000e+01	
			         1.27000	-1.40000e+01	
			         1.27167	-1.70000e+01	
			         1.27333	-2.10000e+01	
			         1.27500	-2.40000e+01	
			         1.27667	-2.60000e+01	
			         1.27833	-2.80000e+01	
			         1.28000	-3.00000e+01	
			         1.28167	-3.10000e+01	
			         1.28333	-3.30000e+01	
			         1.28500	-3.40000e+01	
			         1.28667	-3.50000e+01	
			         1.28833	-3.60000e+01	
			         1.29000	-3.70000e+01	
			         1.29167	-3.80000e+01	
			         1.29333	-3.90000e+01	
			         1.29500	-4.00000e+01	
			         1.29667	-4.10000e+01	
			         1.29833	-4.10000e+01	
			         1.30000	-4.20000e+01	
			         1.30167	-4.20000e+01	
			         1.30333	-4.20000e+01	
			         1.30500	-4.20000e+01	
			         1.30667	-4.20000e+01	
			         1.30833	-4.20000e+01	
			         1.31000	-4.20000e+01	
			         1.31167	-4.20000e+01	
			         1.31333	-4.20000e+01	
			         1.31500	-4.10000e+01	
			         1.31667	-4.10000e+01	
			         1.31833	-4.10000e+01	
			         1.32000	-4.00000e+01	
			         1.32167	-4.00000e+01	
			         1.32333	-3.90000e+01	
			         1.32500	-3.90000e+01	
			         1.32667	-3.80000e+01	
			         1.32833	-3.70000e+01	
			         1.33000	-3.60000e+01	
			         1.33167	-3.60000e+01	
			         1.33333	-3.50000e+01	
			         1.33500	-3.40000e+01	
			         1.33667	-3.40000e+01	
			         1.33833	-3.30000e+01	
			         1.34000	-3.20000e+01	
			         1.34167	-3.20000e+01	
			         1.34333	-3.10000e+01	
			         1.34500	-3.00000e+01	
			         1.34667	-2.90000e+01	
			         1.34833	-2.90000e+01	
			         1.35000	-2.80000e+01	
			         1.35167	-2.70000e+01	
			         1.35333	-2.70000e+01	
			         1.35500	-2.60000e+01	
			         1.35667	-2.60000e+01	
			         1.35833	-2.50000e+01	
			         1.36000	-2.50000e+01	
			         1.36167	-2.40000e+01	
			         1.36333	-2.40000e+01	
			         1.36500	-2.40000e+01	
			         1.36667	-2.40000e+01	
			         1.36833	-2.40000e+01	
			         1.37000	-2.40000e+01	
			         1.37167	-2.30000e+01	
			         1.37333	-2.30000e+01	
			         1.37500	-2.30000e+01	
			         1.37667	-2.30000e+01	
			         1.37833	-2.30000e+01	
			         1.38000	-2.30000e+01	
			         1.38167	-2.20000e+01	
			         1.38333	-2.20000e+01	
			         1.38500	-2.20000e+01	
			         1.38667	-2.10000e+01	
			         1.38833	-2.10000e+01	
			         1.39000	-2.00000e+01	
			         1.39167	-2.00000e+01	
			         1.39333	-1.90000e+01	
			         1.39500	-1.80000e+01	
			         1.39667	-1.80000e+01	
			         1.39833	-1.80000e+01	
			         1.40000	-1.70000e+01	
			         1.40167	-1.70000e+01	
			         1.40333	-1.70000e+01	
			         1.40500	-1.70000e+01	
			         1.40667	-1.70000e+01	
			         1.40833	-1.70000e+01	
			         1.41000	-1.80000e+01	
			         1.41167	-1.80000e+01	
			         1.41333	-1.80000e+01	
			         1.41500	-1.80000e+01	
			         1.41667	-1.80000e+01	
			         1.41833	-1.70000e+01	
			         1.42000	-1.70000e+01	
			         1.42167	-1.60000e+01	
			         1.42333	-1.50000e+01	
			         1.42500	-1.40000e+01	
			         1.42667	-1.30000e+01	
			         1.42833	-1.20000e+01	
			         1.43000	-1.10000e+01	
			         1.43167	-1.00000e+01	
			         1.43333	-1.00000e+01	
			         1.43500	-1.00000e+01	
			         1.43667	-1.00000e+01	
			         1.43833	-1.00000e+01	
			         1.44000	-1.00000e+01	
			         1.44167	-1.00000e+01	
			         1.44333	-1.10000e+01	
			         1.44500	-1.10000e+01	
			         1.44667	-1.10000e+01	
			         1.44833	-1.10000e+01	
			         1.45000	-1.00000e+01	
			         1.45167	-1.00000e+01	
			         1.45333	-1.00000e+01	
			         1.45500	-1.00000e+01	
			         1.45667	-9.00000e+00	
			         1.45833	-9.00000e+00	
			         1.46000	-9.00000e+00	
			         1.46167	-1.00000e+01	
			         1.46333	-1.00000e+01	
			         1.46500	-1.00000e+01	
			         1.46667	-1.10000e+01	
			         1.46833	-1.10000e+01	
			         1.47000	-1.10000e+01	
			         1.47167	-1.00000e+01	
			         1.47333	-9.00000e+00	
			         1.47500	-8.00000e+00	
			         1.47667	-7.00000e+00	
			         1.47833	-6.00000e+00	
			         1.48000	-5.00000e+00	
			         1.48167	-5.00000e+00	
			         1.48333	-4.00000e+00	
			         1.48500	-3.00000e+00	
			         1.48667	-2.00000e+00	
			         1.48833	-2.00000e+00	
			         1.49000	-2.00000e+00	
			         1.49167	-2.00000e+00	
			         1.49333	-2.00000e+00	
			         1.49500	-2.00000e+00	
			         1.49667	-3.00000e+00	
			         1.49833	-3.00000e+00	
			         1.50000	-3.00000e+00	
			         1.50167	-3.00000e+00	
			         1.50333	-3.00000e+00	
			         1.50500	-3.00000e+00	
			         1.50667	-3.00000e+00	
			         1.50833	-3.00000e+00	
			         1.51000	-3.00000e+00	
			         1.51167	-3.00000e+00	
			         1.51333	-3.00000e+00	
			         1.51500	-2.00000e+00	
			         1.51667	-1.00000e+00	
			         1.51833	-1.00000e+00	
			         1.52000	0.00000e+00	
			         1.52167	0.00000e+00	
			         1.52333	0.00000e+00	
			         1.52500	-1.00000e+00	
			         1.52667	-1.00000e+00	
			         1.52833	-2.00000e+00	
			         1.53000	-2.00000e+00	
			         1.53167	-3.00000e+00	
			         1.53333	-4.00000e+00	
			         1.53500	-5.00000e+00	
			         1.53667	-6.00000e+00	
			         1.53833	-7.00000e+00	
			         1.54000	-7.00000e+00	
			         1.54167	-8.00000e+00	
			         1.54333	-8.00000e+00	
			         1.54500	-9.00000e+00	
			         1.54667	-9.00000e+00	
			         1.54833	-9.00000e+00	
			         1.55000	-9.00000e+00	
			         1.55167	-9.00000e+00	
			         1.55333	-9.00000e+00	
			         1.55500	-9.00000e+00	
			         1.55667	-9.00000e+00	
			         1.55833	-9.00000e+00	
			         1.56000	-9.00000e+00	
			         1.56167	-1.00000e+01	
			         1.56333	-1.00000e+01	
			         1.56500	-1.00000e+01	
			         1.56667	-1.00000e+01	
			         1.56833	-1.00000e+01	
			         1.57000	-1.00000e+01	
			         1.57167	-1.00000e+01	
			         1.57333	-1.00000e+01	
			         1.57500	-9.00000e+00	
			         1.57667	-9.00000e+00	
			         1.57833	-8.00000e+00	
			         1.58000	-7.00000e+00	
			         1.58167	-6.00000e+00	
			         1.58333	-5.00000e+00	
			         1.58500	-4.00000e+00	
			         1.58667	-3.00000e+00	
			         1.58833	-2.00000e+00	
			         1.59000	-2.00000e+00	
			         1.59167	-2.00000e+00	
			         1.59333	-2.00000e+00	
			         1.59500	-3.00000e+00	
			         1.59667	-4.00000e+00	
			         1.59833	-4.00000e+00	
			         1.60000	-5.00000e+00	
			         1.60167	-6.00000e+00	
			         1.60333	-7.00000e+00	
			         1.60500	-8.00000e+00	
			         1.60667	-9.00000e+00	
			         1.60833	-1.00000e+01	
			         1.61000	-1.00000e+01	
			         1.61167	-1.00000e+01	
			         1.61333	-9.00000e+00	
			         1.61500	-8.00000e+00	
			         1.61667	-6.00000e+00	
			         1.61833	-5.00000e+00	
			         1.62000	-4.00000e+00	
			         1.62167	-3.00000e+00	
			         1.62333	-3.00000e+00	
			         1.62500	-2.00000e+00	
			         1.62667	-2.00000e+00	
			         1.62833	-3.00000e+00	
			         1.63000	-3.00000e+00	
			         1.63167	-4.00000e+00	
			         1.63333	-5.00000e+00	
			         1.63500	-6.00000e+00	
			         1.63667	-7.00000e+00	
			         1.63833	-8.00000e+00	
			         1.64000	-8.00000e+00	
			         1.64167	-8.00000e+00	
			         1.64333	-7.00000e+00	
			         1.64500	-7.00000e+00	
			         1.64667	-5.00000e+00	
			         1.64833	-4.00000e+00	
			         1.65000	-3.00000e+00	
			         1.65167	-2.00000e+00	
			         1.65333	-1.00000e+00	
			         1.65500	-1.00000e+00	
			         1.65667	0.00000e+00	
			         1.65833	0.00000e+00	
			         1.66000	0.00000e+00	
			         1.66167	0.00000e+00	
			         1.66333	1.00000e+00	
			         1.66500	1.00000e+00	
			         1.66667	1.00000e+00	
			         1.66833	1.00000e+00	
			         1.67000	2.00000e+00	
			         1.67167	2.00000e+00	
			         1.67333	2.00000e+00	
			         1.67500	2.00000e+00	
			         1.67667	2.00000e+00	
			         1.67833	2.00000e+00	
			         1.68000	2.00000e+00	
			         1.68167	2.00000e+00	
			         1.68333	2.00000e+00	
			         1.68500	2.00000e+00	
			         1.68667	2.00000e+00	
			         1.68833	2.00000e+00	
			         1.69000	2.00000e+00	
			         1.69167	3.00000e+00	
			         1.69333	3.00000e+00	
			         1.69500	4.00000e+00	
			         1.69667	5.00000e+00	
			         1.69833	5.00000e+00	
			         1.70000	6.00000e+00	
			         1.70167	7.00000e+00	
			         1.70333	8.00000e+00	
			         1.70500	9.00000e+00	
			         1.70667	9.00000e+00	
			         1.70833	1.00000e+01	
			         1.71000	1.00000e+01	
			         1.71167	1.10000e+01	
			         1.71333	1.10000e+01	
			         1.71500	1.10000e+01	
			         1.71667	1.10000e+01	
			         1.71833	1.10000e+01	
			         1.72000	1.00000e+01	
			         1.72167	1.00000e+01	
			         1.72333	9.00000e+00	
			         1.72500	9.00000e+00	
			         1.72667	8.00000e+00	
			         1.72833	8.00000e+00	
			         1.73000	7.00000e+00	
			         1.73167	7.00000e+00	
			         1.73333	6.00000e+00	
			         1.73500	6.00000e+00	
			         1.73667	6.00000e+00	
			         1.73833	6.00000e+00	
			         1.74000	6.00000e+00	
			         1.74167	6.00000e+00	
			         1.74333	6.00000e+00	
			         1.74500	7.00000e+00	
			         1.74667	7.00000e+00	
			         1.74833	8.00000e+00	
			         1.75000	1.00000e+01	
			         1.75167	1.10000e+01	
			         1.75333	1.30000e+01	
			         1.75500	1.50000e+01	
			         1.75667	1.70000e+01	
			         1.75833	1.80000e+01	
			         1.76000	1.90000e+01	
			         1.76167	2.00000e+01	
			         1.76333	2.10000e+01	
			         1.76500	2.10000e+01	
			         1.76667	2.10000e+01	
			         1.76833	2.00000e+01	
			         1.77000	1.90000e+01	
			         1.77167	1.70000e+01	
			         1.77333	1.40000e+01	
			         1.77500	1.20000e+01	
			         1.77667	9.00000e+00	
			         1.77833	7.00000e+00	
			         1.78000	4.00000e+00	
			         1.78167	2.00000e+00	
			         1.78333	1.00000e+00	
			         1.78500	-1.00000e+00	
			         1.78667	-2.00000e+00	
			         1.78833	-3.00000e+00	
			         1.79000	-4.00000e+00	
			         1.79167	-5.00000e+00	
			         1.79333	-6.00000e+00	
			         1.79500	-7.00000e+00	
			         1.79667	-7.00000e+00	
			         1.79833	-8.00000e+00	
			         1.80000	-9.00000e+00	
			         1.80167	-1.00000e+01	
			         1.80333	-1.10000e+01	
			         1.80500	-1.20000e+01	
			         1.80667	-1.30000e+01	
			         1.80833	-1.40000e+01	
			         1.81000	-1.50000e+01	
			         1.81167	-1.60000e+01	
			         1.81333	-1.70000e+01	
			         1.81500	-1.80000e+01	
			         1.81667	-1.90000e+01	
			         1.81833	-2.00000e+01	
			         1.82000	-2.10000e+01	
			         1.82167	-2.10000e+01	
			         1.82333	-2.10000e+01	
			         1.82500	-2.10000e+01	
			         1.82667	-2.10000e+01	
			         1.82833	-2.00000e+01	
			         1.83000	-1.90000e+01	
			         1.83167	-1.80000e+01	
			         1.83333	-1.70000e+01	
			         1.83500	-1.60000e+01	
			         1.83667	-1.50000e+01	
			         1.83833	-1.40000e+01	
			         1.84000	-1.40000e+01	
			         1.84167	-1.30000e+01	
			         1.84333	-1.30000e+01	
			         1.84500	-1.30000e+01	
			         1.84667	-1.30000e+01	
			         1.84833	-1.30000e+01	
			         1.85000	-1.40000e+01	
			         1.85167	-1.40000e+01	
			         1.85333	-1.50000e+01	
			         1.85500	-1.60000e+01	
			         1.85667	-1.60000e+01	
			         1.85833	-1.70000e+01	
			         1.86000	-1.60000e+01	
			         1.86167	-1.50000e+01	
			         1.86333	-1.20000e+01	
			         1.86500	-7.00000e+00	
			         1.86667	1.00000e+00	
			         1.86833	1.20000e+01	
			         1.87000	2.60000e+01	
			         1.87167	4.40000e+01	
			         1.87333	6.50000e+01	
			         1.87500	8.80000e+01	
			         1.87667	1.12000e+02	
			         1.87833	1.37000e+02	
			         1.88000	1.61000e+02	
			         1.88167	1.83000e+02	
			         1.88333	2.02000e+02	
			         1.88500	2.18000e+02	
			         1.88667	2.29000e+02	
			         1.88833	2.35000e+02	
			         1.89000	2.36000e+02	
			         1.89167	2.30000e+02	
			         1.89333	2.18000e+02	
			         1.89500	2.02000e+02	
			         1.89667	1.82000e+02	
			         1.89833	1.58000e+02	
			         1.90000	1.33000e+02	
			         1.90167	1.07000e+02	
			         1.90333	8.00000e+01	
			         1.90500	5.40000e+01	
			         1.90667	2.80000e+01	
			         1.90833	4.00000e+00	
			         1.91000	-1.80000e+01	
			         1.91167	-3.80000e+01	
			         1.91333	-5.40000e+01	
			         1.91500	-6.80000e+01	
			         1.91667	-7.90000e+01	
			         1.91833	-8.70000e+01	
			         1.92000	-9.20000e+01	
			         1.92167	-9.50000e+01	
			         1.92333	-9.50000e+01	
			         1.92500	-9.40000e+01	
			         1.92667	-9.10000e+01	
			         1.92833	-8.80000e+01	
			         1.93000	-8.30000e+01	
			         1.93167	-7.90000e+01	
			         1.93333	-7.40000e+01	
			         1.93500	-6.90000e+01	
			         1.93667	-6.40000e+01	
			         1.93833	-6.00000e+01	
			         1.94000	-5.70000e+01	
			         1.94167	-5.40000e+01	
			         1.94333	-5.10000e+01	
			         1.94500	-4.80000e+01	
			         1.94667	-4.60000e+01	
			         1.94833	-4.40000e+01	
			         1.95000	-4.20000e+01	
			         1.95167	-4.10000e+01	
			         1.95333	-4.00000e+01	
			         1.95500	-3.80000e+01	
			         1.95667	-3.70000e+01	
			         1.95833	-3.60000e+01	
			         1.96000	-3.50000e+01	
			         1.96167	-3.40000e+01	
			         1.96333	-3.30000e+01	
			         1.96500	-3.20000e+01	
			         1.96667	-3.10000e+01	
			         1.96833	-3.10000e+01	
			         1.97000	-3.00000e+01	
			         1.97167	-2.90000e+01	
			         1.97333	-2.80000e+01	
			         1.97500	-2.80000e+01	
			         1.97667	-2.70000e+01	
			         1.97833	-2.70000e+01	
			         1.98000	-2.60000e+01	
			         1.98167	-2.60000e+01	
			         1.98333	-2.50000e+01	
			         1.98500	-2.50000e+01	
			         1.98667	-2.40000e+01	
			         1.98833	-2.40000e+01	
			         1.99000	-2.40000e+01	
			         1.99167	-2.40000e+01	
			         1.99333	-2.40000e+01	
			         1.99500	-2.30000e+01	
			         1.99667	-2.20000e+01	
			         1.99833	-2.10000e+01	
			         2.00000	-2.00000e+01	
			         2.00167	-1.90000e+01	
			         2.00333	-1.80000e+01	
			         2.00500	-1.70000e+01	
			         2.00667	-1.60000e+01	
			         2.00833	-1.50000e+01	
			         2.01000	-1.40000e+01	
			         2.01167	-1.30000e+01	
			         2.01333	-1.20000e+01	
			         2.01500	-1.20000e+01	
			         2.01667	-1.20000e+01	
			         2.01833	-1.20000e+01	
			         2.02000	-1.20000e+01	
			         2.02167	-1.20000e+01	
			         2.02333	-1.10000e+01	
			         2.02500	-1.10000e+01	
			         2.02667	-1.10000e+01	
			         2.02833	-1.10000e+01	
			         2.03000	-1.00000e+01	
			         2.03167	-9.00000e+00	
			         2.03333	-9.00000e+00	
			         2.03500	-8.00000e+00	
			         2.03667	-7.00000e+00	
			         2.03833	-7.00000e+00	
			         2.04000	-6.00000e+00	
			         2.04167	-5.00000e+00	
			         2.04333	-5.00000e+00	
			         2.04500	-4.00000e+00	
			         2.04667	-3.00000e+00	
			         2.04833	-2.00000e+00	
			         2.05000	-1.00000e+00	
			         2.05167	0.00000e+00	
			         2.05333	1.00000e+00	
			         2.05500	2.00000e+00	
			         2.05667	3.00000e+00	
			         2.05833	5.00000e+00	
			         2.06000	6.00000e+00	
			         2.06167	7.00000e+00	
			         2.06333	8.00000e+00	
			         2.06500	9.00000e+00	
			         2.06667	1.00000e+01	
			         2.06833	1.10000e+01	
			         2.07000	1.20000e+01	
			         2.07167	1.30000e+01	
			         2.07333	1.40000e+01	
			         2.07500	1.50000e+01	
			         2.07667	1.50000e+01	
			         2.07833	1.60000e+01	
			         2.08000	1.60000e+01	
			         2.08167	1.60000e+01	
			         2.08333	1.60000e+01	
			         2.08500	1.70000e+01	
			         2.08667	1.70000e+01	
			         2.08833	1.70000e+01	
			         2.09000	1.70000e+01	
			         2.09167	1.80000e+01	
			         2.09333	1.80000e+01	
			         2.09500	1.80000e+01	
			         2.09667	1.90000e+01	
			         2.09833	2.00000e+01	
			         2.10000	2.10000e+01	
			         2.10167	2.20000e+01	
			         2.10333	2.40000e+01	
			         2.10500	2.50000e+01	
			         2.10667	2.70000e+01	
			         2.10833	2.80000e+01	
			         2.11000	2.90000e+01	
			         2.11167	3.10000e+01	
			         2.11333	3.20000e+01	
			         2.11500	3.40000e+01	
			         2.11667	3.60000e+01	
			         2.11833	3.70000e+01	
			         2.12000	3.90000e+01	
			         2.12167	4.10000e+01	
			         2.12333	4.40000e+01	
			         2.12500	4.60000e+01	
			         2.12667	4.80000e+01	
			         2.12833	5.00000e+01	
			         2.13000	5.10000e+01	
			         2.13167	5.20000e+01	
			         2.13333	5.30000e+01	
			         2.13500	5.40000e+01	
			         2.13667	5.40000e+01	
			         2.13833	5.40000e+01	
			         2.14000	5.40000e+01	
			         2.14167	5.40000e+01	
			         2.14333	5.30000e+01	
			         2.14500	5.20000e+01	
			         2.14667	5.00000e+01	
			         2.14833	4.90000e+01	
			         2.15000	4.70000e+01	
			         2.15167	4.60000e+01	
			         2.15333	4.50000e+01	
			         2.15500	4.40000e+01	
			         2.15667	4.30000e+01	
			         2.15833	4.20000e+01	
			         2.16000	4.10000e+01	
			         2.16167	4.00000e+01	
			         2.16333	3.90000e+01	
			         2.16500	3.90000e+01	
			         2.16667	3.90000e+01	
			         2.16833	3.90000e+01	
			         2.17000	3.80000e+01	
			         2.17167	3.80000e+01	
			         2.17333	3.80000e+01	
			         2.17500	3.70000e+01	
			         2.17667	3.60000e+01	
			         2.17833	3.40000e+01	
			         2.18000	3.20000e+01	
			         2.18167	2.90000e+01	
			         2.18333	2.60000e+01	
			         2.18500	2.30000e+01	
			         2.18667	1.90000e+01	
			         2.18833	1.50000e+01	
			         2.19000	1.10000e+01	
			         2.19167	8.00000e+00	
			         2.19333	4.00000e+00	
			         2.19500	0.00000e+00	
			         2.19667	-3.00000e+00	
			         2.19833	-7.00000e+00	
			         2.20000	-1.00000e+01	
			         2.20167	-1.30000e+01	
			         2.20333	-1.60000e+01	
			         2.20500	-1.90000e+01	
			         2.20667	-2.20000e+01	
			         2.20833	-2.40000e+01	
			         2.21000	-2.70000e+01	
			         2.21167	-2.90000e+01	
			         2.21333	-3.20000e+01	
			         2.21500	-3.50000e+01	
			         2.21667	-3.70000e+01	
			         2.21833	-3.90000e+01	
			         2.22000	-4.10000e+01	
			         2.22167	-4.20000e+01	
			         2.22333	-4.40000e+01	
			         2.22500	-4.50000e+01	
			         2.22667	-4.50000e+01	
			         2.22833	-4.60000e+01	
			         2.23000	-4.70000e+01	
			         2.23167	-4.70000e+01	
			         2.23333	-4.70000e+01	
			         2.23500	-4.70000e+01	
			         2.23667	-4.70000e+01	
			         2.23833	-4.70000e+01	
			         2.24000	-4.60000e+01	
			         2.24167	-4.60000e+01	
			         2.24333	-4.60000e+01	
			         2.24500	-4.60000e+01	
			         2.24667	-4.50000e+01	
			         2.24833	-4.50000e+01	
			         2.25000	-4.50000e+01	
			         2.25167	-4.50000e+01	
			         2.25333	-4.50000e+01	
			         2.25500	-4.50000e+01	
			         2.25667	-4.50000e+01	
			         2.25833	-4.40000e+01	
			         2.26000	-4.40000e+01	
			         2.26167	-4.30000e+01	
			         2.26333	-4.30000e+01	
			         2.26500	-4.20000e+01	
			         2.26667	-4.10000e+01	
			         2.26833	-4.00000e+01	
			         2.27000	-3.90000e+01	
			         2.27167	-3.80000e+01	
			         2.27333	-3.70000e+01	
			         2.27500	-3.60000e+01	
			         2.27667	-3.50000e+01	
			         2.27833	-3.50000e+01	
			         2.28000	-3.50000e+01	
			         2.28167	-3.50000e+01	
			         2.28333	-3.50000e+01	
			         2.28500	-3.40000e+01	
			         2.28667	-3.40000e+01	
			         2.28833	-3.40000e+01	
			         2.29000	-3.30000e+01	
			         2.29167	-3.30000e+01	
			         2.29333	-3.20000e+01	
			         2.29500	-3.10000e+01	
			         2.29667	-3.00000e+01	
			         2.29833	-2.90000e+01	
			         2.30000	-2.80000e+01	
			         2.30167	-2.70000e+01	
			         2.30333	-2.70000e+01	
			         2.30500	-2.70000e+01	
			         2.30667	-2.60000e+01	
			         2.30833	-2.60000e+01	
			         2.31000	-2.60000e+01	
			         2.31167	-2.60000e+01	
			         2.31333	-2.60000e+01	
			         2.31500	-2.60000e+01	
			         2.31667	-2.70000e+01	
			         2.31833	-2.70000e+01	
			         2.32000	-2.70000e+01	
			         2.32167	-2.60000e+01	
			         2.32333	-2.60000e+01	
			         2.32500	-2.50000e+01	
			         2.32667	-2.40000e+01	
			         2.32833	-2.30000e+01	
			         2.33000	-2.20000e+01	
			         2.33167	-2.20000e+01	
			         2.33333	-2.10000e+01	
			         2.33500	-2.00000e+01	
			         2.33667	-2.00000e+01	
			         2.33833	-1.90000e+01	
			         2.34000	-1.80000e+01	
			         2.34167	-1.80000e+01	
			         2.34333	-1.80000e+01	
			         2.34500	-1.70000e+01	
			         2.34667	-1.70000e+01	
			         2.34833	-1.70000e+01	
			         2.35000	-1.70000e+01	
			         2.35167	-1.70000e+01	
			         2.35333	-1.60000e+01	
			         2.35500	-1.60000e+01	
			         2.35667	-1.50000e+01	
			         2.35833	-1.50000e+01	
			         2.36000	-1.40000e+01	
			         2.36167	-1.40000e+01	
			         2.36333	-1.30000e+01	
			         2.36500	-1.30000e+01	
			         2.36667	-1.30000e+01	
			         2.36833	-1.20000e+01	
			         2.37000	-1.10000e+01	
			         2.37167	-1.10000e+01	
			         2.37333	-1.00000e+01	
			         2.37500	-1.00000e+01	
			         2.37667	-9.00000e+00	
			         2.37833	-9.00000e+00	
			         2.38000	-8.00000e+00	
			         2.38167	-7.00000e+00	
			         2.38333	-7.00000e+00	
			         2.38500	-7.00000e+00	
			         2.38667	-7.00000e+00	
			         2.38833	-7.00000e+00	
			         2.39000	-8.00000e+00	
			         2.39167	-8.00000e+00	
			         2.39333	-8.00000e+00	
			         2.39500	-8.00000e+00	
			         2.39667	-9.00000e+00	
			         2.39833	-9.00000e+00	
			         2.40000	-9.00000e+00	
			         2.40167	-9.00000e+00	
			         2.40333	-9.00000e+00	
			         2.40500	-8.00000e+00	
			         2.40667	-8.00000e+00	
			         2.40833	-7.00000e+00	
			         2.41000	-6.00000e+00	
			         2.41167	-5.00000e+00	
			         2.41333	-4.00000e+00	
			         2.41500	-4.00000e+00	
			         2.41667	-3.00000e+00	
			         2.41833	-3.00000e+00	
			         2.42000	-2.00000e+00	
			         2.42167	-1.00000e+00	
			         2.42333	-1.00000e+00	
			         2.42500	-1.00000e+00	
			         2.42667	-1.00000e+00	
			         2.42833	-2.00000e+00	
			         2.43000	-2.00000e+00	
			         2.43167	-3.00000e+00	
			         2.43333	-4.00000e+00	
			         2.43500	-4.00000e+00	
			         2.43667	-5.00000e+00	
			         2.43833	-6.00000e+00	
			         2.44000	-6.00000e+00	
			         2.44167	-7.00000e+00	
			         2.44333	-7.00000e+00	
			         2.44500	-8.00000e+00	
			         2.44667	-8.00000e+00	
			         2.44833	-8.00000e+00	
			         2.45000	-7.00000e+00	
			         2.45167	-7.00000e+00	
			         2.45333	-7.00000e+00	
			         2.45500	-7.00000e+00	
			         2.45667	-7.00000e+00	
			         2.45833	-7.00000e+00	
			         2.46000	-7.00000e+00	
			         2.46167	-7.00000e+00	
			         2.46333	-7.00000e+00	
			         2.46500	-7.00000e+00	
			         2.46667	-7.00000e+00	
			         2.46833	-6.00000e+00	
			         2.47000	-6.00000e+00	
			         2.47167	-6.00000e+00	
			         2.47333	-6.00000e+00	
			         2.47500	-5.00000e+00	
			         2.47667	-5.00000e+00	
			         2.47833	-5.00000e+00	
			         2.48000	-5.00000e+00	
			         2.48167	-5.00000e+00	
			         2.48333	-5.00000e+00	
			         2.48500	-5.00000e+00	
			         2.48667	-4.00000e+00	
			         2.48833	-4.00000e+00	
			         2.49000	-4.00000e+00	
			         2.49167	-4.00000e+00	
			         2.49333	-4.00000e+00	
			         2.49500	-4.00000e+00	
			         2.49667	-4.00000e+00	
			         2.49833	-4.00000e+00	
			         2.50000	-4.00000e+00	
			         2.50167	-4.00000e+00	
			         2.50333	-4.00000e+00	
			         2.50500	-5.00000e+00	
			         2.50667	-5.00000e+00	
			         2.50833	-6.00000e+00	
			         2.51000	-7.00000e+00	
			         2.51167	-7.00000e+00	
			         2.51333	-7.00000e+00	
			         2.51500	-7.00000e+00	
			         2.51667	-6.00000e+00	
			         2.51833	-5.00000e+00	
			         2.52000	-4.00000e+00	
			         2.52167	-3.00000e+00	
			         2.52333	-2.00000e+00	
			         2.52500	-1.00000e+00	
			         2.52667	0.00000e+00	
			         2.52833	1.00000e+00	
			         2.53000	1.00000e+00	
			         2.53167	1.00000e+00	
			         2.53333	1.00000e+00	
			         2.53500	1.00000e+00	
			         2.53667	1.00000e+00	
			         2.53833	0.00000e+00	
			         2.54000	-1.00000e+00	
			         2.54167	-1.00000e+00	
			         2.54333	-2.00000e+00	
			         2.54500	-3.00000e+00	
			         2.54667	-3.00000e+00	
			         2.54833	-3.00000e+00	
			         2.55000	-3.00000e+00	
			         2.55167	-3.00000e+00	
			         2.55333	-2.00000e+00	
			         2.55500	-2.00000e+00	
			         2.55667	-2.00000e+00	
			         2.55833	-2.00000e+00	
			         2.56000	-2.00000e+00	
			         2.56167	-2.00000e+00	
			         2.56333	-1.00000e+00	
			         2.56500	-1.00000e+00	
			         2.56667	-1.00000e+00	
			         2.56833	0.00000e+00	
			         2.57000	0.00000e+00	
			         2.57167	1.00000e+00	
			         2.57333	1.00000e+00	
			         2.57500	2.00000e+00	
			         2.57667	2.00000e+00	
			         2.57833	3.00000e+00	
			         2.58000	3.00000e+00	
			         2.58167	3.00000e+00	
			         2.58333	3.00000e+00	
			         2.58500	3.00000e+00	
			         2.58667	2.00000e+00	
			         2.58833	2.00000e+00	
			         2.59000	2.00000e+00	
			         2.59167	2.00000e+00	
			         2.59333	1.00000e+00	
			         2.59500	1.00000e+00	
			         2.59667	1.00000e+00	
			         2.59833	1.00000e+00	
			         2.60000	1.00000e+00	
			         2.60167	1.00000e+00	
			         2.60333	1.00000e+00	
			         2.60500	1.00000e+00	
			         2.60667	1.00000e+00	
			         2.60833	1.00000e+00	
			         2.61000	0.00000e+00	
			         2.61167	0.00000e+00	
			         2.61333	-1.00000e+00	
			         2.61500	-1.00000e+00	
			         2.61667	-1.00000e+00	
			         2.61833	-2.00000e+00	
			         2.62000	-2.00000e+00	
			         2.62167	-1.00000e+00	
			         2.62333	-1.00000e+00	
			         2.62500	0.00000e+00	
			         2.62667	0.00000e+00	
			         2.62833	1.00000e+00	
			         2.63000	2.00000e+00	
			         2.63167	3.00000e+00	
			         2.63333	4.00000e+00	
			         2.63500	6.00000e+00	
			         2.63667	7.00000e+00	
			         2.63833	8.00000e+00	
			         2.64000	8.00000e+00	
			         2.64167	8.00000e+00	
			         2.64333	9.00000e+00	
			         2.64500	9.00000e+00	
			         2.64667	9.00000e+00	
			         2.64833	9.00000e+00	
			         2.65000	1.00000e+01	
			         2.65167	1.00000e+01	
			         2.65333	9.00000e+00	
			         2.65500	9.00000e+00	
			         2.65667	8.00000e+00	
			         2.65833	8.00000e+00	
			         2.66000	8.00000e+00	
			         2.66167	8.00000e+00	
			         2.66333	8.00000e+00	
			         2.66500	8.00000e+00	
			         2.66667	8.00000e+00	
			         2.66833	9.00000e+00	
			         2.67000	9.00000e+00	
			         2.67167	9.00000e+00	
			         2.67333	9.00000e+00	
			         2.67500	1.00000e+01	
			         2.67667	1.10000e+01	
			         2.67833	1.10000e+01	
			         2.68000	1.20000e+01	
			         2.68167	1.20000e+01	
			         2.68333	1.20000e+01	
			         2.68500	1.20000e+01	
			         2.68667	1.20000e+01	
			         2.68833	1.20000e+01	
			         2.69000	1.20000e+01	
			         2.69167	1.20000e+01	
			         2.69333	1.20000e+01	
			         2.69500	1.20000e+01	
			         2.69667	1.30000e+01	
			         2.69833	1.40000e+01	
			         2.70000	1.50000e+01	
			         2.70167	1.60000e+01	
			         2.70333	1.80000e+01	
			         2.70500	1.90000e+01	
			         2.70667	2.10000e+01	
			         2.70833	2.20000e+01	
			         2.71000	2.40000e+01	
			         2.71167	2.40000e+01	
			         2.71333	2.50000e+01	
			         2.71500	2.50000e+01	
			         2.71667	2.40000e+01	
			         2.71833	2.30000e+01	
			         2.72000	2.10000e+01	
			         2.72167	1.90000e+01	
			         2.72333	1.60000e+01	
			         2.72500	1.30000e+01	
			         2.72667	1.00000e+01	
			         2.72833	6.00000e+00	
			         2.73000	3.00000e+00	
			         2.73167	-1.00000e+00	
			         2.73333	-5.00000e+00	
			         2.73500	-8.00000e+00	
			         2.73667	-1.10000e+01	
			         2.73833	-1.40000e+01	
			         2.74000	-1.70000e+01	
			         2.74167	-1.90000e+01	
			         2.74333	-2.00000e+01	
			         2.74500	-2.10000e+01	
			         2.74667	-2.20000e+01	
			         2.74833	-2.20000e+01	
			         2.75000	-2.20000e+01	
			         2.75167	-2.20000e+01	
			         2.75333	-2.20000e+01	
			         2.75500	-2.10000e+01	
			         2.75667	-2.00000e+01	
			         2.75833	-1.90000e+01	
			         2.76000	-1.90000e+01	
			         2.76167	-1.80000e+01	
			         2.76333	-1.70000e+01	
			         2.76500	-1.70000e+01	
			         2.76667	-1.60000e+01	
			         2.76833	-1.60000e+01	
			         2.77000	-1.60000e+01	
			         2.77167	-1.60000e+01	
			         2.77333	-1.60000e+01	
			         2.77500	-1.60000e+01	
			         2.77667	-1.70000e+01	
			         2.77833	-1.70000e+01	
			         2.78000	-1.80000e+01	
			         2.78167	-1.90000e+01	
			         2.78333	-2.00000e+01	
			         2.78500	-2.00000e+01	
			         2.78667	-2.00000e+01	
			         2.78833	-2.00000e+01	
			         2.79000	-2.00000e+01	
			         2.79167	-1.90000e+01	
			         2.79333	-1.90000e+01	
			         2.79500	-1.80000e+01	
			         2.79667	-1.70000e+01	
			         2.79833	-1.60000e+01	
			         2.80000	-1.60000e+01	
			         2.80167	-1.50000e+01	
			         2.80333	-1.50000e+01	
			         2.80500	-1.50000e+01	
			         2.80667	-1.50000e+01	
			         2.80833	-1.50000e+01	
			         2.81000	-1.40000e+01	
			         2.81167	-1.20000e+01	
			         2.81333	-8.00000e+00	
			         2.81500	0.00000e+00	
			         2.81667	1.00000e+01	
			         2.81833	2.40000e+01	
			         2.82000	4.30000e+01	
			         2.82167	6.40000e+01	
			         2.82333	8.90000e+01	
			         2.82500	1.15000e+02	
			         2.82667	1.43000e+02	
			         2.82833	1.69000e+02	
			         2.83000	1.94000e+02	
			         2.83167	2.16000e+02	
			         2.83333	2.34000e+02	
			         2.83500	2.48000e+02	
			         2.83667	2.56000e+02	
			         2.83833	2.57000e+02	
			         2.84000	2.53000e+02	
			         2.84167	2.42000e+02	
			         2.84333	2.25000e+02	
			         2.84500	2.04000e+02	
			         2.84667	1.80000e+02	
			         2.84833	1.53000e+02	
			         2.85000	1.25000e+02	
			         2.85167	9.60000e+01	
			         2.85333	6.70000e+01	
			         2.85500	3.90000e+01	
			         2.85667	1.20000e+01	
			         2.85833	-1.20000e+01	
			         2.86000	-3.40000e+01	
			         2.86167	-5.40000e+01	
			         2.86333	-7.00000e+01	
			         2.86500	-8.40000e+01	
			         2.86667	-9.40000e+01	
			         2.86833	-1.02000e+02	
			         2.87000	-1.06000e+02	
			         2.87167	-1.09000e+02	
			         2.87333	-1.09000e+02	
			         2.87500	-1.07000e+02	
			         2.87667	-1.04000e+02	
			         2.87833	-9.90000e+01	
			         2.88000	-9.40000e+01	
			         2.88167	-8.90000e+01	
