Velocity (TVI), in cm/s

Time (s) :	Trace 1 : 		Ecg : 		
0.01700   	-2.71911e+00		         0.00000	-3.00000e+01	
0.02310   	-1.90935e+00		         0.00167	-2.80000e+01	
0.02948   	-1.24535e+00		         0.00333	-2.70000e+01	
0.03558   	-1.68342e-02		         0.00500	-2.50000e+01	
0.04169   	1.01598e+00		         0.00667	-2.40000e+01	
0.04779   	1.54348e+00		         0.00833	-2.30000e+01	
0.05417   	9.78646e-01		         0.01000	-2.20000e+01	
0.06027   	3.36322e-01		         0.01167	-2.00000e+01	
0.06638   	-1.69863e-01		         0.01333	-1.70000e+01	
0.07248   	-7.50478e-01		         0.01500	-1.20000e+01	
0.07886   	-1.06074e+00		         0.01667	-5.00000e+00	
0.08496   	-5.11434e-01		         0.01833	5.00000e+00	
0.09107   	1.02876e-01		         0.02000	1.80000e+01	
0.09717   	9.75370e-01		         0.02167	3.30000e+01	
0.10355   	2.14875e+00		         0.02333	5.10000e+01	
0.10966   	3.47455e+00		         0.02500	7.00000e+01	
0.11576   	4.62328e+00		         0.02667	9.10000e+01	
0.12186   	5.57210e+00		         0.02833	1.11000e+02	
0.12824   	5.99323e+00		         0.03000	1.30000e+02	
0.13434   	6.14628e+00		         0.03167	1.47000e+02	
0.14044   	6.11367e+00		         0.03333	1.61000e+02	
0.14655   	6.06717e+00		         0.03500	1.71000e+02	
0.15293   	6.04181e+00		         0.03667	1.75000e+02	
0.15903   	5.96097e+00		         0.03833	1.74000e+02	
0.16518   	5.86573e+00		         0.04000	1.68000e+02	
0.17124   	5.74409e+00		         0.04167	1.57000e+02	
0.17762   	5.67819e+00		         0.04333	1.40000e+02	
0.18372   	5.57006e+00		         0.04500	1.20000e+02	
0.18983   	5.47960e+00		         0.04667	9.70000e+01	
0.19593   	5.41260e+00		         0.04833	7.20000e+01	
0.20231   	5.37404e+00		         0.05000	4.70000e+01	
0.20841   	5.34300e+00		         0.05167	2.30000e+01	
0.21491   	5.35216e+00		         0.05333	1.00000e+00	
0.22062   	5.37719e+00		         0.05500	-1.80000e+01	
0.22700   	5.36801e+00		         0.05667	-3.30000e+01	
0.23310   	5.37666e+00		         0.05833	-4.60000e+01	
0.23921   	5.33475e+00		         0.06000	-5.50000e+01	
0.24531   	5.28707e+00		         0.06167	-6.20000e+01	
0.25169   	5.23421e+00		         0.06333	-6.60000e+01	
0.25780   	5.16782e+00		         0.06500	-6.70000e+01	
0.26390   	5.06065e+00		         0.06667	-6.70000e+01	
0.27000   	4.92502e+00		         0.06833	-6.50000e+01	
0.27638   	4.78924e+00		         0.07000	-6.20000e+01	
0.28248   	4.66567e+00		         0.07167	-5.90000e+01	
0.28859   	4.55641e+00		         0.07333	-5.60000e+01	
0.29469   	4.45336e+00		         0.07500	-5.30000e+01	
0.30107   	4.36434e+00		         0.07667	-5.10000e+01	
0.30718   	4.28968e+00		         0.07833	-4.90000e+01	
0.31328   	4.19168e+00		         0.08000	-4.70000e+01	
0.31938   	4.04165e+00		         0.08167	-4.60000e+01	
0.32576   	3.94383e+00		         0.08333	-4.50000e+01	
0.33186   	3.82533e+00		         0.08500	-4.50000e+01	
0.33797   	3.66345e+00		         0.08667	-4.50000e+01	
0.34407   	3.48775e+00		         0.08833	-4.40000e+01	
0.35045   	3.38046e+00		         0.09000	-4.40000e+01	
0.35656   	3.19347e+00		         0.09167	-4.40000e+01	
0.36266   	3.02502e+00		         0.09333	-4.40000e+01	
0.36877   	2.85962e+00		         0.09500	-4.40000e+01	
0.37514   	2.68859e+00		         0.09667	-4.40000e+01	
0.38131   	2.45455e+00		         0.09833	-4.30000e+01	
0.38735   	2.20460e+00		         0.10000	-4.30000e+01	
0.39346   	1.87861e+00		         0.10167	-4.20000e+01	
0.39983   	1.39358e+00		         0.10333	-4.10000e+01	
0.40593   	7.67078e-01		         0.10500	-4.00000e+01	
0.41204   	-8.72408e-02		         0.10667	-3.90000e+01	
0.41814   	-1.13237e+00		         0.10833	-3.80000e+01	
0.42452   	-2.04383e+00		         0.11000	-3.60000e+01	
0.43075   	-2.39229e+00		         0.11167	-3.50000e+01	
0.43673   	-2.61979e+00		         0.11333	-3.40000e+01	
0.44284   	-2.47732e+00		         0.11500	-3.30000e+01	
0.44921   	-2.21469e+00		         0.11667	-3.20000e+01	
0.45531   	-1.93357e+00		         0.11833	-3.10000e+01	
0.46142   	-1.78618e+00		         0.12000	-3.00000e+01	
0.46752   	-1.40469e+00		         0.12167	-3.00000e+01	
0.47390   	-9.25154e-01		         0.12333	-2.90000e+01	
0.48000   	-1.77043e-01		         0.12500	-2.90000e+01	
0.48611   	6.29563e-01		         0.12667	-2.90000e+01	
0.49222   	1.36609e+00		         0.12833	-2.90000e+01	
0.49859   	2.07830e+00		         0.13000	-2.80000e+01	
0.50470   	1.91478e+00		         0.13167	-2.80000e+01	
0.51080   	1.92582e+00		         0.13333	-2.70000e+01	
0.51690   	1.47549e+00		         0.13500	-2.60000e+01	
0.52328   	5.60415e-01		         0.13667	-2.50000e+01	
0.52938   	-8.06155e-01		         0.13833	-2.30000e+01	
0.53549   	-1.69168e+00		         0.14000	-2.20000e+01	
0.54160   	-3.05701e+00		         0.14167	-2.00000e+01	
0.54797   	-4.27846e+00		         0.14333	-1.80000e+01	
0.55408   	-5.27555e+00		         0.14500	-1.70000e+01	
0.56018   	-5.78919e+00		         0.14667	-1.60000e+01	
0.56628   	-6.13878e+00		         0.14833	-1.50000e+01	
0.57266   	-6.38546e+00		         0.15000	-1.40000e+01	
0.57876   	-6.36930e+00		         0.15167	-1.40000e+01	
0.58487   	-6.22660e+00		         0.15333	-1.40000e+01	
0.59097   	-6.17758e+00		         0.15500	-1.40000e+01	
0.59735   	-5.94248e+00		         0.15667	-1.40000e+01	
0.60346   	-5.56422e+00		         0.15833	-1.40000e+01	
0.60956   	-5.13118e+00		         0.16000	-1.50000e+01	
0.61566   	-4.68649e+00		         0.16167	-1.50000e+01	
0.62204   	-4.24309e+00		         0.16333	-1.50000e+01	
0.62814   	-3.84002e+00		         0.16500	-1.50000e+01	
0.63425   	-3.37755e+00		         0.16667	-1.40000e+01	
0.64036   	-2.92203e+00		         0.16833	-1.40000e+01	
0.64673   	-2.45419e+00		         0.17000	-1.20000e+01	
0.65284   	-2.03694e+00		         0.17167	-1.10000e+01	
0.65895   	-1.65178e+00		         0.17333	-1.00000e+01	
0.66504   	-1.38676e+00		         0.17500	-8.00000e+00	
0.67142   	-1.24114e+00		         0.17667	-7.00000e+00	
0.67752   	-1.16962e+00		         0.17833	-6.00000e+00	
0.68363   	-1.15660e+00		         0.18000	-5.00000e+00	
0.68974   	-1.19578e+00		         0.18167	-3.00000e+00	
0.69630   	-1.18035e+00		         0.18333	-3.00000e+00	
0.70222   	-1.17655e+00		         0.18500	-2.00000e+00	
0.70832   	-1.17033e+00		         0.18667	-1.00000e+00	
0.71443   	-1.10186e+00		         0.18833	-1.00000e+00	
0.72080   	-1.00402e+00		         0.19000	0.00000e+00	
0.72690   	-9.24744e-01		         0.19167	0.00000e+00	
0.73301   	-7.70826e-01		         0.19333	0.00000e+00	
0.73912   	-6.06529e-01		         0.19500	0.00000e+00	
0.74549   	-4.44578e-01		         0.19667	0.00000e+00	
0.75160   	-2.90351e-01		         0.19833	-1.00000e+00	
0.75770   	-1.64528e-01		         0.20000	-1.00000e+00	
0.76380   	-5.95237e-02		         0.20167	-1.00000e+00	
0.77018   	5.60751e-02		         0.20333	-2.00000e+00	
0.77628   	1.38011e-01		         0.20500	-2.00000e+00	
0.78239   	2.00036e-01		         0.20667	-3.00000e+00	
0.78850   	2.33504e-01		         0.20833	-3.00000e+00	
0.79487   	2.39440e-01		         0.21000	-4.00000e+00	
0.80097   	2.10426e-01		         0.21167	-4.00000e+00	
0.80708   	1.67606e-01		         0.21333	-5.00000e+00	
0.81319   	1.27879e-01		         0.21500	-5.00000e+00	
0.81956   	9.41338e-02		         0.21667	-5.00000e+00	
0.82567   	6.56220e-02		         0.21833	-5.00000e+00	
0.83177   	1.16414e-01		         0.22000	-5.00000e+00	
0.83788   	2.31351e-01		         0.22167	-5.00000e+00	
0.84425   	4.50562e-01		         0.22333	-4.00000e+00	
0.85036   	5.64885e-01		         0.22500	-4.00000e+00	
0.85646   	7.89566e-01		         0.22667	-3.00000e+00	
0.86257   	5.64037e-01		         0.22833	-1.00000e+00	
0.86894   	-5.08592e-01		         0.23000	0.00000e+00	
0.87505   	-1.98597e+00		         0.23167	2.00000e+00	
0.88115   	-3.67201e+00		         0.23333	4.00000e+00	
0.88726   	-5.97085e+00		         0.23500	7.00000e+00	
0.89363   	-8.08766e+00		         0.23667	9.00000e+00	
0.89974   	-9.51942e+00		         0.23833	1.10000e+01	
0.90584   	-1.05976e+01		         0.24000	1.30000e+01	
0.91225   	-1.12915e+01		         0.24167	1.40000e+01	
0.91832   	-1.11438e+01		         0.24333	1.50000e+01	
0.92443   	-1.04473e+01		         0.24500	1.70000e+01	
0.93053   	-9.28916e+00		         0.24667	1.70000e+01	
0.93664   	-7.92245e+00		         0.24833	1.80000e+01	
0.94301   	-6.35659e+00		         0.25000	1.90000e+01	
0.94912   	-4.89961e+00		         0.25167	1.90000e+01	
0.95522   	-3.53056e+00		         0.25333	2.00000e+01	
0.96133   	-2.24621e+00		         0.25500	2.10000e+01	
0.96770   	-9.82592e-01		         0.25667	2.20000e+01	
0.97381   	2.46292e-01		         0.25833	2.40000e+01	
0.97991   	1.13281e+00		         0.26000	2.50000e+01	
0.98602   	1.25158e+00		         0.26167	2.60000e+01	
0.99239   	9.03111e-01		         0.26333	2.80000e+01	
0.99850   	4.46305e-01		         0.26500	2.90000e+01	
1.00460   	-4.57984e-02		         0.26667	3.00000e+01	
1.01071   	-6.75214e-01		         0.26833	3.10000e+01	
1.01708   	-6.66076e-01		         0.27000	3.20000e+01	
1.02319   	-3.50818e-01		         0.27167	3.30000e+01	
1.02929   	3.83845e-01		         0.27333	3.30000e+01	
1.03540   	1.26977e+00		         0.27500	3.40000e+01	
1.04177   	2.70437e+00		         0.27667	3.40000e+01	
1.04788   	4.07443e+00		         0.27833	3.40000e+01	
1.05398   	5.26916e+00		         0.28000	3.40000e+01	
1.06008   	5.87749e+00		         0.28167	3.50000e+01	
1.06646   	6.15783e+00		         0.28333	3.50000e+01	
1.07257   	6.18044e+00		         0.28500	3.50000e+01	
1.07867   	6.12399e+00		         0.28667	3.60000e+01	
1.08478   	6.07665e+00		         0.28833	3.60000e+01	
1.09115   	6.04697e+00		         0.29000	3.70000e+01	
1.09726   	5.97761e+00		         0.29167	3.70000e+01	
1.10336   	5.85119e+00		         0.29333	3.80000e+01	
1.10947   	5.71580e+00		         0.29500	3.80000e+01	
1.11584   	5.59806e+00		         0.29667	3.80000e+01	
1.12195   	5.52581e+00		         0.29833	3.70000e+01	
1.12818   	5.44226e+00		         0.30000	3.70000e+01	
1.13416   	5.35219e+00		         0.30167	3.70000e+01	
1.14053   	5.32386e+00		         0.30333	3.60000e+01	
1.14664   	5.32748e+00		         0.30500	3.60000e+01	
1.15274   	5.29526e+00		         0.30667	3.50000e+01	
1.15885   	5.30241e+00		         0.30833	3.50000e+01	
1.16523   	5.32699e+00		         0.31000	3.40000e+01	
1.17133   	5.30988e+00		         0.31167	3.30000e+01	
1.17743   	5.28070e+00		         0.31333	3.10000e+01	
1.18354   	5.21528e+00		         0.31500	3.00000e+01	
1.18991   	5.10550e+00		         0.31667	2.90000e+01	
1.19602   	5.00821e+00		         0.31833	2.70000e+01	
1.20212   	4.91022e+00		         0.32000	2.60000e+01	
1.20823   	4.81136e+00		         0.32167	2.40000e+01	
1.21460   	4.72882e+00		         0.32333	2.30000e+01	
1.22071   	4.66588e+00		         0.32500	2.10000e+01	
1.22681   	4.58713e+00		         0.32667	1.90000e+01	
1.23292   	4.44120e+00		         0.32833	1.70000e+01	
1.23929   	4.37536e+00		         0.33000	1.50000e+01	
1.24540   	4.31945e+00		         0.33167	1.20000e+01	
1.25150   	4.18220e+00		         0.33333	9.00000e+00	
1.25761   	4.06016e+00		         0.33500	7.00000e+00	
1.26398   	3.96457e+00		         0.33667	4.00000e+00	
1.27009   	3.78320e+00		         0.33833	1.00000e+00	
1.27619   	3.58084e+00		         0.34000	-2.00000e+00	
1.28230   	3.41801e+00		         0.34167	-5.00000e+00	
1.28867   	3.26661e+00		         0.34333	-8.00000e+00	
1.29478   	3.12240e+00		         0.34500	-1.20000e+01	
1.30088   	2.94408e+00		         0.34667	-1.50000e+01	
1.30699   	2.75860e+00		         0.34833	-1.90000e+01	
1.31336   	2.58715e+00		         0.35000	-2.20000e+01	
1.31947   	2.35146e+00		         0.35167	-2.60000e+01	
1.32557   	2.03409e+00		         0.35333	-2.90000e+01	
1.33168   	1.66097e+00		         0.35500	-3.20000e+01	
1.33805   	1.14440e+00		         0.35667	-3.50000e+01	
1.34416   	4.33619e-01		         0.35833	-3.70000e+01	
1.35026   	-4.72319e-01		         0.36000	-4.00000e+01	
1.35637   	-1.43755e+00		         0.36167	-4.10000e+01	
1.36274   	-2.07547e+00		         0.36333	-4.30000e+01	
1.36885   	-2.37364e+00		         0.36500	-4.40000e+01	
1.37495   	-2.41559e+00		         0.36667	-4.50000e+01	
1.38106   	-2.22876e+00		         0.36833	-4.50000e+01	
1.38743   	-1.75186e+00		         0.37000	-4.50000e+01	
1.39354   	-1.42769e+00		         0.37167	-4.50000e+01	
1.39964   	-1.23060e+00		         0.37333	-4.40000e+01	
1.40575   	-7.82295e-01		         0.37500	-4.40000e+01	
1.41212   	-1.65296e-01		         0.37667	-4.30000e+01	
1.41823   	4.58349e-01		         0.37833	-4.20000e+01	
1.42433   	1.34579e+00		         0.38000	-4.00000e+01	
1.43044   	2.10650e+00		         0.38167	-3.90000e+01	
1.43682   	2.32413e+00		         0.38333	-3.80000e+01	
1.44292   	2.21593e+00		         0.38500	-3.70000e+01	
1.44903   	1.13460e+00		         0.38667	-3.60000e+01	
1.45513   	2.34979e-01		         0.38833	-3.60000e+01	
1.46151   	-9.35934e-01		         0.39000	-3.60000e+01	
1.46761   	-2.24268e+00		         0.39167	-3.60000e+01	
1.47371   	-3.51969e+00		         0.39333	-3.70000e+01	
1.47982   	-4.00186e+00		         0.39500	-3.80000e+01	
1.48619   	-5.06455e+00		         0.39667	-3.90000e+01	
1.49230   	-5.75706e+00		         0.39833	-4.10000e+01	
1.49840   	-6.09797e+00		         0.40000	-4.30000e+01	
1.50451   	-6.25759e+00		         0.40167	-4.50000e+01	
1.51088   	-6.35270e+00		         0.40333	-4.70000e+01	
1.51699   	-6.34567e+00		         0.40500	-4.90000e+01	
1.52309   	-6.20755e+00		         0.40667	-5.00000e+01	
1.52920   	-6.03056e+00		         0.40833	-5.10000e+01	
1.53558   	-5.77371e+00		         0.41000	-5.10000e+01	
1.54168   	-5.46946e+00		         0.41167	-5.00000e+01	
1.54778   	-5.09893e+00		         0.41333	-5.00000e+01	
1.55389   	-4.74382e+00		         0.41500	-4.80000e+01	
1.56026   	-4.28871e+00		         0.41667	-4.60000e+01	
1.56637   	-3.84809e+00		         0.41833	-4.40000e+01	
1.57247   	-3.34394e+00		         0.42000	-4.20000e+01	
1.57858   	-2.81383e+00		         0.42167	-4.00000e+01	
1.58496   	-2.35981e+00		         0.42333	-3.70000e+01	
1.59106   	-1.93389e+00		         0.42500	-3.50000e+01	
1.59717   	-1.51148e+00		         0.42667	-3.20000e+01	
1.60327   	-1.20682e+00		         0.42833	-3.00000e+01	
1.60964   	-9.76300e-01		         0.43000	-2.90000e+01	
1.61575   	-7.46059e-01		         0.43167	-2.70000e+01	
1.62186   	-5.88732e-01		         0.43333	-2.60000e+01	
1.62796   	-5.85479e-01		         0.43500	-2.50000e+01	
1.63433   	-5.80997e-01		         0.43667	-2.50000e+01	
1.64044   	-6.01055e-01		         0.43833	-2.50000e+01	
1.64655   	-6.69737e-01		         0.44000	-2.50000e+01	
1.65265   	-7.34585e-01		         0.44167	-2.50000e+01	
1.65913   	-6.90097e-01		         0.44333	-2.50000e+01	
1.66513   	-6.13617e-01		         0.44500	-2.60000e+01	
1.67124   	-5.32640e-01		         0.44667	-2.60000e+01	
1.67734   	-4.19954e-01		         0.44833	-2.60000e+01	
1.68372   	-2.57696e-01		         0.45000	-2.60000e+01	
1.68982   	-1.29580e-01		         0.45167	-2.60000e+01	
1.69592   	-2.12935e-02		         0.45333	-2.50000e+01	
1.70203   	7.27918e-02		         0.45500	-2.40000e+01	
1.70840   	1.37327e-01		         0.45667	-2.30000e+01	
1.71451   	1.54018e-01		         0.45833	-2.20000e+01	
1.72061   	1.68631e-01		         0.46000	-2.10000e+01	
1.72672   	1.73060e-01		         0.46167	-2.00000e+01	
1.73310   	1.62129e-01		         0.46333	-1.80000e+01	
1.73920   	1.60151e-01		         0.46500	-1.70000e+01	
1.74530   	1.82102e-01		         0.46667	-1.60000e+01	
1.75141   	2.27831e-01		         0.46833	-1.50000e+01	
1.75778   	3.35458e-01		         0.47000	-1.40000e+01	
1.76389   	5.16134e-01		         0.47167	-1.30000e+01	
1.76999   	6.73152e-01		         0.47333	-1.30000e+01	
1.77610   	6.88212e-01		         0.47500	-1.20000e+01	
1.78248   	1.68385e-01		         0.47667	-1.10000e+01	
1.78858   	-1.16579e+00		         0.47833	-1.10000e+01	
1.79468   	-2.93087e+00		         0.48000	-1.10000e+01	
1.80079   	-4.89481e+00		         0.48167	-1.00000e+01	
1.80716   	-7.11701e+00		         0.48333	-1.00000e+01	
1.81327   	-9.05548e+00		         0.48500	-1.00000e+01	
1.81937   	-1.02621e+01		         0.48667	-1.00000e+01	
1.82548   	-1.10195e+01		         0.48833	-1.10000e+01	
1.83186   	-1.13298e+01		         0.49000	-1.10000e+01	
1.83796   	-1.09628e+01		         0.49167	-1.20000e+01	
1.84406   	-1.00805e+01		         0.49333	-1.20000e+01	
1.85017   	-8.80394e+00		         0.49500	-1.30000e+01	
1.85654   	-7.31045e+00		         0.49667	-1.40000e+01	
1.86265   	-5.84375e+00		         0.49833	-1.50000e+01	
1.86876   	-4.46888e+00		         0.50000	-1.50000e+01	
1.87515   	-3.02461e+00		         0.50167	-1.60000e+01	
1.88124   	-1.72744e+00		         0.50333	-1.60000e+01	
1.88734   	-4.98187e-01		         0.50500	-1.70000e+01	
1.89344   	6.19716e-01		         0.50667	-1.60000e+01	
1.89955   	1.43493e+00		         0.50833	-1.60000e+01	
1.90593   	1.12253e+00		         0.51000	-1.50000e+01	
1.91203   	4.56619e-01		         0.51167	-1.40000e+01	
1.91814   	-1.97575e-02		         0.51333	-1.30000e+01	
1.92424   	-6.78518e-01		         0.51500	-1.10000e+01	
1.93062   	-1.33234e+00		         0.51667	-9.00000e+00	
1.93672   	-1.13247e+00		         0.51833	-8.00000e+00	
1.94282   	-3.34483e-01		         0.52000	-6.00000e+00	
1.94893   	4.75808e-01		         0.52167	-4.00000e+00	
1.95530   	1.65592e+00		         0.52333	-3.00000e+00	
1.96141   	3.14192e+00		         0.52500	-1.00000e+00	
1.96752   	4.54043e+00		         0.52667	0.00000e+00	
1.97362   	5.42120e+00		         0.52833	2.00000e+00	
1.98000   	5.88277e+00		         0.53000	3.00000e+00	
1.98610   	6.04597e+00		         0.53167	4.00000e+00	
1.99220   	6.05252e+00		         0.53333	4.00000e+00	
1.99831   	5.99286e+00		         0.53500	4.00000e+00	
2.00469   	5.97302e+00		         0.53667	4.00000e+00	
2.01079   	5.90204e+00		         0.53833	4.00000e+00	
2.01690   	5.82106e+00		         0.54000	4.00000e+00	
2.02300   	5.71149e+00		         0.54167	3.00000e+00	
2.02938   	5.62227e+00		         0.54333	2.00000e+00	
2.03548   	5.51720e+00		         0.54500	2.00000e+00	
2.04158   	5.43664e+00		         0.54667	1.00000e+00	
2.04769   	5.38589e+00		         0.54833	1.00000e+00	
2.05407   	5.31004e+00		         0.55000	0.00000e+00	
2.06017   	5.26430e+00		         0.55167	0.00000e+00	
2.06628   	5.25734e+00		         0.55333	0.00000e+00	
2.07238   	5.27777e+00		         0.55500	0.00000e+00	
2.07876   	5.30285e+00		         0.55667	0.00000e+00	
2.08486   	5.29165e+00		         0.55833	1.00000e+00	
2.09096   	5.27691e+00		         0.56000	1.00000e+00	
2.09707   	5.21586e+00		         0.56167	2.00000e+00	
2.10344   	5.12576e+00		         0.56333	2.00000e+00	
2.10955   	5.00032e+00		         0.56500	2.00000e+00	
2.11566   	4.93541e+00		         0.56667	1.00000e+00	
2.12176   	4.87188e+00		         0.56833	1.00000e+00	
2.12814   	4.80991e+00		         0.57000	1.00000e+00	
2.13424   	4.70869e+00		         0.57167	0.00000e+00	
2.14034   	4.65665e+00		         0.57333	0.00000e+00	
2.14644   	4.53758e+00		         0.57500	-1.00000e+00	
2.15283   	4.46128e+00		         0.57667	-1.00000e+00	
2.15893   	4.38764e+00		         0.57833	-1.00000e+00	
2.16504   	4.27682e+00		         0.58000	-2.00000e+00	
2.17114   	4.16601e+00		         0.58167	-1.00000e+00	
2.17752   	4.06865e+00		         0.58333	-1.00000e+00	
2.18362   	3.87480e+00		         0.58500	-1.00000e+00	
2.18972   	3.69527e+00		         0.58667	0.00000e+00	
2.19583   	3.53048e+00		         0.58833	0.00000e+00	
2.20221   	3.37915e+00		         0.59000	1.00000e+00	
2.20831   	3.20308e+00		         0.59167	1.00000e+00	
2.21442   	3.03476e+00		         0.59333	1.00000e+00	
2.22052   	2.86624e+00		         0.59500	1.00000e+00	
2.22690   	2.72279e+00		         0.59667	0.00000e+00	
2.23300   	2.48533e+00		         0.59833	0.00000e+00	
2.23911   	2.21814e+00		         0.60000	-1.00000e+00	
2.24521   	1.90878e+00		         0.60167	-1.00000e+00	
2.25159   	1.49236e+00		         0.60333	-2.00000e+00	
2.25769   	9.29878e-01		         0.60500	-3.00000e+00	
2.26380   	1.40663e-01		         0.60667	-4.00000e+00	
2.26990   	-7.86209e-01		         0.60833	-5.00000e+00	
2.27628   	-1.64711e+00		         0.61000	-6.00000e+00	
2.28238   	-2.14260e+00		         0.61167	-6.00000e+00	
2.28849   	-2.39014e+00		         0.61333	-7.00000e+00	
2.29459   	-2.21110e+00		         0.61500	-7.00000e+00	
2.30097   	-1.86716e+00		         0.61667	-7.00000e+00	
2.30725   	-1.46325e+00		         0.61833	-7.00000e+00	
2.31318   	-1.24908e+00		         0.62000	-7.00000e+00	
2.31928   	-9.07386e-01		         0.62167	-7.00000e+00	
2.32566   	-4.58784e-01		         0.62333	-6.00000e+00	
2.33176   	2.53422e-01		         0.62500	-6.00000e+00	
2.33787   	8.39989e-01		         0.62667	-5.00000e+00	
2.34397   	1.48166e+00		         0.62833	-5.00000e+00	
2.35035   	2.13649e+00		         0.63000	-4.00000e+00	
2.35645   	2.11380e+00		         0.63167	-4.00000e+00	
2.36256   	1.61007e+00		         0.63333	-3.00000e+00	
2.36866   	6.13033e-01		         0.63500	-3.00000e+00	
2.37504   	-2.62703e-01		         0.63667	-2.00000e+00	
2.38114   	-1.69201e+00		         0.63833	-2.00000e+00	
2.38725   	-2.92959e+00		         0.64000	-2.00000e+00	
2.39335   	-4.08672e+00		         0.64167	-1.00000e+00	
2.39973   	-4.59311e+00		         0.64333	-1.00000e+00	
2.40583   	-5.42863e+00		         0.64500	-1.00000e+00	
2.41194   	-5.85901e+00		         0.64667	0.00000e+00	
2.41804   	-6.05339e+00		         0.64833	0.00000e+00	
2.42442   	-6.07127e+00		         0.65000	-1.00000e+00	
2.43052   	-6.15888e+00		         0.65167	-1.00000e+00	
2.43663   	-6.09609e+00		         0.65333	-1.00000e+00	
2.44273   	-6.05561e+00		         0.65500	-2.00000e+00	
2.44911   	-5.95843e+00		         0.65667	-2.00000e+00	
2.45521   	-5.74458e+00		         0.65833	-3.00000e+00	
2.46132   	-5.44316e+00		         0.66000	-3.00000e+00	
2.46742   	-5.09769e+00		         0.66167	-4.00000e+00	
2.47380   	-4.68809e+00		         0.66333	-4.00000e+00	
2.47990   	-4.19148e+00		         0.66500	-4.00000e+00	
2.48601   	-3.66225e+00		         0.66667	-4.00000e+00	
2.49211   	-3.12410e+00		         0.66833	-4.00000e+00	
2.49849   	-2.62044e+00		         0.67000	-3.00000e+00	
2.50459   	-2.13826e+00		         0.67167	-3.00000e+00	
2.51070   	-1.72650e+00		         0.67333	-2.00000e+00	
2.51680   	-1.45076e+00		         0.67500	-2.00000e+00	
2.52318   	-1.23255e+00		         0.67667	-2.00000e+00	
2.52929   	-1.00258e+00		         0.67833	-3.00000e+00	
2.53539   	-7.55728e-01		         0.68000	-3.00000e+00	
2.54149   	-6.50205e-01		         0.68167	-4.00000e+00	
2.54787   	-5.86964e-01		         0.68333	-5.00000e+00	
2.55397   	-5.70774e-01		         0.68500	-6.00000e+00	
2.56008   	-6.05607e-01		         0.68667	-7.00000e+00	
2.56618   	-7.60423e-01		         0.68833	-8.00000e+00	
2.57256   	-8.30706e-01		         0.69000	-1.00000e+01	
2.57866   	-9.06924e-01		         0.69167	-1.10000e+01	
2.58477   	-9.34301e-01		         0.69333	-1.10000e+01	
2.59087   	-9.37014e-01		         0.69500	-1.20000e+01	
2.59725   	-8.58418e-01		         0.69667	-1.20000e+01	
2.60335   	-7.25828e-01		         0.69833	-1.20000e+01	
2.60946   	-5.00164e-01		         0.70000	-1.20000e+01	
2.61556   	-3.06634e-01		         0.70167	-1.20000e+01	
2.62214   	-1.42680e-01		         0.70333	-1.10000e+01	
2.62805   	-1.12842e-02		         0.70500	-1.00000e+01	
2.63415   	5.52110e-02		         0.70667	-9.00000e+00	
2.64025   	7.58001e-02		         0.70833	-9.00000e+00	
2.64663   	8.22308e-02		         0.71000	-7.00000e+00	
2.65273   	6.70781e-02		         0.71167	-6.00000e+00	
2.65884   	7.70458e-02		         0.71333	-5.00000e+00	
2.66495   	1.15214e-01		         0.71500	-4.00000e+00	
2.67132   	2.34298e-01		         0.71667	-2.00000e+00	
2.67743   	4.75056e-01		         0.71833	-1.00000e+00	
2.68353   	7.65651e-01		         0.72000	0.00000e+00	
2.68963   	8.58614e-01		         0.72167	1.00000e+00	
2.69601   	7.53909e-01		         0.72333	2.00000e+00	
2.70211   	4.96934e-03		         0.72500	3.00000e+00	
2.70822   	-1.50615e+00		         0.72667	3.00000e+00	
2.71432   	-3.43758e+00		         0.72833	4.00000e+00	
2.72070   	-5.52322e+00		         0.73000	4.00000e+00	
2.72680   	-7.79575e+00		         0.73167	3.00000e+00	
2.73291   	-9.59542e+00		         0.73333	3.00000e+00	
2.73901   	-1.06996e+01		         0.73500	2.00000e+00	
2.74539   	-1.12441e+01		         0.73667	1.00000e+00	
2.75150   	-1.12578e+01		         0.73833	0.00000e+00	
2.75760   	-1.06470e+01		         0.74000	0.00000e+00	
2.76370   	-9.58482e+00		         0.74167	-2.00000e+00	
2.77008   	-8.26046e+00		         0.74333	-3.00000e+00	
2.77619   	-6.78295e+00		         0.74500	-4.00000e+00	
2.78229   	-5.31200e+00		         0.74667	-5.00000e+00	
2.78839   	-3.83495e+00		         0.74833	-5.00000e+00	
2.79477   	-2.44701e+00		         0.75000	-6.00000e+00	
2.80087   	-1.13755e+00		         0.75167	-6.00000e+00	
2.80698   	8.08633e-02		         0.75333	-6.00000e+00	
2.81309   	1.12477e+00		         0.75500	-6.00000e+00	
2.81946   	1.69094e+00		         0.75667	-6.00000e+00	
2.82556   	2.18981e+00		         0.75833	-6.00000e+00	
		
