Velocity (TVI), in cm/s

Time (s) :	Trace 1 : 		Ecg : 		
0.01138   	1.67546e+00		         0.00000	2.88000e+02	
0.01751   	1.64480e+00		         0.00167	3.29000e+02	
0.02365   	1.10244e+00		         0.00333	3.67000e+02	
0.03006   	3.00642e-01		         0.00500	3.99000e+02	
0.03620   	-1.70625e-01		         0.00667	4.25000e+02	
0.04233   	-1.91186e-01		         0.00833	4.42000e+02	
0.04847   	-2.46474e-01		         0.01000	4.49000e+02	
0.05488   	-7.89260e-01		         0.01167	4.46000e+02	
0.06102   	-1.08161e+00		         0.01333	4.32000e+02	
0.06716   	-7.11616e-01		         0.01500	4.08000e+02	
0.07330   	2.50468e-01		         0.01667	3.73000e+02	
0.07970   	1.39656e+00		         0.01833	3.31000e+02	
0.08584   	2.37663e+00		         0.02000	2.82000e+02	
0.09198   	3.11446e+00		         0.02167	2.29000e+02	
0.09811   	3.60691e+00		         0.02333	1.75000e+02	
0.10453   	3.85635e+00		         0.02500	1.21000e+02	
0.11066   	4.01596e+00		         0.02667	6.80000e+01	
0.11680   	4.22702e+00		         0.02833	1.90000e+01	
0.12294   	4.28350e+00		         0.03000	-2.70000e+01	
0.12935   	4.38347e+00		         0.03167	-6.70000e+01	
0.13548   	4.44979e+00		         0.03333	-1.02000e+02	
0.14162   	4.58534e+00		         0.03500	-1.30000e+02	
0.14776   	4.65059e+00		         0.03667	-1.53000e+02	
0.15417   	4.62058e+00		         0.03833	-1.69000e+02	
0.16031   	4.59108e+00		         0.04000	-1.79000e+02	
0.16644   	4.59887e+00		         0.04167	-1.85000e+02	
0.17258   	4.57278e+00		         0.04333	-1.86000e+02	
0.17899   	4.64157e+00		         0.04500	-1.83000e+02	
0.18513   	4.61002e+00		         0.04667	-1.77000e+02	
0.19126   	4.59726e+00		         0.04833	-1.69000e+02	
0.19740   	4.50760e+00		         0.05000	-1.59000e+02	
0.20381   	4.55605e+00		         0.05167	-1.48000e+02	
0.20995   	4.60947e+00		         0.05333	-1.37000e+02	
0.21609   	4.60684e+00		         0.05500	-1.25000e+02	
0.22223   	4.37692e+00		         0.05667	-1.14000e+02	
0.22863   	4.23578e+00		         0.05833	-1.04000e+02	
0.23477   	4.14629e+00		         0.06000	-9.40000e+01	
0.24091   	4.13285e+00		         0.06167	-8.50000e+01	
0.24714   	4.10116e+00		         0.06333	-7.70000e+01	
0.25346   	4.02849e+00		         0.06500	-7.00000e+01	
0.25959   	3.98537e+00		         0.06667	-6.40000e+01	
0.26573   	3.82523e+00		         0.06833	-5.90000e+01	
0.27187   	3.69974e+00		         0.07000	-5.40000e+01	
0.27828   	3.55346e+00		         0.07167	-5.00000e+01	
0.28442   	3.35411e+00		         0.07333	-4.70000e+01	
0.29055   	3.12068e+00		         0.07500	-4.40000e+01	
0.29702   	3.00233e+00		         0.07667	-4.20000e+01	
0.30310   	2.93574e+00		         0.07833	-4.00000e+01	
0.30924   	2.85501e+00		         0.08000	-3.80000e+01	
0.31537   	2.66019e+00		         0.08167	-3.70000e+01	
0.32152   	2.50234e+00		         0.08333	-3.60000e+01	
0.32792   	2.34493e+00		         0.08500	-3.50000e+01	
0.33406   	2.26439e+00		         0.08667	-3.40000e+01	
0.34020   	2.12351e+00		         0.08833	-3.40000e+01	
0.34633   	1.94983e+00		         0.09000	-3.30000e+01	
0.35274   	1.64858e+00		         0.09167	-3.20000e+01	
0.35888   	1.27444e+00		         0.09333	-3.20000e+01	
0.36502   	8.41037e-01		         0.09500	-3.10000e+01	
0.37116   	2.65031e-01		         0.09667	-3.00000e+01	
0.37756   	-4.33643e-01		         0.09833	-2.90000e+01	
0.38370   	-9.43535e-01		         0.10000	-2.90000e+01	
0.38984   	-6.43790e-01		         0.10167	-2.80000e+01	
0.39598   	-1.82111e-01		         0.10333	-2.70000e+01	
0.40239   	-1.18421e-03		         0.10500	-2.60000e+01	
0.40852   	-3.48967e-01		         0.10667	-2.60000e+01	
0.41466   	-8.37842e-01		         0.10833	-2.50000e+01	
0.42080   	-1.04612e+00		         0.11000	-2.40000e+01	
0.42721   	-1.14236e+00		         0.11167	-2.30000e+01	
0.43335   	-8.43823e-01		         0.11333	-2.20000e+01	
0.43949   	-5.27226e-01		         0.11500	-2.00000e+01	
0.44562   	-4.00590e-01		         0.11667	-1.90000e+01	
0.45203   	-4.36337e-01		         0.11833	-1.70000e+01	
0.45817   	-6.46383e-01		         0.12000	-1.50000e+01	
0.46431   	-6.32857e-01		         0.12167	-1.30000e+01	
0.47045   	-4.72213e-01		         0.12333	-1.10000e+01	
0.47685   	-4.44333e-01		         0.12500	-9.00000e+00	
0.48299   	-1.94667e-01		         0.12667	-6.00000e+00	
0.48913   	-4.29917e-01		         0.12833	-4.00000e+00	
0.49527   	-6.99363e-01		         0.13000	-2.00000e+00	
0.50168   	-1.49959e+00		         0.13167	1.00000e+00	
0.50781   	-2.21195e+00		         0.13333	3.00000e+00	
0.51395   	-2.25354e+00		         0.13500	6.00000e+00	
0.52009   	-2.35585e+00		         0.13667	8.00000e+00	
0.52650   	-2.58049e+00		         0.13833	1.00000e+01	
0.53271   	-3.15002e+00		         0.14000	1.30000e+01	
0.53877   	-3.56528e+00		         0.14167	1.50000e+01	
0.54491   	-3.64278e+00		         0.14333	1.70000e+01	
0.55132   	-3.78782e+00		         0.14500	1.90000e+01	
0.55746   	-3.80247e+00		         0.14667	2.10000e+01	
0.56359   	-3.65638e+00		         0.14833	2.20000e+01	
0.56973   	-3.33304e+00		         0.15000	2.40000e+01	
0.57614   	-2.99361e+00		         0.15167	2.50000e+01	
0.58228   	-2.83101e+00		         0.15333	2.60000e+01	
0.58842   	-2.72802e+00		         0.15500	2.80000e+01	
0.59455   	-2.56638e+00		         0.15667	2.90000e+01	
0.60096   	-2.30244e+00		         0.15833	3.10000e+01	
0.60710   	-2.10938e+00		         0.16000	3.20000e+01	
0.61324   	-2.12235e+00		         0.16167	3.40000e+01	
0.61938   	-1.99415e+00		         0.16333	3.60000e+01	
0.62579   	-1.87819e+00		         0.16500	3.90000e+01	
0.63192   	-1.68866e+00		         0.16667	4.10000e+01	
0.63806   	-1.73376e+00		         0.16833	4.40000e+01	
0.64420   	-1.57649e+00		         0.17000	4.70000e+01	
0.65061   	-1.50454e+00		         0.17167	5.00000e+01	
0.65675   	-1.31706e+00		         0.17333	5.30000e+01	
0.66288   	-1.25299e+00		         0.17500	5.60000e+01	
0.66902   	-1.15865e+00		         0.17667	5.80000e+01	
0.67543   	-1.01431e+00		         0.17833	6.10000e+01	
0.68156   	-9.40988e-01		         0.18000	6.30000e+01	
0.68770   	-8.59874e-01		         0.18167	6.50000e+01	
0.69384   	-8.10233e-01		         0.18333	6.70000e+01	
0.70025   	-6.89203e-01		         0.18500	6.80000e+01	
0.70639   	-4.79461e-01		         0.18667	7.00000e+01	
0.71253   	-3.32768e-01		         0.18833	7.10000e+01	
0.71867   	-2.64124e-01		         0.19000	7.30000e+01	
0.72507   	-2.52518e-01		         0.19167	7.40000e+01	
0.73121   	-2.46994e-01		         0.19333	7.60000e+01	
0.73735   	-2.40333e-01		         0.19500	7.90000e+01	
0.74348   	-2.38682e-01		         0.19667	8.10000e+01	
0.74990   	-2.32178e-01		         0.19833	8.40000e+01	
0.75603   	-1.93945e-01		         0.20000	8.70000e+01	
0.76217   	-1.67376e-01		         0.20167	9.10000e+01	
0.76831   	-1.11129e-01		         0.20333	9.40000e+01	
0.77472   	-5.12729e-02		         0.20500	9.80000e+01	
0.78085   	1.45995e-01		         0.20667	1.02000e+02	
0.78699   	3.81197e-01		         0.20833	1.06000e+02	
0.79313   	5.24762e-01		         0.21000	1.10000e+02	
0.79954   	4.95096e-01		         0.21167	1.14000e+02	
0.80568   	3.41943e-01		         0.21333	1.18000e+02	
0.81181   	2.22215e-01		         0.21500	1.22000e+02	
0.81795   	8.60924e-02		         0.21667	1.25000e+02	
0.82436   	7.03199e-03		         0.21833	1.28000e+02	
0.83050   	-2.88383e-02		         0.22000	1.31000e+02	
0.83664   	5.28881e-03		         0.22167	1.34000e+02	
0.84277   	-1.31351e-02		         0.22333	1.36000e+02	
0.84919   	-9.24010e-02		         0.22500	1.39000e+02	
0.85532   	-2.34050e-01		         0.22667	1.41000e+02	
0.86146   	-4.01898e-01		         0.22833	1.43000e+02	
0.86760   	-6.97250e-01		         0.23000	1.45000e+02	
0.87401   	-1.10134e+00		         0.23167	1.46000e+02	
0.88014   	-1.57029e+00		         0.23333	1.48000e+02	
0.88628   	-2.13610e+00		         0.23500	1.49000e+02	
0.89242   	-3.34905e+00		         0.23667	1.50000e+02	
0.89883   	-4.68988e+00		         0.23833	1.51000e+02	
0.90497   	-6.16907e+00		         0.24000	1.51000e+02	
0.91129   	-6.98709e+00		         0.24167	1.51000e+02	
0.91724   	-7.71706e+00		         0.24333	1.50000e+02	
0.92365   	-8.05594e+00		         0.24500	1.50000e+02	
0.92978   	-7.90677e+00		         0.24667	1.48000e+02	
0.93592   	-7.36413e+00		         0.24833	1.46000e+02	
0.94206   	-6.45025e+00		         0.25000	1.44000e+02	
0.94847   	-5.43731e+00		         0.25167	1.41000e+02	
0.95461   	-4.47755e+00		         0.25333	1.38000e+02	
0.96110   	-3.60067e+00		         0.25500	1.34000e+02	
0.96688   	-2.79987e+00		         0.25667	1.30000e+02	
0.97329   	-2.03494e+00		         0.25833	1.26000e+02	
0.97943   	-1.40481e+00		         0.26000	1.22000e+02	
0.98557   	-1.00687e+00		         0.26167	1.18000e+02	
0.99170   	-6.67447e-01		         0.26333	1.14000e+02	
0.99812   	-3.49582e-01		         0.26500	1.09000e+02	
1.00425   	-2.15748e-02		         0.26667	1.04000e+02	
1.01039   	4.96188e-01		         0.26833	9.90000e+01	
1.01653   	9.47856e-01		         0.27000	9.30000e+01	
1.02294   	1.42518e+00		         0.27167	8.70000e+01	
1.02907   	1.68663e+00		         0.27333	8.10000e+01	
1.03521   	2.01510e+00		         0.27500	7.40000e+01	
1.04135   	1.81108e+00		         0.27667	6.70000e+01	
1.04776   	1.82854e+00		         0.27833	5.90000e+01	
1.05390   	1.46613e+00		         0.28000	5.20000e+01	
1.06003   	1.45710e+00		         0.28167	4.40000e+01	
1.06617   	9.18686e-01		         0.28333	3.60000e+01	
1.07258   	6.06767e-01		         0.28500	2.90000e+01	
1.07872   	8.95084e-02		         0.28667	2.10000e+01	
1.08486   	7.88101e-02		         0.28833	1.40000e+01	
1.09099   	2.45899e-01		         0.29000	6.00000e+00	
1.09741   	1.07638e+00		         0.29167	0.00000e+00	
1.10354   	2.03573e+00		         0.29333	-7.00000e+00	
1.10968   	2.98134e+00		         0.29500	-1.30000e+01	
1.11582   	3.60193e+00		         0.29667	-1.90000e+01	
1.12222   	4.02293e+00		         0.29833	-2.50000e+01	
1.12836   	4.32603e+00		         0.30000	-3.00000e+01	
1.13450   	4.50224e+00		         0.30167	-3.60000e+01	
1.14064   	4.59313e+00		         0.30333	-4.10000e+01	
1.14705   	4.77753e+00		         0.30500	-4.60000e+01	
1.15318   	4.87215e+00		         0.30667	-5.10000e+01	
1.15932   	4.89679e+00		         0.30833	-5.60000e+01	
1.16546   	4.88668e+00		         0.31000	-6.10000e+01	
1.17187   	5.02551e+00		         0.31167	-6.60000e+01	
1.17800   	5.11080e+00		         0.31333	-7.10000e+01	
1.18414   	5.07462e+00		         0.31500	-7.50000e+01	
1.19029   	4.97405e+00		         0.31667	-8.00000e+01	
1.19669   	4.85999e+00		         0.31833	-8.40000e+01	
1.20283   	4.85607e+00		         0.32000	-8.80000e+01	
1.20896   	4.81724e+00		         0.32167	-9.10000e+01	
1.21510   	4.80563e+00		         0.32333	-9.40000e+01	
1.22151   	4.79009e+00		         0.32500	-9.70000e+01	
1.22765   	4.75711e+00		         0.32667	-9.80000e+01	
1.23379   	4.64823e+00		         0.32833	-1.00000e+02	
1.23993   	4.48993e+00		         0.33000	-1.00000e+02	
1.24633   	4.41575e+00		         0.33167	-1.00000e+02	
1.25247   	4.47416e+00		         0.33333	-1.00000e+02	
1.25861   	4.42966e+00		         0.33500	-9.90000e+01	
1.26475   	4.24848e+00		         0.33667	-9.80000e+01	
1.27116   	3.99568e+00		         0.33833	-9.60000e+01	
1.27729   	3.80621e+00		         0.34000	-9.50000e+01	
1.28343   	3.72253e+00		         0.34167	-9.40000e+01	
1.28957   	3.57732e+00		         0.34333	-9.30000e+01	
1.29598   	3.43996e+00		         0.34500	-9.20000e+01	
1.30211   	3.28187e+00		         0.34667	-9.10000e+01	
1.30825   	3.23844e+00		         0.34833	-9.00000e+01	
1.31439   	3.15753e+00		         0.35000	-9.00000e+01	
1.32080   	3.06161e+00		         0.35167	-8.90000e+01	
1.32694   	2.95234e+00		         0.35333	-8.80000e+01	
1.33307   	2.81364e+00		         0.35500	-8.70000e+01	
1.33921   	2.61251e+00		         0.35667	-8.60000e+01	
1.34562   	2.36922e+00		         0.35833	-8.50000e+01	
1.35176   	2.11580e+00		         0.36000	-8.40000e+01	
1.35790   	1.90078e+00		         0.36167	-8.30000e+01	
1.36404   	1.69269e+00		         0.36333	-8.20000e+01	
1.37044   	1.50079e+00		         0.36500	-8.10000e+01	
1.37658   	1.20266e+00		         0.36667	-8.00000e+01	
1.38272   	7.42932e-01		         0.36833	-7.90000e+01	
1.38886   	2.22552e-01		         0.37000	-7.90000e+01	
1.39527   	-4.01093e-01		         0.37167	-7.80000e+01	
1.40140   	-1.01365e+00		         0.37333	-7.80000e+01	
1.40754   	-1.49078e+00		         0.37500	-7.80000e+01	
1.41368   	-1.37468e+00		         0.37667	-7.70000e+01	
1.42009   	-1.01550e+00		         0.37833	-7.70000e+01	
1.42622   	-8.39525e-01		         0.38000	-7.60000e+01	
1.43236   	-9.47407e-01		         0.38167	-7.60000e+01	
1.43850   	-1.13675e+00		         0.38333	-7.40000e+01	
1.44491   	-1.01877e+00		         0.38500	-7.30000e+01	
1.45105   	-9.43273e-01		         0.38667	-7.10000e+01	
1.45718   	-7.76404e-01		         0.38833	-7.00000e+01	
1.46332   	-4.64835e-01		         0.39000	-6.70000e+01	
1.46973   	-1.19338e-01		         0.39167	-6.50000e+01	
1.47588   	3.23062e-01		         0.39333	-6.30000e+01	
1.48201   	5.94102e-01		         0.39500	-6.10000e+01	
1.48814   	9.59232e-01		         0.39667	-5.80000e+01	
1.49455   	1.51670e+00		         0.39833	-5.60000e+01	
1.50069   	1.97054e+00		         0.40000	-5.30000e+01	
1.50683   	1.19845e+00		         0.40167	-5.10000e+01	
1.51297   	2.80358e-01		         0.40333	-4.90000e+01	
1.51938   	-1.00675e+00		         0.40500	-4.70000e+01	
1.52567   	-1.58864e+00		         0.40667	-4.50000e+01	
1.53165   	-2.03890e+00		         0.40833	-4.30000e+01	
1.53779   	-1.96051e+00		         0.41000	-4.10000e+01	
1.54420   	-1.97885e+00		         0.41167	-4.00000e+01	
1.55033   	-2.46015e+00		         0.41333	-3.80000e+01	
1.55647   	-3.07178e+00		         0.41500	-3.60000e+01	
1.56261   	-3.34090e+00		         0.41667	-3.50000e+01	
1.56902   	-3.44273e+00		         0.41833	-3.30000e+01	
1.57543   	-3.51953e+00		         0.42000	-3.10000e+01	
1.58130   	-3.48053e+00		         0.42167	-2.80000e+01	
1.58743   	-3.43492e+00		         0.42333	-2.60000e+01	
1.59384   	-3.36056e+00		         0.42500	-2.30000e+01	
1.59998   	-3.13890e+00		         0.42667	-2.00000e+01	
1.60612   	-2.94114e+00		         0.42833	-1.70000e+01	
1.61225   	-2.80276e+00		         0.43000	-1.40000e+01	
1.61866   	-2.72717e+00		         0.43167	-1.10000e+01	
1.62517   	-2.65782e+00		         0.43333	-8.00000e+00	
1.63094   	-2.52982e+00		         0.43500	-6.00000e+00	
1.63708   	-2.41913e+00		         0.43667	-3.00000e+00	
1.64348   	-2.24850e+00		         0.43833	0.00000e+00	
1.64962   	-2.09119e+00		         0.44000	3.00000e+00	
1.65576   	-1.90520e+00		         0.44167	5.00000e+00	
1.66190   	-1.79704e+00		         0.44333	7.00000e+00	
1.66831   	-1.68450e+00		         0.44500	9.00000e+00	
1.67444   	-1.53833e+00		         0.44667	1.00000e+01	
1.68058   	-1.40725e+00		         0.44833	1.10000e+01	
1.68672   	-1.33326e+00		         0.45000	1.20000e+01	
1.69313   	-1.38077e+00		         0.45167	1.30000e+01	
1.69927   	-1.41051e+00		         0.45333	1.30000e+01	
1.70540   	-1.36171e+00		         0.45500	1.40000e+01	
1.71154   	-1.34245e+00		         0.45667	1.30000e+01	
1.71795   	-1.18355e+00		         0.45833	1.30000e+01	
1.72409   	-1.10231e+00		         0.46000	1.30000e+01	
1.73024   	-8.80787e-01		         0.46167	1.20000e+01	
1.73636   	-7.77046e-01		         0.46333	1.20000e+01	
1.74277   	-6.74561e-01		         0.46500	1.10000e+01	
1.74891   	-6.48608e-01		         0.46667	1.00000e+01	
1.75505   	-6.05517e-01		         0.46833	1.00000e+01	
1.76118   	-5.28498e-01		         0.47000	1.00000e+01	
1.76760   	-4.21230e-01		         0.47167	1.00000e+01	
1.77373   	-3.65148e-01		         0.47333	1.00000e+01	
1.77987   	-3.39659e-01		         0.47500	1.00000e+01	
1.78601   	-2.95038e-01		         0.47667	1.00000e+01	
1.79242   	-2.71435e-01		         0.47833	1.10000e+01	
1.79856   	-2.80534e-01		         0.48000	1.10000e+01	
1.80469   	-3.12328e-01		         0.48167	1.20000e+01	
1.81083   	-2.99957e-01		         0.48333	1.30000e+01	
1.81724   	-2.61533e-01		         0.48500	1.40000e+01	
1.82337   	-2.32258e-01		         0.48667	1.50000e+01	
1.82951   	-2.10607e-01		         0.48833	1.60000e+01	
1.83565   	-1.98526e-01		         0.49000	1.70000e+01	
1.84206   	-1.71557e-01		         0.49167	1.80000e+01	
1.84820   	-1.45771e-01		         0.49333	1.80000e+01	
1.85434   	-1.06631e-01		         0.49500	1.90000e+01	
1.86047   	-8.65928e-02		         0.49667	2.00000e+01	
1.86688   	-8.91245e-02		         0.49833	2.00000e+01	
1.87302   	-3.95633e-02		         0.50000	2.00000e+01	
1.87916   	1.62634e-02		         0.50167	2.00000e+01	
1.88530   	9.41503e-02		         0.50333	2.00000e+01	
1.89170   	8.17525e-02		         0.50500	2.00000e+01	
1.89784   	5.12373e-02		         0.50667	2.00000e+01	
1.90398   	3.12094e-02		         0.50833	1.90000e+01	
1.91012   	-2.90709e-02		         0.51000	1.80000e+01	
1.91652   	-1.79498e-01		         0.51167	1.70000e+01	
1.92266   	-3.83701e-01		         0.51333	1.60000e+01	
1.92880   	-6.81464e-01		         0.51500	1.40000e+01	
1.93494   	-8.31467e-01		         0.51667	1.30000e+01	
1.94135   	-1.49207e+00		         0.51833	1.20000e+01	
1.94749   	-1.90876e+00		         0.52000	1.00000e+01	
1.95362   	-3.21969e+00		         0.52167	9.00000e+00	
1.95976   	-4.27677e+00		         0.52333	8.00000e+00	
1.96617   	-5.89131e+00		         0.52500	7.00000e+00	
1.97231   	-6.86304e+00		         0.52667	6.00000e+00	
1.97844   	-7.59488e+00		         0.52833	5.00000e+00	
1.98458   	-8.00984e+00		         0.53000	4.00000e+00	
1.99099   	-8.00084e+00		         0.53167	3.00000e+00	
1.99713   	-7.72219e+00		         0.53333	2.00000e+00	
2.00327   	-6.99894e+00		         0.53500	0.00000e+00	
2.00940   	-6.12588e+00		         0.53667	-1.00000e+00	
2.01581   	-5.07642e+00		         0.53833	-3.00000e+00	
2.02195   	-4.13072e+00		         0.54000	-4.00000e+00	
2.02809   	-3.27352e+00		         0.54167	-6.00000e+00	
2.03423   	-2.50344e+00		         0.54333	-8.00000e+00	
2.04064   	-1.87382e+00		         0.54500	-1.00000e+01	
2.04678   	-1.34515e+00		         0.54667	-1.10000e+01	
2.05291   	-9.94889e-01		         0.54833	-1.30000e+01	
2.05905   	-5.92712e-01		         0.55000	-1.50000e+01	
2.06546   	-2.59974e-01		         0.55167	-1.60000e+01	
2.07159   	7.52481e-02		         0.55333	-1.70000e+01	
2.07773   	5.44794e-01		         0.55500	-1.80000e+01	
2.08387   	1.01309e+00		         0.55667	-1.90000e+01	
2.09028   	1.44377e+00		         0.55833	-2.00000e+01	
2.09642   	1.79325e+00		         0.56000	-2.00000e+01	
2.10256   	1.99154e+00		         0.56167	-2.10000e+01	
2.10869   	2.07102e+00		         0.56333	-2.20000e+01	
2.11510   	1.78740e+00		         0.56500	-2.30000e+01	
2.12124   	1.32040e+00		         0.56667	-2.30000e+01	
2.12738   	1.10484e+00		         0.56833	-2.50000e+01	
2.13352   	9.54176e-01		         0.57000	-2.60000e+01	
2.13992   	5.13390e-01		         0.57167	-2.70000e+01	
2.14606   	-7.28262e-02		         0.57333	-2.80000e+01	
2.15220   	-8.96219e-02		         0.57500	-2.90000e+01	
2.15834   	6.27252e-01		         0.57667	-3.00000e+01	
2.16475   	1.70452e+00		         0.57833	-3.10000e+01	
2.17088   	2.59524e+00		         0.58000	-3.10000e+01	
2.17702   	3.41896e+00		         0.58167	-3.10000e+01	
2.18316   	3.97339e+00		         0.58333	-3.10000e+01	
2.18959   	4.37241e+00		         0.58500	-3.10000e+01	
2.19571   	4.72500e+00		         0.58667	-3.10000e+01	
2.20184   	4.89051e+00		         0.58833	-3.00000e+01	
2.20798   	5.03227e+00		         0.59000	-2.90000e+01	
2.21439   	5.00305e+00		         0.59167	-2.90000e+01	
2.22053   	5.10116e+00		         0.59333	-2.80000e+01	
2.22667   	5.19169e+00		         0.59500	-2.70000e+01	
2.23280   	5.38466e+00		         0.59667	-2.60000e+01	
2.23931   	5.35346e+00		         0.59833	-2.50000e+01	
2.24535   	5.35098e+00		         0.60000	-2.40000e+01	
2.25149   	5.27701e+00		         0.60167	-2.40000e+01	
2.25762   	5.34332e+00		         0.60333	-2.30000e+01	
2.26404   	5.26577e+00		         0.60500	-2.30000e+01	
2.27017   	5.19053e+00		         0.60667	-2.30000e+01	
2.27631   	5.13392e+00		         0.60833	-2.40000e+01	
2.28245   	5.06957e+00		         0.61000	-2.40000e+01	
2.28915   	5.07635e+00		         0.61167	-2.50000e+01	
2.29499   	5.01867e+00		         0.61333	-2.60000e+01	
2.30113   	5.01471e+00		         0.61500	-2.70000e+01	
2.30727   	4.91921e+00		         0.61667	-2.80000e+01	
2.31368   	4.85499e+00		         0.61833	-2.90000e+01	
2.31981   	4.79654e+00		         0.62000	-3.00000e+01	
2.32596   	4.69015e+00		         0.62167	-3.00000e+01	
2.33209   	4.56471e+00		         0.62333	-3.00000e+01	
2.33850   	4.34454e+00		         0.62500	-3.00000e+01	
2.34464   	4.21949e+00		         0.62667	-3.00000e+01	
2.35077   	4.01123e+00		         0.62833	-3.00000e+01	
2.35691   	3.88485e+00		         0.63000	-2.90000e+01	
2.36332   	3.77378e+00		         0.63167	-2.80000e+01	
2.36946   	3.61288e+00		         0.63333	-2.70000e+01	
2.37560   	3.45158e+00		         0.63500	-2.60000e+01	
2.38173   	3.25776e+00		         0.63667	-2.50000e+01	
2.38814   	3.11306e+00		         0.63833	-2.40000e+01	
2.39428   	2.92730e+00		         0.64000	-2.40000e+01	
2.40042   	2.71756e+00		         0.64167	-2.30000e+01	
2.40655   	2.54976e+00		         0.64333	-2.30000e+01	
2.41297   	2.40276e+00		         0.64500	-2.40000e+01	
2.41910   	2.22265e+00		         0.64667	-2.40000e+01	
2.42524   	2.02429e+00		         0.64833	-2.50000e+01	
2.43138   	1.81065e+00		         0.65000	-2.60000e+01	
2.43779   	1.53229e+00		         0.65167	-2.70000e+01	
2.44393   	1.15894e+00		         0.65333	-2.90000e+01	
2.45006   	7.24428e-01		         0.65500	-3.00000e+01	
2.45620   	2.30562e-01		         0.65667	-3.10000e+01	
2.46261   	-3.58963e-01		         0.65833	-3.20000e+01	
2.46874   	-8.37955e-01		         0.66000	-3.30000e+01	
2.47488   	-1.10303e+00		         0.66167	-3.40000e+01	
2.48102   	-1.06198e+00		         0.66333	-3.50000e+01	
2.48743   	-9.86638e-01		         0.66500	-3.60000e+01	
2.49357   	-1.02099e+00		         0.66667	-3.60000e+01	
2.49971   	-1.15043e+00		         0.66833	-3.70000e+01	
2.50584   	-1.16668e+00		         0.67000	-3.70000e+01	
2.51225   	-1.15074e+00		         0.67167	-3.70000e+01	
2.51839   	-1.13969e+00		         0.67333	-3.70000e+01	
2.52453   	-1.24882e+00		         0.67500	-3.70000e+01	
2.53066   	-1.09819e+00		         0.67667	-3.70000e+01	
2.53707   	-7.12842e-01		         0.67833	-3.70000e+01	
2.54321   	-1.47135e-01		         0.68000	-3.70000e+01	
2.54935   	1.62036e-01		         0.68167	-3.70000e+01	
2.55549   	8.59367e-01		         0.68333	-3.70000e+01	
2.56190   	1.08519e+00		         0.68500	-3.70000e+01	
2.56803   	1.23257e+00		         0.68667	-3.60000e+01	
2.57417   	3.68778e-01		         0.68833	-3.60000e+01	
2.58031   	-4.21131e-01		         0.69000	-3.60000e+01	
2.58672   	-1.44391e+00		         0.69167	-3.60000e+01	
2.59286   	-2.07992e+00		         0.69333	-3.60000e+01	
2.59899   	-2.57555e+00		         0.69500	-3.50000e+01	
2.60513   	-3.09912e+00		         0.69667	-3.40000e+01	
2.61154   	-3.41641e+00		         0.69833	-3.40000e+01	
2.61768   	-3.71104e+00		         0.70000	-3.30000e+01	
2.62382   	-3.56426e+00		         0.70167	-3.20000e+01	
2.62995   	-3.73772e+00		         0.70333	-3.10000e+01	
2.63636   	-3.82386e+00		         0.70500	-3.00000e+01	
2.64250   	-3.86738e+00		         0.70667	-2.90000e+01	
2.64864   	-3.73817e+00		         0.70833	-2.90000e+01	
2.65477   	-3.66773e+00		         0.71000	-2.80000e+01	
2.66119   	-3.54553e+00		         0.71167	-2.70000e+01	
2.66732   	-3.46473e+00		         0.71333	-2.70000e+01	
2.67346   	-3.30694e+00		         0.71500	-2.60000e+01	
2.67960   	-3.20832e+00		         0.71667	-2.50000e+01	
2.68601   	-3.01244e+00		         0.71833	-2.40000e+01	
2.69215   	-2.86418e+00		         0.72000	-2.40000e+01	
2.69828   	-2.75448e+00		         0.72167	-2.30000e+01	
2.70442   	-2.69355e+00		         0.72333	-2.20000e+01	
2.71083   	-2.54995e+00		         0.72500	-2.10000e+01	
2.71697   	-2.39115e+00		         0.72667	-2.00000e+01	
2.72310   	-2.27830e+00		         0.72833	-1.90000e+01	
2.72924   	-2.15376e+00		         0.73000	-1.80000e+01	
2.73565   	-2.12062e+00		         0.73167	-1.70000e+01	
2.74179   	-1.91382e+00		         0.73333	-1.60000e+01	
2.74792   	-1.82990e+00		         0.73500	-1.50000e+01	
2.75417   	-1.50998e+00		         0.73667	-1.40000e+01	
2.76047   	-1.35381e+00		         0.73833	-1.30000e+01	
2.76661   	-1.12214e+00		         0.74000	-1.30000e+01	
2.77275   	-1.06287e+00		         0.74167	-1.20000e+01	
2.77889   	-9.21687e-01		         0.74333	-1.20000e+01	
2.78529   	-8.21444e-01		         0.74500	-1.20000e+01	
2.79143   	-7.13942e-01		         0.74667	-1.20000e+01	
2.79757   	-6.26961e-01		         0.74833	-1.20000e+01	
2.80391   	-4.97995e-01		         0.75000	-1.20000e+01	
2.81012   	-3.92422e-01		         0.75167	-1.20000e+01	
2.81626   	-2.91624e-01		         0.75333	-1.20000e+01	
2.82239   	-2.35998e-01		         0.75500	-1.20000e+01	
2.82853   	-1.76512e-01		         0.75667	-1.20000e+01	
2.83494   	-1.59586e-01		         0.75833	-1.20000e+01	
2.84107   	-1.66526e-01		         0.76000	-1.20000e+01	
2.84721   	-1.86227e-01		         0.76167	-1.20000e+01	
2.85374   	-1.82400e-01		         0.76333	-1.10000e+01	
2.85976   	-1.65901e-01		         0.76500	-1.10000e+01	
2.86590   	-1.47555e-01		         0.76667	-1.10000e+01	
2.87203   	-1.65049e-01		         0.76833	-1.00000e+01	
2.87817   	-1.94154e-01		         0.77000	-1.00000e+01	
2.88458   	-2.39096e-01		         0.77167	-1.00000e+01	
2.89072   	-2.72266e-01		         0.77333	-9.00000e+00	
2.89686   	-2.77086e-01		         0.77500	-9.00000e+00	
2.90299   	-2.46213e-01		         0.77667	-9.00000e+00	
2.90940   	-2.01564e-01		         0.77833	-9.00000e+00	
2.91554   	-1.96430e-01		         0.78000	-9.00000e+00	
2.92168   	-2.00729e-01		         0.78167	-8.00000e+00	
2.92782   	-2.05740e-01		         0.78333	-8.00000e+00	
2.93422   	-1.63106e-01		         0.78500	-7.00000e+00	
2.94036   	-1.53506e-01		         0.78667	-6.00000e+00	
2.94650   	-1.72174e-01		         0.78833	-5.00000e+00	
2.95264   	-2.20644e-01		         0.79000	-3.00000e+00	
2.95905   	-3.07695e-01		         0.79167	-1.00000e+00	
2.96519   	-4.32449e-01		         0.79333	0.00000e+00	
2.97132   	-6.61511e-01		         0.79500	2.00000e+00	
2.97746   	-9.63019e-01		         0.79667	5.00000e+00	
2.98387   	-1.42125e+00		         0.79833	7.00000e+00	
2.99001   	-2.18254e+00		         0.80000	1.00000e+01	
2.99614   	-3.24080e+00		         0.80167	1.20000e+01	
3.00228   	-4.46208e+00		         0.80333	1.40000e+01	
3.00870   	-5.66374e+00		         0.80500	1.60000e+01	
3.01483   	-6.74604e+00		         0.80667	1.80000e+01	
3.02096   	-7.58530e+00		         0.80833	2.00000e+01	
3.02711   	-8.10160e+00		         0.81000	2.10000e+01	
3.03351   	-8.18741e+00		         0.81167	2.20000e+01	
3.03965   	-7.98786e+00		         0.81333	2.30000e+01	
3.04579   	-7.41258e+00		         0.81500	2.40000e+01	
3.05193   	-6.48498e+00		         0.81667	2.40000e+01	
3.05834   	-5.46278e+00		         0.81833	2.50000e+01	
3.06447   	-4.33646e+00		         0.82000	2.50000e+01	
3.07061   	-3.55598e+00		         0.82167	2.50000e+01	
3.07675   	-2.77537e+00		         0.82333	2.60000e+01	
3.08316   	-2.06613e+00		         0.82500	2.70000e+01	
3.08929   	-1.38886e+00		         0.82667	2.80000e+01	
3.09543   	-8.93589e-01		         0.82833	2.90000e+01	
3.10157   	-6.23052e-01		         0.83000	3.10000e+01	
3.10798   	-2.98023e-01		         0.83167	3.20000e+01	
3.11412   	1.96862e-01		         0.83333	3.40000e+01	
3.12025   	6.90668e-01		         0.83500	3.60000e+01	
3.12639   	1.11778e+00		         0.83667	3.70000e+01	
3.13280   	1.54009e+00		         0.83833	3.90000e+01	
3.13894   	1.81621e+00		         0.84000	4.00000e+01	
3.14508   	2.02457e+00		         0.84167	4.10000e+01	
			         0.84333	4.10000e+01	
			         0.84500	4.20000e+01	
			         0.84667	4.10000e+01	
			         0.84833	4.10000e+01	
			         0.85000	4.00000e+01	
			         0.85167	3.80000e+01	
			         0.85333	3.70000e+01	
			         0.85500	3.50000e+01	
			         0.85667	3.30000e+01	
			         0.85833	3.10000e+01	
			         0.86000	2.90000e+01	
			         0.86167	2.60000e+01	
			         0.86333	2.40000e+01	
			         0.86500	2.10000e+01	
			         0.86667	1.80000e+01	
			         0.86833	1.50000e+01	
			         0.87000	1.20000e+01	
			         0.87167	9.00000e+00	
			         0.87333	5.00000e+00	
			         0.87500	1.00000e+00	
			         0.87667	-2.00000e+00	
			         0.87833	-6.00000e+00	
			         0.88000	-9.00000e+00	
			         0.88167	-1.20000e+01	
			         0.88333	-1.50000e+01	
			         0.88500	-1.80000e+01	
			         0.88667	-2.10000e+01	
			         0.88833	-2.30000e+01	
			         0.89000	-2.50000e+01	
			         0.89167	-2.60000e+01	
			         0.89333	-2.70000e+01	
			         0.89500	-2.80000e+01	
			         0.89667	-2.90000e+01	
			         0.89833	-3.00000e+01	
			         0.90000	-3.10000e+01	
			         0.90167	-3.10000e+01	
			         0.90333	-3.20000e+01	
			         0.90500	-3.30000e+01	
			         0.90667	-3.30000e+01	
			         0.90833	-3.30000e+01	
			         0.91000	-3.40000e+01	
			         0.91167	-3.40000e+01	
			         0.91333	-3.40000e+01	
			         0.91500	-3.30000e+01	
			         0.91667	-3.30000e+01	
			         0.91833	-3.20000e+01	
			         0.92000	-3.20000e+01	
			         0.92167	-3.10000e+01	
			         0.92333	-3.10000e+01	
			         0.92500	-3.00000e+01	
			         0.92667	-3.00000e+01	
			         0.92833	-3.00000e+01	
			         0.93000	-3.00000e+01	
			         0.93167	-3.00000e+01	
			         0.93333	-3.00000e+01	
			         0.93500	-3.00000e+01	
			         0.93667	-3.00000e+01	
			         0.93833	-3.10000e+01	
			         0.94000	-3.10000e+01	
			         0.94167	-3.20000e+01	
			         0.94333	-3.20000e+01	
			         0.94500	-3.20000e+01	
			         0.94667	-3.20000e+01	
			         0.94833	-3.20000e+01	
			         0.95000	-3.20000e+01	
			         0.95167	-3.10000e+01	
			         0.95333	-3.10000e+01	
			         0.95500	-3.00000e+01	
			         0.95667	-3.00000e+01	
			         0.95833	-2.90000e+01	
			         0.96000	-2.90000e+01	
			         0.96167	-2.80000e+01	
			         0.96333	-2.70000e+01	
			         0.96500	-2.60000e+01	
			         0.96667	-2.60000e+01	
			         0.96833	-2.50000e+01	
			         0.97000	-2.50000e+01	
			         0.97167	-2.50000e+01	
			         0.97333	-2.50000e+01	
			         0.97500	-2.50000e+01	
			         0.97667	-2.60000e+01	
			         0.97833	-2.70000e+01	
			         0.98000	-2.90000e+01	
			         0.98167	-3.00000e+01	
			         0.98333	-3.20000e+01	
			         0.98500	-3.40000e+01	
			         0.98667	-3.60000e+01	
			         0.98833	-3.70000e+01	
			         0.99000	-3.80000e+01	
			         0.99167	-3.80000e+01	
			         0.99333	-3.70000e+01	
			         0.99500	-3.50000e+01	
			         0.99667	-3.30000e+01	
			         0.99833	-2.90000e+01	
			         1.00000	-2.40000e+01	
			         1.00167	-1.80000e+01	
			         1.00333	-1.10000e+01	
			         1.00500	-3.00000e+00	
			         1.00667	7.00000e+00	
			         1.00833	1.90000e+01	
			         1.01000	3.40000e+01	
			         1.01167	5.30000e+01	
			         1.01333	7.60000e+01	
			         1.01500	1.03000e+02	
			         1.01667	1.34000e+02	
			         1.01833	1.68000e+02	
			         1.02000	2.05000e+02	
			         1.02167	2.44000e+02	
			         1.02333	2.82000e+02	
			         1.02500	3.18000e+02	
			         1.02667	3.51000e+02	
			         1.02833	3.78000e+02	
			         1.03000	3.99000e+02	
			         1.03167	4.11000e+02	
			         1.03333	4.15000e+02	
			         1.03500	4.08000e+02	
			         1.03667	3.91000e+02	
			         1.03833	3.65000e+02	
			         1.04000	3.31000e+02	
			         1.04167	2.90000e+02	
			         1.04333	2.44000e+02	
			         1.04500	1.95000e+02	
			         1.04667	1.45000e+02	
			         1.04833	9.60000e+01	
			         1.05000	4.90000e+01	
			         1.05167	5.00000e+00	
			         1.05333	-3.50000e+01	
			         1.05500	-7.00000e+01	
			         1.05667	-9.90000e+01	
			         1.05833	-1.23000e+02	
			         1.06000	-1.40000e+02	
			         1.06167	-1.52000e+02	
			         1.06333	-1.59000e+02	
			         1.06500	-1.61000e+02	
			         1.06667	-1.59000e+02	
			         1.06833	-1.54000e+02	
			         1.07000	-1.47000e+02	
			         1.07167	-1.38000e+02	
			         1.07333	-1.27000e+02	
			         1.07500	-1.16000e+02	
			         1.07667	-1.05000e+02	
			         1.07833	-9.50000e+01	
			         1.08000	-8.50000e+01	
			         1.08167	-7.60000e+01	
			         1.08333	-6.90000e+01	
			         1.08500	-6.20000e+01	
			         1.08667	-5.70000e+01	
			         1.08833	-5.20000e+01	
			         1.09000	-4.80000e+01	
			         1.09167	-4.60000e+01	
			         1.09333	-4.30000e+01	
			         1.09500	-4.20000e+01	
			         1.09667	-4.00000e+01	
			         1.09833	-3.90000e+01	
			         1.10000	-3.70000e+01	
			         1.10167	-3.60000e+01	
			         1.10333	-3.50000e+01	
			         1.10500	-3.30000e+01	
			         1.10667	-3.20000e+01	
			         1.10833	-3.10000e+01	
			         1.11000	-3.00000e+01	
			         1.11167	-2.80000e+01	
			         1.11333	-2.70000e+01	
			         1.11500	-2.60000e+01	
			         1.11667	-2.40000e+01	
			         1.11833	-2.30000e+01	
			         1.12000	-2.20000e+01	
			         1.12167	-2.10000e+01	
			         1.12333	-2.00000e+01	
			         1.12500	-1.80000e+01	
			         1.12667	-1.70000e+01	
			         1.12833	-1.60000e+01	
			         1.13000	-1.60000e+01	
			         1.13167	-1.50000e+01	
			         1.13333	-1.40000e+01	
			         1.13500	-1.40000e+01	
			         1.13667	-1.30000e+01	
			         1.13833	-1.30000e+01	
			         1.14000	-1.30000e+01	
			         1.14167	-1.20000e+01	
			         1.14333	-1.20000e+01	
			         1.14500	-1.20000e+01	
			         1.14667	-1.20000e+01	
			         1.14833	-1.10000e+01	
			         1.15000	-1.10000e+01	
			         1.15167	-1.10000e+01	
			         1.15333	-1.10000e+01	
			         1.15500	-1.10000e+01	
			         1.15667	-1.00000e+01	
			         1.15833	-1.00000e+01	
			         1.16000	-1.00000e+01	
			         1.16167	-9.00000e+00	
			         1.16333	-8.00000e+00	
			         1.16500	-7.00000e+00	
			         1.16667	-6.00000e+00	
			         1.16833	-4.00000e+00	
			         1.17000	-3.00000e+00	
			         1.17167	-1.00000e+00	
			         1.17333	1.00000e+00	
			         1.17500	4.00000e+00	
			         1.17667	6.00000e+00	
			         1.17833	8.00000e+00	
			         1.18000	1.00000e+01	
			         1.18167	1.30000e+01	
			         1.18333	1.50000e+01	
			         1.18500	1.70000e+01	
			         1.18667	2.00000e+01	
			         1.18833	2.20000e+01	
			         1.19000	2.40000e+01	
			         1.19167	2.60000e+01	
			         1.19333	2.80000e+01	
			         1.19500	3.00000e+01	
			         1.19667	3.30000e+01	
			         1.19833	3.50000e+01	
			         1.20000	3.70000e+01	
			         1.20167	3.90000e+01	
			         1.20333	4.20000e+01	
			         1.20500	4.40000e+01	
			         1.20667	4.60000e+01	
			         1.20833	4.90000e+01	
			         1.21000	5.10000e+01	
			         1.21167	5.30000e+01	
			         1.21333	5.60000e+01	
			         1.21500	5.80000e+01	
			         1.21667	6.10000e+01	
			         1.21833	6.40000e+01	
			         1.22000	6.60000e+01	
			         1.22167	6.90000e+01	
			         1.22333	7.20000e+01	
			         1.22500	7.60000e+01	
			         1.22667	7.90000e+01	
			         1.22833	8.20000e+01	
			         1.23000	8.60000e+01	
			         1.23167	8.90000e+01	
			         1.23333	9.30000e+01	
			         1.23500	9.70000e+01	
			         1.23667	1.00000e+02	
			         1.23833	1.04000e+02	
			         1.24000	1.08000e+02	
			         1.24167	1.11000e+02	
			         1.24333	1.15000e+02	
			         1.24500	1.18000e+02	
			         1.24667	1.21000e+02	
			         1.24833	1.24000e+02	
			         1.25000	1.26000e+02	
			         1.25167	1.28000e+02	
			         1.25333	1.30000e+02	
			         1.25500	1.31000e+02	
			         1.25667	1.32000e+02	
			         1.25833	1.32000e+02	
			         1.26000	1.32000e+02	
			         1.26167	1.31000e+02	
			         1.26333	1.30000e+02	
			         1.26500	1.28000e+02	
			         1.26667	1.26000e+02	
			         1.26833	1.24000e+02	
			         1.27000	1.21000e+02	
			         1.27167	1.18000e+02	
			         1.27333	1.15000e+02	
			         1.27500	1.12000e+02	
			         1.27667	1.08000e+02	
			         1.27833	1.05000e+02	
			         1.28000	1.02000e+02	
			         1.28167	9.80000e+01	
			         1.28333	9.40000e+01	
			         1.28500	9.10000e+01	
			         1.28667	8.70000e+01	
			         1.28833	8.30000e+01	
			         1.29000	7.90000e+01	
			         1.29167	7.40000e+01	
			         1.29333	6.90000e+01	
			         1.29500	6.40000e+01	
			         1.29667	5.90000e+01	
			         1.29833	5.30000e+01	
			         1.30000	4.70000e+01	
			         1.30167	4.00000e+01	
			         1.30333	3.40000e+01	
			         1.30500	2.70000e+01	
			         1.30667	2.00000e+01	
			         1.30833	1.30000e+01	
			         1.31000	5.00000e+00	
			         1.31167	-2.00000e+00	
			         1.31333	-9.00000e+00	
			         1.31500	-1.60000e+01	
			         1.31667	-2.20000e+01	
			         1.31833	-2.90000e+01	
			         1.32000	-3.50000e+01	
			         1.32167	-4.10000e+01	
			         1.32333	-4.60000e+01	
			         1.32500	-5.20000e+01	
			         1.32667	-5.60000e+01	
			         1.32833	-6.10000e+01	
			         1.33000	-6.60000e+01	
			         1.33167	-7.00000e+01	
			         1.33333	-7.40000e+01	
			         1.33500	-7.70000e+01	
			         1.33667	-8.10000e+01	
			         1.33833	-8.40000e+01	
			         1.34000	-8.70000e+01	
			         1.34167	-9.00000e+01	
			         1.34333	-9.30000e+01	
			         1.34500	-9.50000e+01	
			         1.34667	-9.80000e+01	
			         1.34833	-1.00000e+02	
			         1.35000	-1.01000e+02	
			         1.35167	-1.03000e+02	
			         1.35333	-1.04000e+02	
			         1.35500	-1.06000e+02	
			         1.35667	-1.07000e+02	
			         1.35833	-1.07000e+02	
			         1.36000	-1.08000e+02	
			         1.36167	-1.09000e+02	
			         1.36333	-1.09000e+02	
			         1.36500	-1.09000e+02	
			         1.36667	-1.09000e+02	
			         1.36833	-1.09000e+02	
			         1.37000	-1.09000e+02	
			         1.37167	-1.08000e+02	
			         1.37333	-1.08000e+02	
			         1.37500	-1.07000e+02	
			         1.37667	-1.06000e+02	
			         1.37833	-1.05000e+02	
			         1.38000	-1.03000e+02	
			         1.38167	-1.01000e+02	
			         1.38333	-9.90000e+01	
			         1.38500	-9.70000e+01	
			         1.38667	-9.40000e+01	
			         1.38833	-9.20000e+01	
			         1.39000	-8.90000e+01	
			         1.39167	-8.60000e+01	
			         1.39333	-8.30000e+01	
			         1.39500	-8.00000e+01	
			         1.39667	-7.80000e+01	
			         1.39833	-7.50000e+01	
			         1.40000	-7.30000e+01	
			         1.40167	-7.10000e+01	
			         1.40333	-7.00000e+01	
			         1.40500	-6.80000e+01	
			         1.40667	-6.70000e+01	
			         1.40833	-6.70000e+01	
			         1.41000	-6.60000e+01	
			         1.41167	-6.50000e+01	
			         1.41333	-6.50000e+01	
			         1.41500	-6.40000e+01	
			         1.41667	-6.30000e+01	
			         1.41833	-6.20000e+01	
			         1.42000	-6.10000e+01	
			         1.42167	-5.90000e+01	
			         1.42333	-5.70000e+01	
			         1.42500	-5.50000e+01	
			         1.42667	-5.30000e+01	
			         1.42833	-5.00000e+01	
			         1.43000	-4.80000e+01	
			         1.43167	-4.50000e+01	
			         1.43333	-4.20000e+01	
			         1.43500	-3.90000e+01	
			         1.43667	-3.70000e+01	
			         1.43833	-3.40000e+01	
			         1.44000	-3.20000e+01	
			         1.44167	-3.00000e+01	
			         1.44333	-2.90000e+01	
			         1.44500	-2.70000e+01	
			         1.44667	-2.60000e+01	
			         1.44833	-2.40000e+01	
			         1.45000	-2.30000e+01	
			         1.45167	-2.20000e+01	
			         1.45333	-2.10000e+01	
			         1.45500	-2.00000e+01	
			         1.45667	-1.90000e+01	
			         1.45833	-1.80000e+01	
			         1.46000	-1.70000e+01	
			         1.46167	-1.60000e+01	
			         1.46333	-1.60000e+01	
			         1.46500	-1.40000e+01	
			         1.46667	-1.30000e+01	
			         1.46833	-1.20000e+01	
			         1.47000	-1.10000e+01	
			         1.47167	-1.00000e+01	
			         1.47333	-9.00000e+00	
			         1.47500	-8.00000e+00	
			         1.47667	-7.00000e+00	
			         1.47833	-6.00000e+00	
			         1.48000	-6.00000e+00	
			         1.48167	-5.00000e+00	
			         1.48333	-4.00000e+00	
			         1.48500	-4.00000e+00	
			         1.48667	-4.00000e+00	
			         1.48833	-3.00000e+00	
			         1.49000	-3.00000e+00	
			         1.49167	-3.00000e+00	
			         1.49333	-2.00000e+00	
			         1.49500	-2.00000e+00	
			         1.49667	-1.00000e+00	
			         1.49833	-1.00000e+00	
			         1.50000	-1.00000e+00	
			         1.50167	-1.00000e+00	
			         1.50333	-1.00000e+00	
			         1.50500	-1.00000e+00	
			         1.50667	-2.00000e+00	
			         1.50833	-2.00000e+00	
			         1.51000	-3.00000e+00	
			         1.51167	-4.00000e+00	
			         1.51333	-5.00000e+00	
			         1.51500	-7.00000e+00	
			         1.51667	-8.00000e+00	
			         1.51833	-9.00000e+00	
			         1.52000	-9.00000e+00	
			         1.52167	-1.00000e+01	
			         1.52333	-1.00000e+01	
			         1.52500	-9.00000e+00	
			         1.52667	-9.00000e+00	
			         1.52833	-8.00000e+00	
			         1.53000	-7.00000e+00	
			         1.53167	-6.00000e+00	
			         1.53333	-4.00000e+00	
			         1.53500	-3.00000e+00	
			         1.53667	-2.00000e+00	
			         1.53833	-1.00000e+00	
			         1.54000	0.00000e+00	
			         1.54167	1.00000e+00	
			         1.54333	1.00000e+00	
			         1.54500	2.00000e+00	
			         1.54667	2.00000e+00	
			         1.54833	2.00000e+00	
			         1.55000	2.00000e+00	
			         1.55167	2.00000e+00	
			         1.55333	2.00000e+00	
			         1.55500	2.00000e+00	
			         1.55667	2.00000e+00	
			         1.55833	1.00000e+00	
			         1.56000	2.00000e+00	
			         1.56167	2.00000e+00	
			         1.56333	2.00000e+00	
			         1.56500	2.00000e+00	
			         1.56667	2.00000e+00	
			         1.56833	3.00000e+00	
			         1.57000	3.00000e+00	
			         1.57167	3.00000e+00	
			         1.57333	3.00000e+00	
			         1.57500	3.00000e+00	
			         1.57667	2.00000e+00	
			         1.57833	2.00000e+00	
			         1.58000	1.00000e+00	
			         1.58167	0.00000e+00	
			         1.58333	0.00000e+00	
			         1.58500	-1.00000e+00	
			         1.58667	-2.00000e+00	
			         1.58833	-3.00000e+00	
			         1.59000	-4.00000e+00	
			         1.59167	-5.00000e+00	
			         1.59333	-6.00000e+00	
			         1.59500	-7.00000e+00	
			         1.59667	-7.00000e+00	
			         1.59833	-8.00000e+00	
			         1.60000	-8.00000e+00	
			         1.60167	-9.00000e+00	
			         1.60333	-9.00000e+00	
			         1.60500	-9.00000e+00	
			         1.60667	-1.00000e+01	
			         1.60833	-1.00000e+01	
			         1.61000	-1.00000e+01	
			         1.61167	-1.00000e+01	
			         1.61333	-1.00000e+01	
			         1.61500	-1.10000e+01	
			         1.61667	-1.10000e+01	
			         1.61833	-1.10000e+01	
			         1.62000	-1.10000e+01	
			         1.62167	-1.20000e+01	
			         1.62333	-1.20000e+01	
			         1.62500	-1.30000e+01	
			         1.62667	-1.30000e+01	
			         1.62833	-1.40000e+01	
			         1.63000	-1.50000e+01	
			         1.63167	-1.50000e+01	
			         1.63333	-1.60000e+01	
			         1.63500	-1.60000e+01	
			         1.63667	-1.70000e+01	
			         1.63833	-1.80000e+01	
			         1.64000	-1.80000e+01	
			         1.64167	-1.90000e+01	
			         1.64333	-1.90000e+01	
			         1.64500	-1.90000e+01	
			         1.64667	-2.00000e+01	
			         1.64833	-2.00000e+01	
			         1.65000	-2.00000e+01	
			         1.65167	-2.00000e+01	
			         1.65333	-2.10000e+01	
			         1.65500	-2.10000e+01	
			         1.65667	-2.10000e+01	
			         1.65833	-2.10000e+01	
			         1.66000	-2.00000e+01	
			         1.66167	-2.00000e+01	
			         1.66333	-2.00000e+01	
			         1.66500	-2.00000e+01	
			         1.66667	-2.00000e+01	
			         1.66833	-1.90000e+01	
			         1.67000	-1.90000e+01	
			         1.67167	-1.80000e+01	
			         1.67333	-1.80000e+01	
			         1.67500	-1.80000e+01	
			         1.67667	-1.80000e+01	
			         1.67833	-1.70000e+01	
			         1.68000	-1.70000e+01	
			         1.68167	-1.70000e+01	
			         1.68333	-1.70000e+01	
			         1.68500	-1.80000e+01	
			         1.68667	-1.80000e+01	
			         1.68833	-1.90000e+01	
			         1.69000	-2.00000e+01	
			         1.69167	-2.10000e+01	
			         1.69333	-2.20000e+01	
			         1.69500	-2.20000e+01	
			         1.69667	-2.30000e+01	
			         1.69833	-2.30000e+01	
			         1.70000	-2.40000e+01	
			         1.70167	-2.40000e+01	
			         1.70333	-2.40000e+01	
			         1.70500	-2.50000e+01	
			         1.70667	-2.40000e+01	
			         1.70833	-2.40000e+01	
			         1.71000	-2.40000e+01	
			         1.71167	-2.40000e+01	
			         1.71333	-2.30000e+01	
			         1.71500	-2.30000e+01	
			         1.71667	-2.30000e+01	
			         1.71833	-2.30000e+01	
			         1.72000	-2.30000e+01	
			         1.72167	-2.30000e+01	
			         1.72333	-2.30000e+01	
			         1.72500	-2.40000e+01	
			         1.72667	-2.40000e+01	
			         1.72833	-2.40000e+01	
			         1.73000	-2.40000e+01	
			         1.73167	-2.40000e+01	
			         1.73333	-2.40000e+01	
			         1.73500	-2.40000e+01	
			         1.73667	-2.40000e+01	
			         1.73833	-2.40000e+01	
			         1.74000	-2.40000e+01	
			         1.74167	-2.40000e+01	
			         1.74333	-2.40000e+01	
			         1.74500	-2.40000e+01	
			         1.74667	-2.30000e+01	
			         1.74833	-2.30000e+01	
			         1.75000	-2.20000e+01	
			         1.75167	-2.20000e+01	
			         1.75333	-2.10000e+01	
			         1.75500	-2.10000e+01	
			         1.75667	-2.00000e+01	
			         1.75833	-2.00000e+01	
			         1.76000	-1.90000e+01	
			         1.76167	-1.90000e+01	
			         1.76333	-1.90000e+01	
			         1.76500	-1.80000e+01	
			         1.76667	-1.80000e+01	
			         1.76833	-1.80000e+01	
			         1.77000	-1.80000e+01	
			         1.77167	-1.80000e+01	
			         1.77333	-1.70000e+01	
			         1.77500	-1.70000e+01	
			         1.77667	-1.60000e+01	
			         1.77833	-1.60000e+01	
			         1.78000	-1.50000e+01	
			         1.78167	-1.50000e+01	
			         1.78333	-1.40000e+01	
			         1.78500	-1.30000e+01	
			         1.78667	-1.30000e+01	
			         1.78833	-1.30000e+01	
			         1.79000	-1.20000e+01	
			         1.79167	-1.20000e+01	
			         1.79333	-1.20000e+01	
			         1.79500	-1.20000e+01	
			         1.79667	-1.20000e+01	
			         1.79833	-1.30000e+01	
			         1.80000	-1.30000e+01	
			         1.80167	-1.30000e+01	
			         1.80333	-1.40000e+01	
			         1.80500	-1.40000e+01	
			         1.80667	-1.40000e+01	
			         1.80833	-1.40000e+01	
			         1.81000	-1.40000e+01	
			         1.81167	-1.40000e+01	
			         1.81333	-1.40000e+01	
			         1.81500	-1.30000e+01	
			         1.81667	-1.30000e+01	
			         1.81833	-1.30000e+01	
			         1.82000	-1.20000e+01	
			         1.82167	-1.20000e+01	
			         1.82333	-1.20000e+01	
			         1.82500	-1.20000e+01	
			         1.82667	-1.30000e+01	
			         1.82833	-1.30000e+01	
			         1.83000	-1.40000e+01	
			         1.83167	-1.50000e+01	
			         1.83333	-1.60000e+01	
			         1.83500	-1.70000e+01	
			         1.83667	-1.80000e+01	
			         1.83833	-1.90000e+01	
			         1.84000	-1.90000e+01	
			         1.84167	-1.90000e+01	
			         1.84333	-1.90000e+01	
			         1.84500	-1.90000e+01	
			         1.84667	-1.80000e+01	
			         1.84833	-1.70000e+01	
			         1.85000	-1.50000e+01	
			         1.85167	-1.30000e+01	
			         1.85333	-1.10000e+01	
			         1.85500	-9.00000e+00	
			         1.85667	-6.00000e+00	
			         1.85833	-3.00000e+00	
			         1.86000	0.00000e+00	
			         1.86167	3.00000e+00	
			         1.86333	6.00000e+00	
			         1.86500	9.00000e+00	
			         1.86667	1.20000e+01	
			         1.86833	1.40000e+01	
			         1.87000	1.60000e+01	
			         1.87167	1.80000e+01	
			         1.87333	2.00000e+01	
			         1.87500	2.10000e+01	
			         1.87667	2.20000e+01	
			         1.87833	2.30000e+01	
			         1.88000	2.30000e+01	
			         1.88167	2.30000e+01	
			         1.88333	2.30000e+01	
			         1.88500	2.20000e+01	
			         1.88667	2.20000e+01	
			         1.88833	2.20000e+01	
			         1.89000	2.20000e+01	
			         1.89167	2.20000e+01	
			         1.89333	2.30000e+01	
			         1.89500	2.40000e+01	
			         1.89667	2.50000e+01	
			         1.89833	2.60000e+01	
			         1.90000	2.80000e+01	
			         1.90167	3.00000e+01	
			         1.90333	3.20000e+01	
			         1.90500	3.40000e+01	
			         1.90667	3.50000e+01	
			         1.90833	3.70000e+01	
			         1.91000	3.70000e+01	
			         1.91167	3.80000e+01	
			         1.91333	3.80000e+01	
			         1.91500	3.70000e+01	
			         1.91667	3.60000e+01	
			         1.91833	3.50000e+01	
			         1.92000	3.30000e+01	
			         1.92167	3.10000e+01	
			         1.92333	2.80000e+01	
			         1.92500	2.60000e+01	
			         1.92667	2.40000e+01	
			         1.92833	2.10000e+01	
			         1.93000	1.90000e+01	
			         1.93167	1.70000e+01	
			         1.93333	1.40000e+01	
			         1.93500	1.20000e+01	
			         1.93667	1.00000e+01	
			         1.93833	7.00000e+00	
			         1.94000	5.00000e+00	
			         1.94167	2.00000e+00	
			         1.94333	0.00000e+00	
			         1.94500	-3.00000e+00	
			         1.94667	-5.00000e+00	
			         1.94833	-8.00000e+00	
			         1.95000	-1.10000e+01	
			         1.95167	-1.40000e+01	
			         1.95333	-1.60000e+01	
			         1.95500	-1.90000e+01	
			         1.95667	-2.20000e+01	
			         1.95833	-2.50000e+01	
			         1.96000	-2.70000e+01	
			         1.96167	-2.90000e+01	
			         1.96333	-3.10000e+01	
			         1.96500	-3.20000e+01	
			         1.96667	-3.30000e+01	
			         1.96833	-3.40000e+01	
			         1.97000	-3.50000e+01	
			         1.97167	-3.50000e+01	
			         1.97333	-3.50000e+01	
			         1.97500	-3.50000e+01	
			         1.97667	-3.40000e+01	
			         1.97833	-3.30000e+01	
			         1.98000	-3.30000e+01	
			         1.98167	-3.20000e+01	
			         1.98333	-3.10000e+01	
			         1.98500	-3.00000e+01	
			         1.98667	-2.90000e+01	
			         1.98833	-2.80000e+01	
			         1.99000	-2.80000e+01	
			         1.99167	-2.70000e+01	
			         1.99333	-2.60000e+01	
			         1.99500	-2.50000e+01	
			         1.99667	-2.40000e+01	
			         1.99833	-2.30000e+01	
			         2.00000	-2.20000e+01	
			         2.00167	-2.10000e+01	
			         2.00333	-1.90000e+01	
			         2.00500	-1.80000e+01	
			         2.00667	-1.70000e+01	
			         2.00833	-1.50000e+01	
			         2.01000	-1.40000e+01	
			         2.01167	-1.30000e+01	
			         2.01333	-1.20000e+01	
			         2.01500	-1.20000e+01	
			         2.01667	-1.10000e+01	
			         2.01833	-1.00000e+01	
			         2.02000	-1.00000e+01	
			         2.02167	-9.00000e+00	
			         2.02333	-9.00000e+00	
			         2.02500	-8.00000e+00	
			         2.02667	-8.00000e+00	
			         2.02833	-8.00000e+00	
			         2.03000	-8.00000e+00	
			         2.03167	-7.00000e+00	
			         2.03333	-7.00000e+00	
			         2.03500	-8.00000e+00	
			         2.03667	-8.00000e+00	
			         2.03833	-9.00000e+00	
			         2.04000	-1.10000e+01	
			         2.04167	-1.20000e+01	
			         2.04333	-1.50000e+01	
			         2.04500	-1.70000e+01	
			         2.04667	-2.00000e+01	
			         2.04833	-2.20000e+01	
			         2.05000	-2.50000e+01	
			         2.05167	-2.70000e+01	
			         2.05333	-2.80000e+01	
			         2.05500	-3.00000e+01	
			         2.05667	-3.00000e+01	
			         2.05833	-3.00000e+01	
			         2.06000	-2.80000e+01	
			         2.06167	-2.60000e+01	
			         2.06333	-2.30000e+01	
			         2.06500	-1.90000e+01	
			         2.06667	-1.40000e+01	
			         2.06833	-8.00000e+00	
			         2.07000	-1.00000e+00	
			         2.07167	7.00000e+00	
			         2.07333	1.80000e+01	
			         2.07500	3.10000e+01	
			         2.07667	4.80000e+01	
			         2.07833	6.90000e+01	
			         2.08000	9.40000e+01	
			         2.08167	1.24000e+02	
			         2.08333	1.57000e+02	
			         2.08500	1.93000e+02	
			         2.08667	2.31000e+02	
			         2.08833	2.68000e+02	
			         2.09000	3.05000e+02	
			         2.09167	3.37000e+02	
			         2.09333	3.65000e+02	
			         2.09500	3.87000e+02	
			         2.09667	4.00000e+02	
			         2.09833	4.05000e+02	
			         2.10000	4.00000e+02	
			         2.10167	3.84000e+02	
			         2.10333	3.59000e+02	
			         2.10500	3.25000e+02	
			         2.10667	2.85000e+02	
			         2.10833	2.39000e+02	
			         2.11000	1.90000e+02	
			         2.11167	1.40000e+02	
			         2.11333	9.10000e+01	
			         2.11500	4.40000e+01	
			         2.11667	0.00000e+00	
			         2.11833	-3.90000e+01	
			         2.12000	-7.40000e+01	
			         2.12167	-1.02000e+02	
			         2.12333	-1.25000e+02	
			         2.12500	-1.42000e+02	
			         2.12667	-1.53000e+02	
			         2.12833	-1.59000e+02	
			         2.13000	-1.60000e+02	
			         2.13167	-1.58000e+02	
			         2.13333	-1.53000e+02	
			         2.13500	-1.46000e+02	
			         2.13667	-1.37000e+02	
			         2.13833	-1.28000e+02	
			         2.14000	-1.18000e+02	
			         2.14167	-1.08000e+02	
			         2.14333	-9.90000e+01	
			         2.14500	-8.90000e+01	
			         2.14667	-8.10000e+01	
			         2.14833	-7.40000e+01	
			         2.15000	-6.70000e+01	
			         2.15167	-6.10000e+01	
			         2.15333	-5.70000e+01	
			         2.15500	-5.30000e+01	
			         2.15667	-4.90000e+01	
			         2.15833	-4.70000e+01	
			         2.16000	-4.40000e+01	
			         2.16167	-4.20000e+01	
			         2.16333	-4.00000e+01	
			         2.16500	-3.90000e+01	
			         2.16667	-3.70000e+01	
			         2.16833	-3.60000e+01	
			         2.17000	-3.50000e+01	
			         2.17167	-3.40000e+01	
			         2.17333	-3.20000e+01	
			         2.17500	-3.10000e+01	
			         2.17667	-3.00000e+01	
			         2.17833	-2.90000e+01	
			         2.18000	-2.80000e+01	
			         2.18167	-2.70000e+01	
			         2.18333	-2.50000e+01	
			         2.18500	-2.40000e+01	
			         2.18667	-2.30000e+01	
			         2.18833	-2.10000e+01	
			         2.19000	-1.90000e+01	
			         2.19167	-1.80000e+01	
			         2.19333	-1.60000e+01	
			         2.19500	-1.40000e+01	
			         2.19667	-1.20000e+01	
			         2.19833	-1.00000e+01	
			         2.20000	-8.00000e+00	
			         2.20167	-5.00000e+00	
			         2.20333	-4.00000e+00	
			         2.20500	-2.00000e+00	
			         2.20667	0.00000e+00	
			         2.20833	2.00000e+00	
			         2.21000	3.00000e+00	
			         2.21167	4.00000e+00	
			         2.21333	5.00000e+00	
			         2.21500	6.00000e+00	
			         2.21667	7.00000e+00	
			         2.21833	8.00000e+00	
			         2.22000	9.00000e+00	
			         2.22167	9.00000e+00	
			         2.22333	1.00000e+01	
			         2.22500	1.00000e+01	
			         2.22667	1.10000e+01	
			         2.22833	1.10000e+01	
			         2.23000	1.20000e+01	
			         2.23167	1.30000e+01	
			         2.23333	1.40000e+01	
			         2.23500	1.60000e+01	
			         2.23667	1.70000e+01	
			         2.23833	1.90000e+01	
			         2.24000	2.00000e+01	
			         2.24167	2.20000e+01	
			         2.24333	2.40000e+01	
			         2.24500	2.60000e+01	
			         2.24667	2.80000e+01	
			         2.24833	3.00000e+01	
			         2.25000	3.20000e+01	
			         2.25167	3.40000e+01	
			         2.25333	3.60000e+01	
			         2.25500	3.80000e+01	
			         2.25667	4.10000e+01	
			         2.25833	4.30000e+01	
			         2.26000	4.60000e+01	
			         2.26167	4.90000e+01	
			         2.26333	5.10000e+01	
			         2.26500	5.40000e+01	
			         2.26667	5.70000e+01	
			         2.26833	6.00000e+01	
			         2.27000	6.30000e+01	
			         2.27167	6.60000e+01	
			         2.27333	6.90000e+01	
			         2.27500	7.20000e+01	
			         2.27667	7.50000e+01	
			         2.27833	7.80000e+01	
			         2.28000	8.20000e+01	
			         2.28167	8.50000e+01	
			         2.28333	8.80000e+01	
			         2.28500	9.10000e+01	
			         2.28667	9.40000e+01	
			         2.28833	9.80000e+01	
			         2.29000	1.01000e+02	
			         2.29167	1.05000e+02	
			         2.29333	1.08000e+02	
			         2.29500	1.11000e+02	
			         2.29667	1.14000e+02	
			         2.29833	1.17000e+02	
			         2.30000	1.20000e+02	
			         2.30167	1.23000e+02	
			         2.30333	1.26000e+02	
			         2.30500	1.28000e+02	
			         2.30667	1.30000e+02	
			         2.30833	1.32000e+02	
			         2.31000	1.34000e+02	
			         2.31167	1.35000e+02	
			         2.31333	1.36000e+02	
			         2.31500	1.37000e+02	
			         2.31667	1.38000e+02	
			         2.31833	1.39000e+02	
			         2.32000	1.40000e+02	
			         2.32167	1.40000e+02	
			         2.32333	1.41000e+02	
			         2.32500	1.41000e+02	
			         2.32667	1.41000e+02	
			         2.32833	1.42000e+02	
			         2.33000	1.42000e+02	
			         2.33167	1.42000e+02	
			         2.33333	1.42000e+02	
			         2.33500	1.41000e+02	
			         2.33667	1.41000e+02	
			         2.33833	1.39000e+02	
			         2.34000	1.37000e+02	
			         2.34167	1.35000e+02	
			         2.34333	1.32000e+02	
			         2.34500	1.29000e+02	
			         2.34667	1.24000e+02	
			         2.34833	1.20000e+02	
			         2.35000	1.15000e+02	
			         2.35167	1.10000e+02	
			         2.35333	1.05000e+02	
			         2.35500	9.90000e+01	
			         2.35667	9.40000e+01	
			         2.35833	8.80000e+01	
			         2.36000	8.20000e+01	
			         2.36167	7.60000e+01	
			         2.36333	7.00000e+01	
			         2.36500	6.40000e+01	
			         2.36667	5.70000e+01	
			         2.36833	5.00000e+01	
			         2.37000	4.20000e+01	
			         2.37167	3.40000e+01	
			         2.37333	2.60000e+01	
			         2.37500	1.80000e+01	
			         2.37667	9.00000e+00	
			         2.37833	0.00000e+00	
			         2.38000	-8.00000e+00	
			         2.38167	-1.70000e+01	
			         2.38333	-2.50000e+01	
			         2.38500	-3.30000e+01	
			         2.38667	-4.10000e+01	
			         2.38833	-4.80000e+01	
			         2.39000	-5.50000e+01	
			         2.39167	-6.20000e+01	
			         2.39333	-6.80000e+01	
			         2.39500	-7.40000e+01	
			         2.39667	-8.00000e+01	
			         2.39833	-8.50000e+01	
			         2.40000	-9.00000e+01	
			         2.40167	-9.40000e+01	
			         2.40333	-9.80000e+01	
			         2.40500	-1.01000e+02	
			         2.40667	-1.04000e+02	
			         2.40833	-1.06000e+02	
			         2.41000	-1.08000e+02	
			         2.41167	-1.09000e+02	
			         2.41333	-1.10000e+02	
			         2.41500	-1.11000e+02	
			         2.41667	-1.11000e+02	
			         2.41833	-1.12000e+02	
			         2.42000	-1.11000e+02	
			         2.42167	-1.11000e+02	
			         2.42333	-1.11000e+02	
			         2.42500	-1.10000e+02	
			         2.42667	-1.09000e+02	
			         2.42833	-1.08000e+02	
			         2.43000	-1.07000e+02	
			         2.43167	-1.05000e+02	
			         2.43333	-1.04000e+02	
			         2.43500	-1.02000e+02	
			         2.43667	-1.00000e+02	
			         2.43833	-9.70000e+01	
			         2.44000	-9.50000e+01	
			         2.44167	-9.30000e+01	
			         2.44333	-9.20000e+01	
			         2.44500	-9.00000e+01	
			         2.44667	-8.80000e+01	
			         2.44833	-8.60000e+01	
			         2.45000	-8.50000e+01	
			         2.45167	-8.30000e+01	
			         2.45333	-8.20000e+01	
			         2.45500	-8.10000e+01	
			         2.45667	-8.00000e+01	
			         2.45833	-7.90000e+01	
			         2.46000	-7.80000e+01	
			         2.46167	-7.70000e+01	
			         2.46333	-7.60000e+01	
			         2.46500	-7.50000e+01	
			         2.46667	-7.40000e+01	
			         2.46833	-7.30000e+01	
			         2.47000	-7.20000e+01	
			         2.47167	-7.00000e+01	
			         2.47333	-6.80000e+01	
			         2.47500	-6.70000e+01	
			         2.47667	-6.50000e+01	
			         2.47833	-6.20000e+01	
			         2.48000	-6.00000e+01	
			         2.48167	-5.80000e+01	
			         2.48333	-5.60000e+01	
			         2.48500	-5.40000e+01	
			         2.48667	-5.20000e+01	
			         2.48833	-5.00000e+01	
			         2.49000	-4.80000e+01	
			         2.49167	-4.70000e+01	
			         2.49333	-4.50000e+01	
			         2.49500	-4.40000e+01	
			         2.49667	-4.20000e+01	
			         2.49833	-4.10000e+01	
			         2.50000	-4.00000e+01	
			         2.50167	-3.90000e+01	
			         2.50333	-3.80000e+01	
			         2.50500	-3.80000e+01	
			         2.50667	-3.70000e+01	
			         2.50833	-3.60000e+01	
			         2.51000	-3.60000e+01	
			         2.51167	-3.50000e+01	
			         2.51333	-3.40000e+01	
			         2.51500	-3.40000e+01	
			         2.51667	-3.30000e+01	
			         2.51833	-3.20000e+01	
			         2.52000	-3.10000e+01	
			         2.52167	-3.10000e+01	
			         2.52333	-2.90000e+01	
			         2.52500	-2.80000e+01	
			         2.52667	-2.70000e+01	
			         2.52833	-2.60000e+01	
			         2.53000	-2.40000e+01	
			         2.53167	-2.30000e+01	
			         2.53333	-2.20000e+01	
			         2.53500	-2.00000e+01	
			         2.53667	-1.90000e+01	
			         2.53833	-1.80000e+01	
			         2.54000	-1.70000e+01	
			         2.54167	-1.60000e+01	
			         2.54333	-1.60000e+01	
			         2.54500	-1.50000e+01	
			         2.54667	-1.40000e+01	
			         2.54833	-1.40000e+01	
			         2.55000	-1.40000e+01	
			         2.55167	-1.30000e+01	
			         2.55333	-1.30000e+01	
			         2.55500	-1.30000e+01	
			         2.55667	-1.20000e+01	
			         2.55833	-1.20000e+01	
			         2.56000	-1.20000e+01	
			         2.56167	-1.20000e+01	
			         2.56333	-1.20000e+01	
			         2.56500	-1.20000e+01	
			         2.56667	-1.10000e+01	
			         2.56833	-1.10000e+01	
			         2.57000	-1.00000e+01	
			         2.57167	-1.00000e+01	
			         2.57333	-9.00000e+00	
			         2.57500	-8.00000e+00	
			         2.57667	-7.00000e+00	
			         2.57833	-6.00000e+00	
			         2.58000	-5.00000e+00	
			         2.58167	-4.00000e+00	
			         2.58333	-2.00000e+00	
			         2.58500	-1.00000e+00	
			         2.58667	0.00000e+00	
			         2.58833	0.00000e+00	
			         2.59000	0.00000e+00	
			         2.59167	1.00000e+00	
			         2.59333	1.00000e+00	
			         2.59500	0.00000e+00	
			         2.59667	0.00000e+00	
			         2.59833	0.00000e+00	
			         2.60000	-1.00000e+00	
			         2.60167	-2.00000e+00	
			         2.60333	-3.00000e+00	
			         2.60500	-4.00000e+00	
			         2.60667	-4.00000e+00	
			         2.60833	-4.00000e+00	
			         2.61000	-5.00000e+00	
			         2.61167	-5.00000e+00	
			         2.61333	-4.00000e+00	
			         2.61500	-4.00000e+00	
			         2.61667	-4.00000e+00	
			         2.61833	-3.00000e+00	
			         2.62000	-3.00000e+00	
			         2.62167	-3.00000e+00	
			         2.62333	-3.00000e+00	
			         2.62500	-3.00000e+00	
			         2.62667	-3.00000e+00	
			         2.62833	-4.00000e+00	
			         2.63000	-4.00000e+00	
			         2.63167	-5.00000e+00	
			         2.63333	-6.00000e+00	
			         2.63500	-8.00000e+00	
			         2.63667	-9.00000e+00	
			         2.63833	-1.00000e+01	
			         2.64000	-1.10000e+01	
			         2.64167	-1.20000e+01	
			         2.64333	-1.20000e+01	
			         2.64500	-1.30000e+01	
			         2.64667	-1.30000e+01	
			         2.64833	-1.30000e+01	
			         2.65000	-1.20000e+01	
			         2.65167	-1.20000e+01	
			         2.65333	-1.10000e+01	
			         2.65500	-1.00000e+01	
			         2.65667	-9.00000e+00	
			         2.65833	-8.00000e+00	
			         2.66000	-7.00000e+00	
			         2.66167	-7.00000e+00	
			         2.66333	-6.00000e+00	
			         2.66500	-6.00000e+00	
			         2.66667	-5.00000e+00	
			         2.66833	-5.00000e+00	
			         2.67000	-4.00000e+00	
			         2.67167	-4.00000e+00	
			         2.67333	-3.00000e+00	
			         2.67500	-3.00000e+00	
			         2.67667	-3.00000e+00	
			         2.67833	-2.00000e+00	
			         2.68000	-2.00000e+00	
			         2.68167	-1.00000e+00	
			         2.68333	-1.00000e+00	
			         2.68500	0.00000e+00	
			         2.68667	0.00000e+00	
			         2.68833	0.00000e+00	
			         2.69000	0.00000e+00	
			         2.69167	0.00000e+00	
			         2.69333	0.00000e+00	
			         2.69500	-1.00000e+00	
			         2.69667	-2.00000e+00	
			         2.69833	-3.00000e+00	
			         2.70000	-3.00000e+00	
			         2.70167	-5.00000e+00	
			         2.70333	-6.00000e+00	
			         2.70500	-7.00000e+00	
			         2.70667	-8.00000e+00	
			         2.70833	-9.00000e+00	
			         2.71000	-1.00000e+01	
			         2.71167	-1.10000e+01	
			         2.71333	-1.10000e+01	
			         2.71500	-1.10000e+01	
			         2.71667	-1.20000e+01	
			         2.71833	-1.20000e+01	
			         2.72000	-1.20000e+01	
			         2.72167	-1.20000e+01	
			         2.72333	-1.20000e+01	
			         2.72500	-1.20000e+01	
			         2.72667	-1.20000e+01	
			         2.72833	-1.20000e+01	
			         2.73000	-1.20000e+01	
			         2.73167	-1.30000e+01	
			         2.73333	-1.30000e+01	
			         2.73500	-1.30000e+01	
			         2.73667	-1.40000e+01	
			         2.73833	-1.40000e+01	
			         2.74000	-1.50000e+01	
			         2.74167	-1.50000e+01	
			         2.74333	-1.50000e+01	
			         2.74500	-1.40000e+01	
			         2.74667	-1.40000e+01	
			         2.74833	-1.30000e+01	
			         2.75000	-1.30000e+01	
			         2.75167	-1.20000e+01	
			         2.75333	-1.20000e+01	
			         2.75500	-1.10000e+01	
			         2.75667	-1.10000e+01	
			         2.75833	-1.10000e+01	
			         2.76000	-1.10000e+01	
			         2.76167	-1.10000e+01	
			         2.76333	-1.10000e+01	
			         2.76500	-1.10000e+01	
			         2.76667	-1.10000e+01	
			         2.76833	-1.20000e+01	
			         2.77000	-1.20000e+01	
			         2.77167	-1.30000e+01	
			         2.77333	-1.30000e+01	
			         2.77500	-1.40000e+01	
			         2.77667	-1.40000e+01	
			         2.77833	-1.50000e+01	
			         2.78000	-1.50000e+01	
			         2.78167	-1.50000e+01	
			         2.78333	-1.50000e+01	
			         2.78500	-1.50000e+01	
			         2.78667	-1.50000e+01	
			         2.78833	-1.50000e+01	
			         2.79000	-1.40000e+01	
			         2.79167	-1.40000e+01	
			         2.79333	-1.30000e+01	
			         2.79500	-1.20000e+01	
			         2.79667	-1.20000e+01	
			         2.79833	-1.10000e+01	
			         2.80000	-1.10000e+01	
			         2.80167	-1.00000e+01	
			         2.80333	-1.00000e+01	
			         2.80500	-1.00000e+01	
			         2.80667	-1.00000e+01	
			         2.80833	-1.00000e+01	
			         2.81000	-1.00000e+01	
			         2.81167	-1.00000e+01	
			         2.81333	-1.10000e+01	
			         2.81500	-1.10000e+01	
			         2.81667	-1.10000e+01	
			         2.81833	-1.10000e+01	
			         2.82000	-1.20000e+01	
			         2.82167	-1.20000e+01	
			         2.82333	-1.20000e+01	
			         2.82500	-1.20000e+01	
			         2.82667	-1.20000e+01	
			         2.82833	-1.20000e+01	
			         2.83000	-1.20000e+01	
			         2.83167	-1.10000e+01	
			         2.83333	-1.10000e+01	
			         2.83500	-1.00000e+01	
			         2.83667	-1.00000e+01	
			         2.83833	-9.00000e+00	
			         2.84000	-9.00000e+00	
			         2.84167	-8.00000e+00	
			         2.84333	-7.00000e+00	
			         2.84500	-6.00000e+00	
			         2.84667	-6.00000e+00	
			         2.84833	-5.00000e+00	
			         2.85000	-5.00000e+00	
			         2.85167	-5.00000e+00	
			         2.85333	-4.00000e+00	
			         2.85500	-4.00000e+00	
			         2.85667	-4.00000e+00	
			         2.85833	-4.00000e+00	
			         2.86000	-4.00000e+00	
			         2.86167	-5.00000e+00	
			         2.86333	-5.00000e+00	
			         2.86500	-5.00000e+00	
			         2.86667	-5.00000e+00	
			         2.86833	-5.00000e+00	
			         2.87000	-5.00000e+00	
			         2.87167	-5.00000e+00	
			         2.87333	-4.00000e+00	
			         2.87500	-3.00000e+00	
			         2.87667	-2.00000e+00	
			         2.87833	-1.00000e+00	
			         2.88000	0.00000e+00	
			         2.88167	1.00000e+00	
			         2.88333	2.00000e+00	
			         2.88500	3.00000e+00	
			         2.88667	4.00000e+00	
			         2.88833	5.00000e+00	
			         2.89000	5.00000e+00	
			         2.89167	5.00000e+00	
			         2.89333	6.00000e+00	
			         2.89500	6.00000e+00	
			         2.89667	6.00000e+00	
			         2.89833	7.00000e+00	
			         2.90000	7.00000e+00	
			         2.90167	8.00000e+00	
			         2.90333	9.00000e+00	
			         2.90500	1.00000e+01	
			         2.90667	1.20000e+01	
			         2.90833	1.40000e+01	
			         2.91000	1.60000e+01	
			         2.91167	1.90000e+01	
			         2.91333	2.10000e+01	
			         2.91500	2.40000e+01	
			         2.91667	2.60000e+01	
			         2.91833	2.90000e+01	
			         2.92000	3.10000e+01	
			         2.92167	3.30000e+01	
			         2.92333	3.40000e+01	
			         2.92500	3.60000e+01	
			         2.92667	3.70000e+01	
			         2.92833	3.80000e+01	
			         2.93000	3.80000e+01	
			         2.93167	3.90000e+01	
			         2.93333	4.00000e+01	
			         2.93500	4.00000e+01	
			         2.93667	4.10000e+01	
			         2.93833	4.20000e+01	
			         2.94000	4.30000e+01	
			         2.94167	4.40000e+01	
			         2.94333	4.50000e+01	
			         2.94500	4.60000e+01	
			         2.94667	4.70000e+01	
			         2.94833	4.80000e+01	
			         2.95000	4.90000e+01	
			         2.95167	4.90000e+01	
			         2.95333	5.00000e+01	
			         2.95500	5.00000e+01	
			         2.95667	5.10000e+01	
			         2.95833	5.10000e+01	
			         2.96000	5.10000e+01	
			         2.96167	5.10000e+01	
			         2.96333	5.00000e+01	
			         2.96500	5.00000e+01	
			         2.96667	4.80000e+01	
			         2.96833	4.70000e+01	
			         2.97000	4.40000e+01	
			         2.97167	4.20000e+01	
			         2.97333	3.90000e+01	
			         2.97500	3.50000e+01	
			         2.97667	3.10000e+01	
			         2.97833	2.70000e+01	
			         2.98000	2.30000e+01	
			         2.98167	1.80000e+01	
			         2.98333	1.40000e+01	
			         2.98500	9.00000e+00	
			         2.98667	5.00000e+00	
			         2.98833	0.00000e+00	
			         2.99000	-4.00000e+00	
			         2.99167	-8.00000e+00	
			         2.99333	-1.10000e+01	
			         2.99500	-1.40000e+01	
			         2.99667	-1.70000e+01	
			         2.99833	-2.00000e+01	
			         3.00000	-2.20000e+01	
			         3.00167	-2.50000e+01	
			         3.00333	-2.70000e+01	
			         3.00500	-2.80000e+01	
			         3.00667	-3.00000e+01	
			         3.00833	-3.10000e+01	
			         3.01000	-3.20000e+01	
			         3.01167	-3.30000e+01	
			         3.01333	-3.40000e+01	
			         3.01500	-3.40000e+01	
			         3.01667	-3.50000e+01	
			         3.01833	-3.50000e+01	
			         3.02000	-3.50000e+01	
			         3.02167	-3.50000e+01	
			         3.02333	-3.50000e+01	
			         3.02500	-3.40000e+01	
			         3.02667	-3.40000e+01	
			         3.02833	-3.40000e+01	
			         3.03000	-3.30000e+01	
			         3.03167	-3.30000e+01	
			         3.03333	-3.20000e+01	
			         3.03500	-3.20000e+01	
			         3.03667	-3.10000e+01	
			         3.03833	-3.10000e+01	
			         3.04000	-3.00000e+01	
			         3.04167	-2.90000e+01	
			         3.04333	-2.90000e+01	
			         3.04500	-2.80000e+01	
			         3.04667	-2.80000e+01	
			         3.04833	-2.70000e+01	
			         3.05000	-2.70000e+01	
			         3.05167	-2.70000e+01	
			         3.05333	-2.70000e+01	
			         3.05500	-2.70000e+01	
			         3.05667	-2.70000e+01	
			         3.05833	-2.80000e+01	
			         3.06000	-2.80000e+01	
			         3.06167	-2.80000e+01	
			         3.06333	-2.90000e+01	
			         3.06500	-2.90000e+01	
			         3.06667	-2.90000e+01	
			         3.06833	-2.80000e+01	
			         3.07000	-2.80000e+01	
			         3.07167	-2.70000e+01	
			         3.07333	-2.60000e+01	
			         3.07500	-2.50000e+01	
			         3.07667	-2.40000e+01	
			         3.07833	-2.30000e+01	
			         3.08000	-2.20000e+01	
			         3.08167	-2.20000e+01	
			         3.08333	-2.10000e+01	
			         3.08500	-2.10000e+01	
			         3.08667	-2.20000e+01	
			         3.08833	-2.20000e+01	
			         3.09000	-2.30000e+01	
			         3.09167	-2.40000e+01	
			         3.09333	-2.50000e+01	
			         3.09500	-2.50000e+01	
			         3.09667	-2.60000e+01	
			         3.09833	-2.50000e+01	
			         3.10000	-2.40000e+01	
			         3.10167	-2.30000e+01	
			         3.10333	-2.10000e+01	
			         3.10500	-1.80000e+01	
			         3.10667	-1.40000e+01	
			         3.10833	-9.00000e+00	
			         3.11000	-4.00000e+00	
			         3.11167	3.00000e+00	
			         3.11333	1.10000e+01	
			         3.11500	2.10000e+01	
			         3.11667	3.40000e+01	
			         3.11833	5.00000e+01	
			         3.12000	7.00000e+01	
			         3.12167	9.50000e+01	
			         3.12333	1.23000e+02	
			         3.12500	1.56000e+02	
			         3.12667	1.91000e+02	
			         3.12833	2.29000e+02	
			         3.13000	2.66000e+02	
			         3.13167	3.03000e+02	
			         3.13333	3.36000e+02	
			         3.13500	3.65000e+02	
			         3.13667	3.88000e+02	
			         3.13833	4.03000e+02	
			         3.14000	4.10000e+02	
			         3.14167	4.06000e+02	
			         3.14333	3.93000e+02	
			         3.14500	3.71000e+02	
			         3.14667	3.39000e+02	
			         3.14833	3.01000e+02	
			         3.15000	2.57000e+02	
			         3.15167	2.09000e+02	
			         3.15333	1.60000e+02	
			         3.15500	1.11000e+02	
			         3.15667	6.40000e+01	
			         3.15833	1.90000e+01	
			         3.16000	-2.20000e+01	
			         3.16167	-5.90000e+01	
			         3.16333	-9.00000e+01	
			         3.16500	-1.15000e+02	
			         3.16667	-1.34000e+02	
			         3.16833	-1.48000e+02	
			         3.17000	-1.57000e+02	
			         3.17167	-1.60000e+02	
			         3.17333	-1.60000e+02	
			         3.17500	-1.56000e+02	
			         3.17667	-1.49000e+02	
			         3.17833	-1.41000e+02	
