Grayscale intensity, in dB

Time (s) :	Trace 1 : 	Trace 2 : 	Trace 3 : 		Ecg : 		
0.00148   	-3.42745e+01	-4.96032e+01	-3.94524e+01		         0.00000	4.11000e+02	
0.01631   	-3.43638e+01	-4.89319e+01	-3.91709e+01		         0.00167	4.18000e+02	
0.03113   	-3.49494e+01	-4.90011e+01	-3.92726e+01		         0.00333	4.15000e+02	
0.04596   	-3.45049e+01	-4.79898e+01	-3.95290e+01		         0.00500	4.02000e+02	
0.06078   	-3.39557e+01	-4.78818e+01	-4.06414e+01		         0.00667	3.79000e+02	
0.07561   	-3.32905e+01	-4.75111e+01	-3.95088e+01		         0.00833	3.47000e+02	
0.09043   	-3.23417e+01	-4.76713e+01	-3.83907e+01		         0.01000	3.07000e+02	
0.10525   	-3.20432e+01	-4.64272e+01	-3.77772e+01		         0.01167	2.61000e+02	
0.12008   	-3.20663e+01	-4.75351e+01	-3.59629e+01		         0.01333	2.12000e+02	
0.13490   	-3.18742e+01	-4.74705e+01	-3.45381e+01		         0.01500	1.61000e+02	
0.14973   	-3.17038e+01	-4.75204e+01	-3.25274e+01		         0.01667	1.10000e+02	
0.16455   	-3.15542e+01	-4.68191e+01	-3.40632e+01		         0.01833	6.00000e+01	
0.17938   	-3.16974e+01	-4.67455e+01	-3.29467e+01		         0.02000	1.40000e+01	
0.19420   	-3.21597e+01	-4.49899e+01	-3.26478e+01		         0.02167	-2.90000e+01	
0.20902   	-3.22500e+01	-4.56102e+01	-3.36727e+01		         0.02333	-6.60000e+01	
0.22384   	-3.22746e+01	-4.65699e+01	-3.38402e+01		         0.02500	-9.80000e+01	
0.23867   	-3.25778e+01	-4.71442e+01	-3.19233e+01		         0.02667	-1.24000e+02	
0.25349   	-3.29437e+01	-4.70488e+01	-3.31928e+01		         0.02833	-1.44000e+02	
0.26832   	-3.31452e+01	-4.80361e+01	-2.91600e+01		         0.03000	-1.57000e+02	
0.28314   	-3.32297e+01	-4.83067e+01	-2.91188e+01		         0.03167	-1.65000e+02	
0.29797   	-3.32724e+01	-4.89004e+01	-3.05037e+01		         0.03333	-1.68000e+02	
0.31279   	-3.29966e+01	-4.81014e+01	-3.24756e+01		         0.03500	-1.66000e+02	
0.32761   	-3.31779e+01	-4.83710e+01	-3.31223e+01		         0.03667	-1.61000e+02	
0.34243   	-3.31297e+01	-4.99967e+01	-3.38806e+01		         0.03833	-1.53000e+02	
0.35726   	-3.27901e+01	-4.90700e+01	-3.35229e+01		         0.04000	-1.43000e+02	
0.37208   	-3.26428e+01	-4.91017e+01	-3.17760e+01		         0.04167	-1.31000e+02	
0.38691   	-3.26607e+01	-5.04613e+01	-3.22327e+01		         0.04333	-1.19000e+02	
0.40173   	-3.26905e+01	-5.02043e+01	-3.23438e+01		         0.04500	-1.07000e+02	
0.41656   	-3.28078e+01	-5.05853e+01	-3.33281e+01		         0.04667	-9.50000e+01	
0.43138   	-3.32672e+01	-5.10070e+01	-3.36365e+01		         0.04833	-8.40000e+01	
0.44620   	-3.38344e+01	-5.13099e+01	-3.38015e+01		         0.05000	-7.40000e+01	
0.46103   	-3.36936e+01	-5.02721e+01	-3.61779e+01		         0.05167	-6.60000e+01	
0.47585   	-3.37508e+01	-5.05422e+01	-3.76114e+01		         0.05333	-5.80000e+01	
0.49076   	-3.34981e+01	-4.97512e+01	-3.55901e+01		         0.05500	-5.30000e+01	
0.50550   	-3.28786e+01	-5.03703e+01	-3.57835e+01		         0.05667	-4.90000e+01	
0.52032   	-3.24297e+01	-4.95399e+01	-3.64556e+01		         0.05833	-4.60000e+01	
0.53515   	-3.25100e+01	-4.84269e+01	-3.84431e+01		         0.06000	-4.40000e+01	
0.54997   	-3.22108e+01	-4.78395e+01	-3.70123e+01		         0.06167	-4.30000e+01	
0.56479   	-3.23688e+01	-4.74665e+01	-3.78468e+01		         0.06333	-4.30000e+01	
0.57962   	-3.20339e+01	-4.64385e+01	-3.79056e+01		         0.06500	-4.30000e+01	
0.59444   	-3.16238e+01	-4.66570e+01	-3.64033e+01		         0.06667	-4.40000e+01	
0.60926   	-3.13294e+01	-4.73693e+01	-3.50033e+01		         0.06833	-4.40000e+01	
0.62409   	-3.10680e+01	-4.84013e+01	-3.51513e+01		         0.07000	-4.40000e+01	
0.63891   	-3.12022e+01	-4.83898e+01	-3.46875e+01		         0.07167	-4.50000e+01	
0.65374   	-3.10609e+01	-4.95907e+01	-3.43797e+01		         0.07333	-4.40000e+01	
0.66856   	-3.09532e+01	-4.81523e+01	-3.50514e+01		         0.07500	-4.30000e+01	
0.68338   	-3.07122e+01	-4.81158e+01	-3.51829e+01		         0.07667	-4.20000e+01	
0.69821   	-3.05615e+01	-4.75230e+01	-3.54075e+01		         0.07833	-4.00000e+01	
0.71303   	-3.04107e+01	-4.86105e+01	-3.58112e+01		         0.08000	-3.80000e+01	
0.72786   	-3.03395e+01	-4.86699e+01	-3.57005e+01		         0.08167	-3.60000e+01	
0.74268   	-3.02269e+01	-4.75753e+01	-3.57575e+01		         0.08333	-3.30000e+01	
0.75750   	-3.01999e+01	-4.69096e+01	-3.57932e+01		         0.08500	-3.00000e+01	
0.77232   	-3.01262e+01	-4.84279e+01	-3.57667e+01		         0.08667	-2.80000e+01	
0.78715   	-3.01091e+01	-4.81414e+01	-3.58257e+01		         0.08833	-2.50000e+01	
0.80197   	-3.00518e+01	-4.77996e+01	-3.58654e+01		         0.09000	-2.30000e+01	
0.81680   	-3.00496e+01	-4.68652e+01	-3.59048e+01		         0.09167	-2.00000e+01	
0.83162   	-3.00031e+01	-4.61925e+01	-3.57667e+01		         0.09333	-1.80000e+01	
0.84645   	-3.00140e+01	-4.67403e+01	-3.56538e+01		         0.09500	-1.60000e+01	
0.86127   	-3.00766e+01	-4.73527e+01	-3.56309e+01		         0.09667	-1.50000e+01	
0.87609   	-3.00013e+01	-4.73257e+01	-3.57202e+01		         0.09833	-1.30000e+01	
0.89092   	-2.99134e+01	-4.73859e+01	-3.58247e+01		         0.10000	-1.20000e+01	
0.90574   	-2.98259e+01	-4.71779e+01	-3.60267e+01		         0.10167	-1.10000e+01	
0.92056   	-2.97521e+01	-4.76761e+01	-3.64246e+01		         0.10333	-1.00000e+01	
0.93539   	-2.96089e+01	-4.68216e+01	-3.68788e+01		         0.10500	-9.00000e+00	
0.95021   	-2.95640e+01	-4.69970e+01	-3.60360e+01		         0.10667	-8.00000e+00	
0.96504   	-3.00298e+01	-4.71176e+01	-3.60017e+01		         0.10833	-6.00000e+00	
0.97986   	-3.00993e+01	-4.75553e+01	-3.52057e+01		         0.11000	-4.00000e+00	
0.99469   	-2.92670e+01	-4.91731e+01	-3.56024e+01		         0.11167	-2.00000e+00	
1.00951   	-2.96437e+01	-4.85426e+01	-3.51380e+01		         0.11333	0.00000e+00	
1.02434   	-3.11275e+01	-4.85211e+01	-3.59537e+01		         0.11500	2.00000e+00	
1.03915   	-3.20897e+01	-4.92895e+01	-3.62887e+01		         0.11667	5.00000e+00	
1.05398   	-3.22013e+01	-5.03138e+01	-3.54133e+01		         0.11833	7.00000e+00	
1.06880   	-3.19782e+01	-5.00723e+01	-3.67904e+01		         0.12000	1.00000e+01	
1.08363   	-3.21073e+01	-5.04080e+01	-3.86818e+01		         0.12167	1.20000e+01	
1.09845   	-3.23544e+01	-5.19319e+01	-3.89591e+01		         0.12333	1.40000e+01	
1.11328   	-3.24575e+01	-5.21414e+01	-4.02516e+01		         0.12500	1.60000e+01	
1.12810   	-3.23828e+01	-5.05246e+01	-3.76233e+01		         0.12667	1.80000e+01	
1.14292   	-3.25761e+01	-4.86433e+01	-3.60555e+01		         0.12833	1.90000e+01	
1.15775   	-3.26700e+01	-4.80008e+01	-3.54350e+01		         0.13000	2.00000e+01	
1.17257   	-3.27107e+01	-4.80465e+01	-3.38251e+01		         0.13167	2.10000e+01	
1.18740   	-3.26466e+01	-4.82832e+01	-3.43593e+01		         0.13333	2.20000e+01	
1.20222   	-3.27546e+01	-4.95086e+01	-3.33325e+01		         0.13500	2.30000e+01	
1.21704   	-3.25355e+01	-4.84568e+01	-3.27745e+01		         0.13667	2.30000e+01	
1.23187   	-3.26207e+01	-4.84003e+01	-3.07796e+01		         0.13833	2.40000e+01	
1.24669   	-3.24586e+01	-4.80113e+01	-3.00564e+01		         0.14000	2.50000e+01	
1.26151   	-3.26310e+01	-4.65714e+01	-3.00211e+01		         0.14167	2.60000e+01	
1.27633   	-3.26591e+01	-4.64855e+01	-2.76785e+01		         0.14333	2.70000e+01	
1.29117   	-3.28026e+01	-4.67034e+01	-3.03028e+01		         0.14500	2.80000e+01	
1.30599   	-3.31688e+01	-4.67273e+01	-2.95512e+01		         0.14667	2.90000e+01	
1.32081   	-3.34281e+01	-4.74193e+01	-2.75115e+01		         0.14833	3.00000e+01	
1.33563   	-3.38183e+01	-4.76469e+01	-2.94905e+01		         0.15000	3.10000e+01	
1.35046   	-3.40966e+01	-4.76739e+01	-2.96491e+01		         0.15167	3.20000e+01	
1.36528   	-3.44028e+01	-4.71511e+01	-3.05927e+01		         0.15333	3.40000e+01	
1.38010   	-3.49261e+01	-4.82341e+01	-2.83294e+01		         0.15500	3.50000e+01	
1.39493   	-3.50267e+01	-4.94921e+01	-3.00418e+01		         0.15667	3.60000e+01	
1.40975   	-3.46467e+01	-5.00718e+01	-3.27594e+01		         0.15833	3.80000e+01	
1.42458   	-3.42415e+01	-4.96829e+01	-3.45130e+01		         0.16000	4.00000e+01	
1.43940   	-3.36019e+01	-5.00690e+01	-3.15116e+01		         0.16167	4.20000e+01	
1.45422   	-3.36756e+01	-5.03760e+01	-3.31933e+01		         0.16333	4.40000e+01	
1.46905   	-3.40728e+01	-5.10873e+01	-3.34577e+01		         0.16500	4.60000e+01	
1.48387   	-3.37104e+01	-5.03150e+01	-3.17137e+01		         0.16667	4.80000e+01	
1.49870   	-3.43655e+01	-5.06913e+01	-3.21157e+01		         0.16833	5.00000e+01	
1.51352   	-3.48482e+01	-5.07465e+01	-3.29948e+01		         0.17000	5.20000e+01	
1.52835   	-3.51920e+01	-5.15641e+01	-3.48045e+01		         0.17167	5.50000e+01	
1.54317   	-3.49444e+01	-5.13110e+01	-3.57873e+01		         0.17333	5.70000e+01	
1.55799   	-3.42017e+01	-5.02471e+01	-3.69809e+01		         0.17500	5.90000e+01	
1.57282   	-3.37118e+01	-4.97682e+01	-3.40727e+01		         0.17667	6.20000e+01	
1.58764   	-3.27637e+01	-5.10067e+01	-3.65399e+01		         0.17833	6.40000e+01	
1.60246   	-3.25574e+01	-4.89651e+01	-3.86467e+01		         0.18000	6.60000e+01	
1.61729   	-3.24300e+01	-4.84028e+01	-4.06864e+01		         0.18167	6.90000e+01	
1.63211   	-3.19548e+01	-4.69507e+01	-3.99636e+01		         0.18333	7.20000e+01	
1.64693   	-3.23800e+01	-4.56898e+01	-3.86459e+01		         0.18500	7.50000e+01	
1.66176   	-3.19569e+01	-4.58765e+01	-3.65698e+01		         0.18667	7.80000e+01	
1.67658   	-3.08121e+01	-4.72135e+01	-3.67291e+01		         0.18833	8.10000e+01	
1.69141   	-3.01804e+01	-4.58037e+01	-3.56918e+01		         0.19000	8.40000e+01	
1.70623   	-3.00831e+01	-4.64211e+01	-3.53436e+01		         0.19167	8.80000e+01	
1.72105   	-2.97872e+01	-4.61481e+01	-3.51546e+01		         0.19333	9.20000e+01	
1.73588   	-2.95389e+01	-4.70410e+01	-3.46929e+01		         0.19500	9.60000e+01	
1.75070   	-2.92605e+01	-4.70645e+01	-3.47287e+01		         0.19667	1.00000e+02	
1.76552   	-2.91135e+01	-4.69058e+01	-3.50974e+01		         0.19833	1.05000e+02	
1.78035   	-2.91631e+01	-4.64741e+01	-3.51542e+01		         0.20000	1.09000e+02	
1.79517   	-2.91843e+01	-4.72622e+01	-3.55873e+01		         0.20167	1.14000e+02	
1.81000   	-2.92282e+01	-4.77256e+01	-3.56818e+01		         0.20333	1.18000e+02	
1.82482   	-2.92775e+01	-4.65327e+01	-3.54982e+01		         0.20500	1.22000e+02	
1.83965   	-2.92634e+01	-4.60411e+01	-3.52652e+01		         0.20667	1.26000e+02	
1.85447   	-2.92778e+01	-4.77696e+01	-3.50689e+01		         0.20833	1.29000e+02	
1.86929   	-2.93451e+01	-4.86723e+01	-3.47463e+01		         0.21000	1.32000e+02	
1.88411   	-2.93709e+01	-4.70474e+01	-3.43668e+01		         0.21167	1.35000e+02	
1.89894   	-2.94283e+01	-4.60784e+01	-3.42727e+01		         0.21333	1.38000e+02	
1.91376   	-2.94887e+01	-4.49913e+01	-3.43248e+01		         0.21500	1.40000e+02	
1.92859   	-2.95203e+01	-4.62852e+01	-3.43542e+01		         0.21667	1.41000e+02	
1.94341   	-2.95255e+01	-4.65457e+01	-3.44610e+01		         0.21833	1.43000e+02	
1.95824   	-2.94605e+01	-4.65317e+01	-3.45231e+01		         0.22000	1.45000e+02	
1.97306   	-2.93598e+01	-4.64077e+01	-3.45771e+01		         0.22167	1.46000e+02	
1.98788   	-2.92493e+01	-4.63843e+01	-3.46456e+01		         0.22333	1.48000e+02	
2.00271   	-2.92321e+01	-4.58269e+01	-3.46199e+01		         0.22500	1.49000e+02	
2.01753   	-2.92335e+01	-4.64976e+01	-3.48550e+01		         0.22667	1.50000e+02	
2.03235   	-2.90142e+01	-4.52898e+01	-3.50740e+01		         0.22833	1.51000e+02	
2.04718   	-2.88726e+01	-4.73046e+01	-3.47348e+01		         0.23000	1.52000e+02	
2.06200   	-2.96348e+01	-4.75704e+01	-3.38077e+01		         0.23167	1.52000e+02	
2.07683   	-2.94601e+01	-4.81104e+01	-3.41431e+01		         0.23333	1.52000e+02	
2.09165   	-2.90628e+01	-4.76172e+01	-3.36584e+01		         0.23500	1.52000e+02	
2.10647   	-2.99454e+01	-4.83904e+01	-3.42471e+01		         0.23667	1.51000e+02	
2.12130   	-3.07029e+01	-4.88781e+01	-3.42112e+01		         0.23833	1.49000e+02	
2.13612   	-3.11454e+01	-4.96115e+01	-3.44915e+01		         0.24000	1.47000e+02	
2.15094   	-3.15373e+01	-5.04692e+01	-3.43574e+01		         0.24167	1.44000e+02	
2.16577   	-3.15392e+01	-4.96004e+01	-3.61709e+01		         0.24333	1.40000e+02	
2.18059   	-3.18689e+01	-5.08820e+01	-3.74609e+01		         0.24500	1.36000e+02	
2.19543   	-3.21804e+01	-5.13729e+01	-3.90083e+01		         0.24667	1.32000e+02	
2.21024   	-3.20948e+01	-4.94096e+01	-3.80460e+01		         0.24833	1.27000e+02	
2.22506   	-3.20981e+01	-4.91949e+01	-3.75968e+01		         0.25000	1.22000e+02	
2.23989   	-3.24154e+01	-4.83157e+01	-3.56851e+01		         0.25167	1.16000e+02	
2.25471   	-3.25691e+01	-4.78600e+01	-3.50841e+01		         0.25333	1.11000e+02	
2.26954   	-3.23723e+01	-4.85180e+01	-3.54140e+01		         0.25500	1.05000e+02	
2.28436   	-3.23593e+01	-4.87129e+01	-3.24090e+01		         0.25667	9.90000e+01	
2.29918   	-3.22948e+01	-4.76148e+01	-3.14753e+01		         0.25833	9.30000e+01	
2.31401   	-3.22152e+01	-4.80446e+01	-2.98312e+01		         0.26000	8.70000e+01	
2.32883   	-3.20877e+01	-4.71623e+01	-2.95733e+01		         0.26167	8.10000e+01	
2.34366   	-3.23160e+01	-4.71357e+01	-2.92666e+01		         0.26333	7.50000e+01	
2.35848   	-3.23535e+01	-4.67425e+01	-2.55117e+01		         0.26500	6.90000e+01	
2.37330   	-3.24234e+01	-4.64409e+01	-2.91234e+01		         0.26667	6.30000e+01	
2.38813   	-3.30327e+01	-4.67734e+01	-2.96538e+01		         0.26833	5.70000e+01	
2.40295   	-3.34260e+01	-4.71620e+01	-2.97524e+01		         0.27000	5.10000e+01	
2.41777   	-3.39428e+01	-4.69648e+01	-3.00157e+01		         0.27167	4.40000e+01	
2.43260   	-3.41715e+01	-4.67581e+01	-2.75816e+01		         0.27333	3.80000e+01	
2.44742   	-3.48021e+01	-4.68114e+01	-2.88416e+01		         0.27500	3.10000e+01	
2.46225   	-3.50393e+01	-4.74650e+01	-3.08475e+01		         0.27667	2.40000e+01	
2.47707   	-3.51081e+01	-4.89887e+01	-3.11081e+01		         0.27833	1.80000e+01	
2.49189   	-3.47983e+01	-4.88169e+01	-3.23684e+01		         0.28000	1.10000e+01	
2.50672   	-3.42319e+01	-4.95294e+01	-3.45789e+01		         0.28167	4.00000e+00	
2.52154   	-3.36926e+01	-5.10660e+01	-3.23906e+01		         0.28333	-2.00000e+00	
2.53636   	-3.35981e+01	-4.96591e+01	-3.21128e+01		         0.28500	-9.00000e+00	
2.55119   	-3.40611e+01	-5.07119e+01	-3.27391e+01		         0.28667	-1.60000e+01	
2.56601   	-3.40021e+01	-5.13335e+01	-3.33904e+01		         0.28833	-2.20000e+01	
2.58084   	-3.45885e+01	-5.03152e+01	-3.43237e+01		         0.29000	-2.80000e+01	
2.59566   	-3.50634e+01	-5.09796e+01	-3.47752e+01		         0.29167	-3.50000e+01	
2.61048   	-3.51576e+01	-5.17473e+01	-3.53348e+01		         0.29333	-4.10000e+01	
2.62531   	-3.52973e+01	-5.09767e+01	-3.59017e+01		         0.29500	-4.70000e+01	
2.64013   	-3.43470e+01	-5.04041e+01	-3.69210e+01		         0.29667	-5.20000e+01	
2.65496   	-3.44944e+01	-5.03699e+01	-3.38813e+01		         0.29833	-5.80000e+01	
2.66978   	-3.32709e+01	-4.97461e+01	-3.55545e+01		         0.30000	-6.30000e+01	
2.68461   	-3.29456e+01	-4.86376e+01	-3.83540e+01		         0.30167	-6.80000e+01	
2.69943   	-3.25451e+01	-4.92648e+01	-4.04684e+01		         0.30333	-7.30000e+01	
2.71425   	-3.22392e+01	-4.81917e+01	-3.89396e+01		         0.30500	-7.70000e+01	
2.72907   	-3.25475e+01	-4.71044e+01	-3.81555e+01		         0.30667	-8.20000e+01	
2.74390   	-3.31090e+01	-4.66770e+01	-3.61622e+01		         0.30833	-8.60000e+01	
2.75872   	-3.20941e+01	-4.71098e+01	-3.49056e+01		         0.31000	-8.90000e+01	
2.77355   	-3.11643e+01	-4.64569e+01	-3.49386e+01		         0.31167	-9.20000e+01	
2.78837   	-3.07992e+01	-4.72017e+01	-3.40542e+01		         0.31333	-9.50000e+01	
2.80319   	-3.04942e+01	-4.68192e+01	-3.40066e+01		         0.31500	-9.70000e+01	
2.81802   	-3.00123e+01	-4.91774e+01	-3.34250e+01		         0.31667	-9.90000e+01	
2.83284   	-2.98670e+01	-4.91990e+01	-3.42361e+01		         0.31833	-1.01000e+02	
2.84767   	-2.98757e+01	-4.88419e+01	-3.46428e+01		         0.32000	-1.02000e+02	
2.86249   	-2.98765e+01	-4.92389e+01	-3.48045e+01		         0.32167	-1.03000e+02	
2.87731   	-3.00244e+01	-4.87226e+01	-3.51982e+01		         0.32333	-1.04000e+02	
2.89214   	-3.01095e+01	-4.81033e+01	-3.55137e+01		         0.32500	-1.04000e+02	
2.90696   	-3.01581e+01	-4.80601e+01	-3.52954e+01		         0.32667	-1.05000e+02	
2.92179   	-3.01083e+01	-4.84141e+01	-3.49696e+01		         0.32833	-1.05000e+02	
2.93661   	-3.01002e+01	-4.81597e+01	-3.46724e+01		         0.33000	-1.05000e+02	
2.95144   	-3.01055e+01	-4.81643e+01	-3.43135e+01		         0.33167	-1.05000e+02	
2.96626   	-3.00832e+01	-4.79083e+01	-3.42169e+01		         0.33333	-1.05000e+02	
2.98108   	-3.00403e+01	-4.68394e+01	-3.42309e+01		         0.33500	-1.04000e+02	
2.99590   	-3.00687e+01	-4.68968e+01	-3.41935e+01		         0.33667	-1.04000e+02	
3.01073   	-3.00678e+01	-4.76327e+01	-3.42076e+01		         0.33833	-1.03000e+02	
3.02555   	-2.99607e+01	-4.81916e+01	-3.42042e+01		         0.34000	-1.02000e+02	
3.04038   	-2.98598e+01	-4.82519e+01	-3.41582e+01		         0.34167	-1.01000e+02	
3.05520   	-2.98159e+01	-4.80098e+01	-3.41943e+01		         0.34333	-1.00000e+02	
3.07002   	-2.97598e+01	-4.74461e+01	-3.42016e+01		         0.34500	-9.80000e+01	
3.08485   	-2.97516e+01	-4.81213e+01	-3.43455e+01		         0.34667	-9.70000e+01	
3.09967   	-2.96300e+01	-4.80717e+01	-3.49933e+01		         0.34833	-9.50000e+01	
3.11449   	-2.93906e+01	-4.74388e+01	-3.39698e+01		         0.35000	-9.30000e+01	
3.12932   	-2.92707e+01	-4.87943e+01	-3.21612e+01		         0.35167	-9.10000e+01	
3.14414   	-2.95352e+01	-4.91779e+01	-3.31957e+01		         0.35333	-8.90000e+01	
3.15897   	-2.95856e+01	-4.89117e+01	-3.35409e+01		         0.35500	-8.70000e+01	
3.17379   	-2.98689e+01	-4.95535e+01	-3.29309e+01		         0.35667	-8.60000e+01	
3.18862   	-3.09407e+01	-4.90921e+01	-3.40706e+01		         0.35833	-8.40000e+01	
3.20344   	-3.15250e+01	-5.01380e+01	-3.51633e+01		         0.36000	-8.20000e+01	
3.21826   	-3.20278e+01	-5.02826e+01	-3.61242e+01		         0.36167	-8.00000e+01	
3.23309   	-3.19494e+01	-5.10078e+01	-3.52343e+01		         0.36333	-7.80000e+01	
3.24791   	-3.15980e+01	-5.05423e+01	-3.61647e+01		         0.36500	-7.60000e+01	
					         0.36667	-7.40000e+01	
					         0.36833	-7.20000e+01	
					         0.37000	-7.00000e+01	
					         0.37167	-6.80000e+01	
					         0.37333	-6.60000e+01	
					         0.37500	-6.40000e+01	
					         0.37667	-6.20000e+01	
					         0.37833	-6.00000e+01	
					         0.38000	-5.70000e+01	
					         0.38167	-5.50000e+01	
					         0.38333	-5.20000e+01	
					         0.38500	-5.00000e+01	
					         0.38667	-4.80000e+01	
					         0.38833	-4.60000e+01	
					         0.39000	-4.40000e+01	
					         0.39167	-4.20000e+01	
					         0.39333	-4.10000e+01	
					         0.39500	-4.00000e+01	
					         0.39667	-3.80000e+01	
					         0.39833	-3.70000e+01	
					         0.40000	-3.60000e+01	
					         0.40167	-3.50000e+01	
					         0.40333	-3.50000e+01	
					         0.40500	-3.40000e+01	
					         0.40667	-3.30000e+01	
					         0.40833	-3.10000e+01	
					         0.41000	-3.00000e+01	
					         0.41167	-2.90000e+01	
					         0.41333	-2.70000e+01	
					         0.41500	-2.60000e+01	
					         0.41667	-2.50000e+01	
					         0.41833	-2.30000e+01	
					         0.42000	-2.20000e+01	
					         0.42167	-2.10000e+01	
					         0.42333	-2.00000e+01	
					         0.42500	-1.90000e+01	
					         0.42667	-1.90000e+01	
					         0.42833	-1.80000e+01	
					         0.43000	-1.80000e+01	
					         0.43167	-1.80000e+01	
					         0.43333	-1.90000e+01	
					         0.43500	-1.90000e+01	
					         0.43667	-2.00000e+01	
					         0.43833	-2.10000e+01	
					         0.44000	-2.10000e+01	
					         0.44167	-2.20000e+01	
					         0.44333	-2.20000e+01	
					         0.44500	-2.20000e+01	
					         0.44667	-2.10000e+01	
					         0.44833	-2.00000e+01	
					         0.45000	-2.00000e+01	
					         0.45167	-1.90000e+01	
					         0.45333	-1.70000e+01	
					         0.45500	-1.60000e+01	
					         0.45667	-1.40000e+01	
					         0.45833	-1.20000e+01	
					         0.46000	-1.00000e+01	
					         0.46167	-8.00000e+00	
					         0.46333	-6.00000e+00	
					         0.46500	-4.00000e+00	
					         0.46667	-2.00000e+00	
					         0.46833	-1.00000e+00	
					         0.47000	0.00000e+00	
					         0.47167	1.00000e+00	
					         0.47333	2.00000e+00	
					         0.47500	3.00000e+00	
					         0.47667	3.00000e+00	
					         0.47833	3.00000e+00	
					         0.48000	3.00000e+00	
					         0.48167	3.00000e+00	
					         0.48333	3.00000e+00	
					         0.48500	3.00000e+00	
					         0.48667	3.00000e+00	
					         0.48833	2.00000e+00	
					         0.49000	2.00000e+00	
					         0.49167	2.00000e+00	
					         0.49333	2.00000e+00	
					         0.49500	2.00000e+00	
					         0.49667	2.00000e+00	
					         0.49833	2.00000e+00	
					         0.50000	2.00000e+00	
					         0.50167	2.00000e+00	
					         0.50333	2.00000e+00	
					         0.50500	2.00000e+00	
					         0.50667	2.00000e+00	
					         0.50833	1.00000e+00	
					         0.51000	1.00000e+00	
					         0.51167	1.00000e+00	
					         0.51333	0.00000e+00	
					         0.51500	0.00000e+00	
					         0.51667	-1.00000e+00	
					         0.51833	-1.00000e+00	
					         0.52000	-2.00000e+00	
					         0.52167	-2.00000e+00	
					         0.52333	-2.00000e+00	
					         0.52500	-3.00000e+00	
					         0.52667	-3.00000e+00	
					         0.52833	-3.00000e+00	
					         0.53000	-2.00000e+00	
					         0.53167	-2.00000e+00	
					         0.53333	-2.00000e+00	
					         0.53500	-2.00000e+00	
					         0.53667	-2.00000e+00	
					         0.53833	-2.00000e+00	
					         0.54000	-2.00000e+00	
					         0.54167	-2.00000e+00	
					         0.54333	-3.00000e+00	
					         0.54500	-3.00000e+00	
					         0.54667	-4.00000e+00	
					         0.54833	-5.00000e+00	
					         0.55000	-6.00000e+00	
					         0.55167	-6.00000e+00	
					         0.55333	-7.00000e+00	
					         0.55500	-8.00000e+00	
					         0.55667	-8.00000e+00	
					         0.55833	-9.00000e+00	
					         0.56000	-9.00000e+00	
					         0.56167	-1.00000e+01	
					         0.56333	-1.00000e+01	
					         0.56500	-1.10000e+01	
					         0.56667	-1.10000e+01	
					         0.56833	-1.10000e+01	
					         0.57000	-1.20000e+01	
					         0.57167	-1.30000e+01	
					         0.57333	-1.30000e+01	
					         0.57500	-1.40000e+01	
					         0.57667	-1.40000e+01	
					         0.57833	-1.50000e+01	
					         0.58000	-1.50000e+01	
					         0.58167	-1.60000e+01	
					         0.58333	-1.60000e+01	
					         0.58500	-1.60000e+01	
					         0.58667	-1.60000e+01	
					         0.58833	-1.50000e+01	
					         0.59000	-1.50000e+01	
					         0.59167	-1.40000e+01	
					         0.59333	-1.40000e+01	
					         0.59500	-1.30000e+01	
					         0.59667	-1.30000e+01	
					         0.59833	-1.30000e+01	
					         0.60000	-1.20000e+01	
					         0.60167	-1.20000e+01	
					         0.60333	-1.10000e+01	
					         0.60500	-1.10000e+01	
					         0.60667	-1.00000e+01	
					         0.60833	-1.00000e+01	
					         0.61000	-1.00000e+01	
					         0.61167	-1.00000e+01	
					         0.61333	-1.00000e+01	
					         0.61500	-1.00000e+01	
					         0.61667	-1.00000e+01	
					         0.61833	-1.00000e+01	
					         0.62000	-1.00000e+01	
					         0.62167	-1.10000e+01	
					         0.62333	-1.10000e+01	
					         0.62500	-1.10000e+01	
					         0.62667	-1.10000e+01	
					         0.62833	-1.10000e+01	
					         0.63000	-1.10000e+01	
					         0.63167	-1.10000e+01	
					         0.63333	-1.00000e+01	
					         0.63500	-1.00000e+01	
					         0.63667	-9.00000e+00	
					         0.63833	-9.00000e+00	
					         0.64000	-8.00000e+00	
					         0.64167	-8.00000e+00	
					         0.64333	-7.00000e+00	
					         0.64500	-7.00000e+00	
					         0.64667	-6.00000e+00	
					         0.64833	-6.00000e+00	
					         0.65000	-6.00000e+00	
					         0.65167	-6.00000e+00	
					         0.65333	-6.00000e+00	
					         0.65500	-6.00000e+00	
					         0.65667	-6.00000e+00	
					         0.65833	-6.00000e+00	
					         0.66000	-7.00000e+00	
					         0.66167	-7.00000e+00	
					         0.66333	-7.00000e+00	
					         0.66500	-7.00000e+00	
					         0.66667	-7.00000e+00	
					         0.66833	-7.00000e+00	
					         0.67000	-8.00000e+00	
					         0.67167	-8.00000e+00	
					         0.67333	-9.00000e+00	
					         0.67500	-9.00000e+00	
					         0.67667	-1.00000e+01	
					         0.67833	-1.10000e+01	
					         0.68000	-1.10000e+01	
					         0.68167	-1.20000e+01	
					         0.68333	-1.20000e+01	
					         0.68500	-1.30000e+01	
					         0.68667	-1.20000e+01	
					         0.68833	-1.20000e+01	
					         0.69000	-1.20000e+01	
					         0.69167	-1.10000e+01	
					         0.69333	-1.00000e+01	
					         0.69500	-1.00000e+01	
					         0.69667	-1.00000e+01	
					         0.69833	-1.00000e+01	
					         0.70000	-1.10000e+01	
					         0.70167	-1.10000e+01	
					         0.70333	-1.20000e+01	
					         0.70500	-1.40000e+01	
					         0.70667	-1.60000e+01	
					         0.70833	-1.80000e+01	
					         0.71000	-2.00000e+01	
					         0.71167	-2.20000e+01	
					         0.71333	-2.40000e+01	
					         0.71500	-2.50000e+01	
					         0.71667	-2.60000e+01	
					         0.71833	-2.70000e+01	
					         0.72000	-2.70000e+01	
					         0.72167	-2.60000e+01	
					         0.72333	-2.60000e+01	
					         0.72500	-2.50000e+01	
					         0.72667	-2.40000e+01	
					         0.72833	-2.20000e+01	
					         0.73000	-2.10000e+01	
					         0.73167	-1.90000e+01	
					         0.73333	-1.80000e+01	
					         0.73500	-1.60000e+01	
					         0.73667	-1.50000e+01	
					         0.73833	-1.40000e+01	
					         0.74000	-1.40000e+01	
					         0.74167	-1.40000e+01	
					         0.74333	-1.40000e+01	
					         0.74500	-1.40000e+01	
					         0.74667	-1.40000e+01	
					         0.74833	-1.40000e+01	
					         0.75000	-1.50000e+01	
					         0.75167	-1.50000e+01	
					         0.75333	-1.50000e+01	
					         0.75500	-1.50000e+01	
					         0.75667	-1.50000e+01	
					         0.75833	-1.50000e+01	
					         0.76000	-1.40000e+01	
					         0.76167	-1.30000e+01	
					         0.76333	-1.20000e+01	
					         0.76500	-1.10000e+01	
					         0.76667	-9.00000e+00	
					         0.76833	-8.00000e+00	
					         0.77000	-6.00000e+00	
					         0.77167	-4.00000e+00	
					         0.77333	-3.00000e+00	
					         0.77500	-2.00000e+00	
					         0.77667	-1.00000e+00	
					         0.77833	0.00000e+00	
					         0.78000	1.00000e+00	
					         0.78167	2.00000e+00	
					         0.78333	2.00000e+00	
					         0.78500	3.00000e+00	
					         0.78667	3.00000e+00	
					         0.78833	3.00000e+00	
					         0.79000	3.00000e+00	
					         0.79167	3.00000e+00	
					         0.79333	2.00000e+00	
					         0.79500	2.00000e+00	
					         0.79667	2.00000e+00	
					         0.79833	1.00000e+00	
					         0.80000	1.00000e+00	
					         0.80167	1.00000e+00	
					         0.80333	1.00000e+00	
					         0.80500	1.00000e+00	
					         0.80667	1.00000e+00	
					         0.80833	1.00000e+00	
					         0.81000	1.00000e+00	
					         0.81167	1.00000e+00	
					         0.81333	1.00000e+00	
					         0.81500	0.00000e+00	
					         0.81667	0.00000e+00	
					         0.81833	-1.00000e+00	
					         0.82000	-2.00000e+00	
					         0.82167	-2.00000e+00	
					         0.82333	-3.00000e+00	
					         0.82500	-4.00000e+00	
					         0.82667	-4.00000e+00	
					         0.82833	-4.00000e+00	
					         0.83000	-4.00000e+00	
					         0.83167	-4.00000e+00	
					         0.83333	-3.00000e+00	
					         0.83500	-2.00000e+00	
					         0.83667	-1.00000e+00	
					         0.83833	1.00000e+00	
					         0.84000	2.00000e+00	
					         0.84167	4.00000e+00	
					         0.84333	6.00000e+00	
					         0.84500	9.00000e+00	
					         0.84667	1.10000e+01	
					         0.84833	1.30000e+01	
					         0.85000	1.50000e+01	
					         0.85167	1.60000e+01	
					         0.85333	1.80000e+01	
					         0.85500	1.90000e+01	
					         0.85667	2.00000e+01	
					         0.85833	2.00000e+01	
					         0.86000	2.10000e+01	
					         0.86167	2.10000e+01	
					         0.86333	2.10000e+01	
					         0.86500	2.10000e+01	
					         0.86667	2.00000e+01	
					         0.86833	2.00000e+01	
					         0.87000	2.00000e+01	
					         0.87167	2.00000e+01	
					         0.87333	2.00000e+01	
					         0.87500	2.00000e+01	
					         0.87667	2.10000e+01	
					         0.87833	2.20000e+01	
					         0.88000	2.30000e+01	
					         0.88167	2.50000e+01	
					         0.88333	2.60000e+01	
					         0.88500	2.80000e+01	
					         0.88667	3.10000e+01	
					         0.88833	3.30000e+01	
					         0.89000	3.50000e+01	
					         0.89167	3.70000e+01	
					         0.89333	3.90000e+01	
					         0.89500	4.10000e+01	
					         0.89667	4.20000e+01	
					         0.89833	4.20000e+01	
					         0.90000	4.20000e+01	
					         0.90167	4.20000e+01	
					         0.90333	4.10000e+01	
					         0.90500	4.00000e+01	
					         0.90667	3.80000e+01	
					         0.90833	3.50000e+01	
					         0.91000	3.30000e+01	
					         0.91167	3.00000e+01	
					         0.91333	2.70000e+01	
					         0.91500	2.40000e+01	
					         0.91667	2.10000e+01	
					         0.91833	1.70000e+01	
					         0.92000	1.40000e+01	
					         0.92167	1.00000e+01	
					         0.92333	7.00000e+00	
					         0.92500	3.00000e+00	
					         0.92667	-1.00000e+00	
					         0.92833	-4.00000e+00	
					         0.93000	-8.00000e+00	
					         0.93167	-1.20000e+01	
					         0.93333	-1.60000e+01	
					         0.93500	-1.90000e+01	
					         0.93667	-2.30000e+01	
					         0.93833	-2.60000e+01	
					         0.94000	-3.00000e+01	
					         0.94167	-3.30000e+01	
					         0.94333	-3.60000e+01	
					         0.94500	-3.90000e+01	
					         0.94667	-4.20000e+01	
					         0.94833	-4.40000e+01	
					         0.95000	-4.70000e+01	
					         0.95167	-4.80000e+01	
					         0.95333	-5.00000e+01	
					         0.95500	-5.10000e+01	
					         0.95667	-5.20000e+01	
					         0.95833	-5.30000e+01	
					         0.96000	-5.40000e+01	
					         0.96167	-5.40000e+01	
					         0.96333	-5.30000e+01	
					         0.96500	-5.30000e+01	
					         0.96667	-5.20000e+01	
					         0.96833	-5.10000e+01	
					         0.97000	-5.00000e+01	
					         0.97167	-4.90000e+01	
					         0.97333	-4.90000e+01	
					         0.97500	-4.80000e+01	
					         0.97667	-4.70000e+01	
					         0.97833	-4.60000e+01	
					         0.98000	-4.50000e+01	
					         0.98167	-4.40000e+01	
					         0.98333	-4.30000e+01	
					         0.98500	-4.20000e+01	
					         0.98667	-4.10000e+01	
					         0.98833	-3.90000e+01	
					         0.99000	-3.80000e+01	
					         0.99167	-3.70000e+01	
					         0.99333	-3.60000e+01	
					         0.99500	-3.50000e+01	
					         0.99667	-3.50000e+01	
					         0.99833	-3.40000e+01	
					         1.00000	-3.40000e+01	
					         1.00167	-3.40000e+01	
					         1.00333	-3.40000e+01	
					         1.00500	-3.40000e+01	
					         1.00667	-3.30000e+01	
					         1.00833	-3.30000e+01	
					         1.01000	-3.30000e+01	
					         1.01167	-3.30000e+01	
					         1.01333	-3.20000e+01	
					         1.01500	-3.20000e+01	
					         1.01667	-3.10000e+01	
					         1.01833	-3.10000e+01	
					         1.02000	-3.00000e+01	
					         1.02167	-3.00000e+01	
					         1.02333	-2.90000e+01	
					         1.02500	-2.90000e+01	
					         1.02667	-2.90000e+01	
					         1.02833	-2.90000e+01	
					         1.03000	-2.90000e+01	
					         1.03167	-2.90000e+01	
					         1.03333	-2.90000e+01	
					         1.03500	-2.90000e+01	
					         1.03667	-2.90000e+01	
					         1.03833	-2.80000e+01	
					         1.04000	-2.70000e+01	
					         1.04167	-2.50000e+01	
					         1.04333	-2.30000e+01	
					         1.04500	-2.00000e+01	
					         1.04667	-1.70000e+01	
					         1.04833	-1.20000e+01	
					         1.05000	-7.00000e+00	
					         1.05167	0.00000e+00	
					         1.05333	8.00000e+00	
					         1.05500	1.80000e+01	
					         1.05667	3.00000e+01	
					         1.05833	4.50000e+01	
					         1.06000	6.40000e+01	
					         1.06167	8.70000e+01	
					         1.06333	1.15000e+02	
					         1.06500	1.46000e+02	
					         1.06667	1.81000e+02	
					         1.06833	2.19000e+02	
					         1.07000	2.58000e+02	
					         1.07167	2.96000e+02	
					         1.07333	3.33000e+02	
					         1.07500	3.65000e+02	
					         1.07667	3.91000e+02	
					         1.07833	4.11000e+02	
					         1.08000	4.22000e+02	
					         1.08167	4.24000e+02	
					         1.08333	4.16000e+02	
					         1.08500	3.98000e+02	
					         1.08667	3.71000e+02	
					         1.08833	3.35000e+02	
					         1.09000	2.92000e+02	
					         1.09167	2.45000e+02	
					         1.09333	1.95000e+02	
					         1.09500	1.45000e+02	
					         1.09667	9.60000e+01	
					         1.09833	4.80000e+01	
					         1.10000	5.00000e+00	
					         1.10167	-3.40000e+01	
					         1.10333	-6.80000e+01	
					         1.10500	-9.60000e+01	
					         1.10667	-1.19000e+02	
					         1.10833	-1.35000e+02	
					         1.11000	-1.46000e+02	
					         1.11167	-1.52000e+02	
					         1.11333	-1.53000e+02	
					         1.11500	-1.51000e+02	
					         1.11667	-1.46000e+02	
					         1.11833	-1.39000e+02	
					         1.12000	-1.31000e+02	
					         1.12167	-1.21000e+02	
					         1.12333	-1.12000e+02	
					         1.12500	-1.02000e+02	
					         1.12667	-9.30000e+01	
					         1.12833	-8.40000e+01	
					         1.13000	-7.70000e+01	
					         1.13167	-7.00000e+01	
					         1.13333	-6.40000e+01	
					         1.13500	-5.90000e+01	
					         1.13667	-5.50000e+01	
					         1.13833	-5.20000e+01	
					         1.14000	-4.90000e+01	
					         1.14167	-4.70000e+01	
					         1.14333	-4.50000e+01	
					         1.14500	-4.30000e+01	
					         1.14667	-4.10000e+01	
					         1.14833	-4.00000e+01	
					         1.15000	-3.80000e+01	
					         1.15167	-3.70000e+01	
					         1.15333	-3.50000e+01	
					         1.15500	-3.30000e+01	
					         1.15667	-3.20000e+01	
					         1.15833	-3.00000e+01	
					         1.16000	-2.80000e+01	
					         1.16167	-2.50000e+01	
					         1.16333	-2.30000e+01	
					         1.16500	-2.10000e+01	
					         1.16667	-1.90000e+01	
					         1.16833	-1.80000e+01	
					         1.17000	-1.60000e+01	
					         1.17167	-1.50000e+01	
					         1.17333	-1.40000e+01	
					         1.17500	-1.30000e+01	
					         1.17667	-1.30000e+01	
					         1.17833	-1.30000e+01	
					         1.18000	-1.30000e+01	
					         1.18167	-1.40000e+01	
					         1.18333	-1.40000e+01	
					         1.18500	-1.50000e+01	
					         1.18667	-1.50000e+01	
					         1.18833	-1.50000e+01	
					         1.19000	-1.60000e+01	
					         1.19167	-1.60000e+01	
					         1.19333	-1.60000e+01	
					         1.19500	-1.60000e+01	
					         1.19667	-1.60000e+01	
					         1.19833	-1.60000e+01	
					         1.20000	-1.60000e+01	
					         1.20167	-1.60000e+01	
					         1.20333	-1.50000e+01	
					         1.20500	-1.40000e+01	
					         1.20667	-1.30000e+01	
					         1.20833	-1.20000e+01	
					         1.21000	-1.10000e+01	
					         1.21167	-1.00000e+01	
					         1.21333	-8.00000e+00	
					         1.21500	-6.00000e+00	
					         1.21667	-4.00000e+00	
					         1.21833	-2.00000e+00	
					         1.22000	0.00000e+00	
					         1.22167	3.00000e+00	
					         1.22333	5.00000e+00	
					         1.22500	8.00000e+00	
					         1.22667	1.00000e+01	
					         1.22833	1.30000e+01	
					         1.23000	1.50000e+01	
					         1.23167	1.70000e+01	
					         1.23333	1.90000e+01	
					         1.23500	2.10000e+01	
					         1.23667	2.30000e+01	
					         1.23833	2.40000e+01	
					         1.24000	2.60000e+01	
					         1.24167	2.70000e+01	
					         1.24333	2.80000e+01	
					         1.24500	3.00000e+01	
					         1.24667	3.10000e+01	
					         1.24833	3.20000e+01	
					         1.25000	3.40000e+01	
					         1.25167	3.60000e+01	
					         1.25333	3.80000e+01	
					         1.25500	4.10000e+01	
					         1.25667	4.40000e+01	
					         1.25833	4.70000e+01	
					         1.26000	5.10000e+01	
					         1.26167	5.40000e+01	
					         1.26333	5.80000e+01	
					         1.26500	6.10000e+01	
					         1.26667	6.50000e+01	
					         1.26833	6.80000e+01	
					         1.27000	7.20000e+01	
					         1.27167	7.50000e+01	
					         1.27333	7.80000e+01	
					         1.27500	8.10000e+01	
					         1.27667	8.30000e+01	
					         1.27833	8.60000e+01	
					         1.28000	8.90000e+01	
					         1.28167	9.10000e+01	
					         1.28333	9.40000e+01	
					         1.28500	9.60000e+01	
					         1.28667	9.80000e+01	
					         1.28833	1.00000e+02	
					         1.29000	1.02000e+02	
					         1.29167	1.04000e+02	
					         1.29333	1.05000e+02	
					         1.29500	1.06000e+02	
					         1.29667	1.08000e+02	
					         1.29833	1.09000e+02	
					         1.30000	1.09000e+02	
					         1.30167	1.10000e+02	
					         1.30333	1.11000e+02	
					         1.30500	1.11000e+02	
					         1.30667	1.12000e+02	
					         1.30833	1.12000e+02	
					         1.31000	1.12000e+02	
					         1.31167	1.13000e+02	
					         1.31333	1.13000e+02	
					         1.31500	1.13000e+02	
					         1.31667	1.12000e+02	
					         1.31833	1.11000e+02	
					         1.32000	1.09000e+02	
					         1.32167	1.07000e+02	
					         1.32333	1.05000e+02	
					         1.32500	1.01000e+02	
					         1.32667	9.70000e+01	
					         1.32833	9.30000e+01	
					         1.33000	8.80000e+01	
					         1.33167	8.30000e+01	
					         1.33333	7.70000e+01	
					         1.33500	7.20000e+01	
					         1.33667	6.60000e+01	
					         1.33833	6.10000e+01	
					         1.34000	5.60000e+01	
					         1.34167	5.00000e+01	
					         1.34333	4.50000e+01	
					         1.34500	4.00000e+01	
					         1.34667	3.50000e+01	
					         1.34833	3.00000e+01	
					         1.35000	2.50000e+01	
					         1.35167	2.00000e+01	
					         1.35333	1.50000e+01	
					         1.35500	9.00000e+00	
					         1.35667	3.00000e+00	
					         1.35833	-3.00000e+00	
					         1.36000	-9.00000e+00	
					         1.36167	-1.60000e+01	
					         1.36333	-2.20000e+01	
					         1.36500	-2.80000e+01	
					         1.36667	-3.40000e+01	
					         1.36833	-4.00000e+01	
					         1.37000	-4.60000e+01	
					         1.37167	-5.10000e+01	
					         1.37333	-5.60000e+01	
					         1.37500	-6.00000e+01	
					         1.37667	-6.40000e+01	
					         1.37833	-6.80000e+01	
					         1.38000	-7.20000e+01	
					         1.38167	-7.50000e+01	
					         1.38333	-7.80000e+01	
					         1.38500	-8.10000e+01	
					         1.38667	-8.30000e+01	
					         1.38833	-8.60000e+01	
					         1.39000	-8.80000e+01	
					         1.39167	-9.00000e+01	
					         1.39333	-9.30000e+01	
					         1.39500	-9.40000e+01	
					         1.39667	-9.60000e+01	
					         1.39833	-9.80000e+01	
					         1.40000	-9.90000e+01	
					         1.40167	-1.00000e+02	
					         1.40333	-1.01000e+02	
					         1.40500	-1.02000e+02	
					         1.40667	-1.03000e+02	
					         1.40833	-1.03000e+02	
					         1.41000	-1.04000e+02	
					         1.41167	-1.04000e+02	
					         1.41333	-1.04000e+02	
					         1.41500	-1.04000e+02	
					         1.41667	-1.04000e+02	
					         1.41833	-1.04000e+02	
					         1.42000	-1.04000e+02	
					         1.42167	-1.04000e+02	
					         1.42333	-1.03000e+02	
					         1.42500	-1.02000e+02	
					         1.42667	-1.01000e+02	
					         1.42833	-1.00000e+02	
					         1.43000	-9.90000e+01	
					         1.43167	-9.70000e+01	
					         1.43333	-9.60000e+01	
					         1.43500	-9.40000e+01	
					         1.43667	-9.30000e+01	
					         1.43833	-9.10000e+01	
					         1.44000	-9.00000e+01	
					         1.44167	-8.80000e+01	
					         1.44333	-8.70000e+01	
					         1.44500	-8.60000e+01	
					         1.44667	-8.40000e+01	
					         1.44833	-8.20000e+01	
					         1.45000	-8.00000e+01	
					         1.45167	-7.80000e+01	
					         1.45333	-7.60000e+01	
					         1.45500	-7.40000e+01	
					         1.45667	-7.10000e+01	
					         1.45833	-6.90000e+01	
					         1.46000	-6.60000e+01	
					         1.46167	-6.30000e+01	
					         1.46333	-6.00000e+01	
					         1.46500	-5.70000e+01	
					         1.46667	-5.50000e+01	
					         1.46833	-5.20000e+01	
					         1.47000	-5.00000e+01	
					         1.47167	-4.70000e+01	
					         1.47333	-4.50000e+01	
					         1.47500	-4.20000e+01	
					         1.47667	-4.00000e+01	
					         1.47833	-3.80000e+01	
					         1.48000	-3.60000e+01	
					         1.48167	-3.40000e+01	
					         1.48333	-3.10000e+01	
					         1.48500	-2.90000e+01	
					         1.48667	-2.70000e+01	
					         1.48833	-2.50000e+01	
					         1.49000	-2.30000e+01	
					         1.49167	-2.10000e+01	
					         1.49333	-1.90000e+01	
					         1.49500	-1.70000e+01	
					         1.49667	-1.60000e+01	
					         1.49833	-1.40000e+01	
					         1.50000	-1.30000e+01	
					         1.50167	-1.20000e+01	
					         1.50333	-1.10000e+01	
					         1.50500	-1.10000e+01	
					         1.50667	-1.00000e+01	
					         1.50833	-9.00000e+00	
					         1.51000	-8.00000e+00	
					         1.51167	-7.00000e+00	
					         1.51333	-6.00000e+00	
					         1.51500	-5.00000e+00	
					         1.51667	-4.00000e+00	
					         1.51833	-2.00000e+00	
					         1.52000	0.00000e+00	
					         1.52167	2.00000e+00	
					         1.52333	4.00000e+00	
					         1.52500	6.00000e+00	
					         1.52667	8.00000e+00	
					         1.52833	1.00000e+01	
					         1.53000	1.20000e+01	
					         1.53167	1.30000e+01	
					         1.53333	1.50000e+01	
					         1.53500	1.50000e+01	
					         1.53667	1.60000e+01	
					         1.53833	1.70000e+01	
					         1.54000	1.70000e+01	
					         1.54167	1.70000e+01	
					         1.54333	1.60000e+01	
					         1.54500	1.50000e+01	
					         1.54667	1.40000e+01	
					         1.54833	1.30000e+01	
					         1.55000	1.20000e+01	
					         1.55167	1.10000e+01	
					         1.55333	1.00000e+01	
					         1.55500	9.00000e+00	
					         1.55667	8.00000e+00	
					         1.55833	7.00000e+00	
					         1.56000	7.00000e+00	
					         1.56167	6.00000e+00	
					         1.56333	5.00000e+00	
					         1.56500	4.00000e+00	
					         1.56667	4.00000e+00	
					         1.56833	3.00000e+00	
					         1.57000	3.00000e+00	
					         1.57167	2.00000e+00	
					         1.57333	2.00000e+00	
					         1.57500	2.00000e+00	
					         1.57667	1.00000e+00	
					         1.57833	1.00000e+00	
					         1.58000	0.00000e+00	
					         1.58167	0.00000e+00	
					         1.58333	-1.00000e+00	
					         1.58500	-1.00000e+00	
					         1.58667	-1.00000e+00	
					         1.58833	-2.00000e+00	
					         1.59000	-2.00000e+00	
					         1.59167	-3.00000e+00	
					         1.59333	-3.00000e+00	
					         1.59500	-3.00000e+00	
					         1.59667	-4.00000e+00	
					         1.59833	-4.00000e+00	
					         1.60000	-4.00000e+00	
					         1.60167	-4.00000e+00	
					         1.60333	-4.00000e+00	
					         1.60500	-4.00000e+00	
					         1.60667	-4.00000e+00	
					         1.60833	-4.00000e+00	
					         1.61000	-4.00000e+00	
					         1.61167	-4.00000e+00	
					         1.61333	-4.00000e+00	
					         1.61500	-4.00000e+00	
					         1.61667	-4.00000e+00	
					         1.61833	-4.00000e+00	
					         1.62000	-4.00000e+00	
					         1.62167	-5.00000e+00	
					         1.62333	-6.00000e+00	
					         1.62500	-7.00000e+00	
					         1.62667	-8.00000e+00	
					         1.62833	-9.00000e+00	
					         1.63000	-1.10000e+01	
					         1.63167	-1.20000e+01	
					         1.63333	-1.40000e+01	
					         1.63500	-1.50000e+01	
					         1.63667	-1.70000e+01	
					         1.63833	-1.90000e+01	
					         1.64000	-2.00000e+01	
					         1.64167	-2.10000e+01	
					         1.64333	-2.20000e+01	
					         1.64500	-2.30000e+01	
					         1.64667	-2.40000e+01	
					         1.64833	-2.40000e+01	
					         1.65000	-2.40000e+01	
					         1.65167	-2.40000e+01	
					         1.65333	-2.40000e+01	
					         1.65500	-2.40000e+01	
					         1.65667	-2.40000e+01	
					         1.65833	-2.30000e+01	
					         1.66000	-2.30000e+01	
					         1.66167	-2.20000e+01	
					         1.66333	-2.20000e+01	
					         1.66500	-2.20000e+01	
					         1.66667	-2.10000e+01	
					         1.66833	-2.10000e+01	
					         1.67000	-2.10000e+01	
					         1.67167	-2.10000e+01	
					         1.67333	-2.10000e+01	
					         1.67500	-2.00000e+01	
					         1.67667	-2.00000e+01	
					         1.67833	-2.00000e+01	
					         1.68000	-2.00000e+01	
					         1.68167	-1.90000e+01	
					         1.68333	-1.90000e+01	
					         1.68500	-1.90000e+01	
					         1.68667	-1.90000e+01	
					         1.68833	-1.90000e+01	
					         1.69000	-1.90000e+01	
					         1.69167	-1.90000e+01	
					         1.69333	-2.00000e+01	
					         1.69500	-2.00000e+01	
					         1.69667	-2.00000e+01	
					         1.69833	-2.10000e+01	
					         1.70000	-2.10000e+01	
					         1.70167	-2.10000e+01	
					         1.70333	-2.10000e+01	
					         1.70500	-2.10000e+01	
					         1.70667	-2.10000e+01	
					         1.70833	-2.10000e+01	
					         1.71000	-2.10000e+01	
					         1.71167	-2.00000e+01	
					         1.71333	-2.00000e+01	
					         1.71500	-1.90000e+01	
					         1.71667	-1.90000e+01	
					         1.71833	-1.80000e+01	
					         1.72000	-1.80000e+01	
					         1.72167	-1.70000e+01	
					         1.72333	-1.70000e+01	
					         1.72500	-1.70000e+01	
					         1.72667	-1.70000e+01	
					         1.72833	-1.70000e+01	
					         1.73000	-1.80000e+01	
					         1.73167	-1.80000e+01	
					         1.73333	-1.90000e+01	
					         1.73500	-2.00000e+01	
					         1.73667	-2.10000e+01	
					         1.73833	-2.20000e+01	
					         1.74000	-2.30000e+01	
					         1.74167	-2.40000e+01	
					         1.74333	-2.50000e+01	
					         1.74500	-2.60000e+01	
					         1.74667	-2.70000e+01	
					         1.74833	-2.80000e+01	
					         1.75000	-2.80000e+01	
					         1.75167	-2.80000e+01	
					         1.75333	-2.80000e+01	
					         1.75500	-2.70000e+01	
					         1.75667	-2.60000e+01	
					         1.75833	-2.50000e+01	
					         1.76000	-2.30000e+01	
					         1.76167	-2.20000e+01	
					         1.76333	-2.00000e+01	
					         1.76500	-1.80000e+01	
					         1.76667	-1.60000e+01	
					         1.76833	-1.50000e+01	
					         1.77000	-1.40000e+01	
					         1.77167	-1.30000e+01	
					         1.77333	-1.30000e+01	
					         1.77500	-1.30000e+01	
					         1.77667	-1.40000e+01	
					         1.77833	-1.40000e+01	
					         1.78000	-1.50000e+01	
					         1.78167	-1.70000e+01	
					         1.78333	-1.80000e+01	
					         1.78500	-1.90000e+01	
					         1.78667	-2.10000e+01	
					         1.78833	-2.20000e+01	
					         1.79000	-2.30000e+01	
					         1.79167	-2.30000e+01	
					         1.79333	-2.30000e+01	
					         1.79500	-2.30000e+01	
					         1.79667	-2.30000e+01	
					         1.79833	-2.20000e+01	
					         1.80000	-2.10000e+01	
					         1.80167	-2.00000e+01	
					         1.80333	-1.90000e+01	
					         1.80500	-1.70000e+01	
					         1.80667	-1.60000e+01	
					         1.80833	-1.50000e+01	
					         1.81000	-1.30000e+01	
					         1.81167	-1.20000e+01	
					         1.81333	-1.10000e+01	
					         1.81500	-1.10000e+01	
					         1.81667	-1.00000e+01	
					         1.81833	-1.00000e+01	
					         1.82000	-9.00000e+00	
					         1.82167	-9.00000e+00	
					         1.82333	-9.00000e+00	
					         1.82500	-1.00000e+01	
					         1.82667	-1.00000e+01	
					         1.82833	-1.00000e+01	
					         1.83000	-1.10000e+01	
					         1.83167	-1.10000e+01	
					         1.83333	-1.20000e+01	
					         1.83500	-1.20000e+01	
					         1.83667	-1.20000e+01	
					         1.83833	-1.20000e+01	
					         1.84000	-1.20000e+01	
					         1.84167	-1.20000e+01	
					         1.84333	-1.10000e+01	
					         1.84500	-1.10000e+01	
					         1.84667	-1.10000e+01	
					         1.84833	-1.10000e+01	
					         1.85000	-1.10000e+01	
					         1.85167	-1.10000e+01	
					         1.85333	-1.10000e+01	
					         1.85500	-1.20000e+01	
					         1.85667	-1.20000e+01	
					         1.85833	-1.30000e+01	
					         1.86000	-1.30000e+01	
					         1.86167	-1.30000e+01	
					         1.86333	-1.40000e+01	
					         1.86500	-1.40000e+01	
					         1.86667	-1.40000e+01	
					         1.86833	-1.40000e+01	
					         1.87000	-1.40000e+01	
					         1.87167	-1.30000e+01	
					         1.87333	-1.30000e+01	
					         1.87500	-1.20000e+01	
					         1.87667	-1.20000e+01	
					         1.87833	-1.10000e+01	
					         1.88000	-1.00000e+01	
					         1.88167	-9.00000e+00	
					         1.88333	-8.00000e+00	
					         1.88500	-6.00000e+00	
					         1.88667	-5.00000e+00	
					         1.88833	-4.00000e+00	
					         1.89000	-2.00000e+00	
					         1.89167	-1.00000e+00	
					         1.89333	1.00000e+00	
					         1.89500	2.00000e+00	
					         1.89667	4.00000e+00	
					         1.89833	5.00000e+00	
					         1.90000	6.00000e+00	
					         1.90167	7.00000e+00	
					         1.90333	8.00000e+00	
					         1.90500	9.00000e+00	
					         1.90667	1.00000e+01	
					         1.90833	1.10000e+01	
					         1.91000	1.20000e+01	
					         1.91167	1.30000e+01	
					         1.91333	1.40000e+01	
					         1.91500	1.50000e+01	
					         1.91667	1.60000e+01	
					         1.91833	1.70000e+01	
					         1.92000	1.80000e+01	
					         1.92167	1.80000e+01	
					         1.92333	1.90000e+01	
					         1.92500	2.00000e+01	
					         1.92667	2.00000e+01	
					         1.92833	2.00000e+01	
					         1.93000	2.10000e+01	
					         1.93167	2.10000e+01	
					         1.93333	2.00000e+01	
					         1.93500	2.00000e+01	
					         1.93667	1.90000e+01	
					         1.93833	1.90000e+01	
					         1.94000	1.80000e+01	
					         1.94167	1.80000e+01	
					         1.94333	1.70000e+01	
					         1.94500	1.70000e+01	
					         1.94667	1.70000e+01	
					         1.94833	1.60000e+01	
					         1.95000	1.60000e+01	
					         1.95167	1.60000e+01	
					         1.95333	1.60000e+01	
					         1.95500	1.60000e+01	
					         1.95667	1.70000e+01	
					         1.95833	1.70000e+01	
					         1.96000	1.70000e+01	
					         1.96167	1.80000e+01	
					         1.96333	1.90000e+01	
					         1.96500	2.00000e+01	
					         1.96667	2.10000e+01	
					         1.96833	2.20000e+01	
					         1.97000	2.30000e+01	
					         1.97167	2.40000e+01	
					         1.97333	2.50000e+01	
					         1.97500	2.70000e+01	
					         1.97667	2.80000e+01	
					         1.97833	2.90000e+01	
					         1.98000	3.00000e+01	
					         1.98167	3.10000e+01	
					         1.98333	3.20000e+01	
					         1.98500	3.30000e+01	
					         1.98667	3.30000e+01	
					         1.98833	3.40000e+01	
					         1.99000	3.30000e+01	
					         1.99167	3.30000e+01	
					         1.99333	3.20000e+01	
					         1.99500	3.00000e+01	
					         1.99667	2.80000e+01	
					         1.99833	2.60000e+01	
					         2.00000	2.30000e+01	
					         2.00167	2.00000e+01	
					         2.00333	1.70000e+01	
					         2.00500	1.30000e+01	
					         2.00667	9.00000e+00	
					         2.00833	5.00000e+00	
					         2.01000	2.00000e+00	
					         2.01167	-2.00000e+00	
					         2.01333	-6.00000e+00	
					         2.01500	-9.00000e+00	
					         2.01667	-1.20000e+01	
					         2.01833	-1.60000e+01	
					         2.02000	-1.90000e+01	
					         2.02167	-2.10000e+01	
					         2.02333	-2.40000e+01	
					         2.02500	-2.70000e+01	
					         2.02667	-2.90000e+01	
					         2.02833	-3.10000e+01	
					         2.03000	-3.40000e+01	
					         2.03167	-3.60000e+01	
					         2.03333	-3.70000e+01	
					         2.03500	-3.90000e+01	
					         2.03667	-4.00000e+01	
					         2.03833	-4.10000e+01	
					         2.04000	-4.20000e+01	
					         2.04167	-4.20000e+01	
					         2.04333	-4.20000e+01	
					         2.04500	-4.20000e+01	
					         2.04667	-4.20000e+01	
					         2.04833	-4.10000e+01	
					         2.05000	-4.10000e+01	
					         2.05167	-4.00000e+01	
					         2.05333	-3.80000e+01	
					         2.05500	-3.70000e+01	
					         2.05667	-3.60000e+01	
					         2.05833	-3.40000e+01	
					         2.06000	-3.30000e+01	
					         2.06167	-3.10000e+01	
					         2.06333	-3.00000e+01	
					         2.06500	-2.80000e+01	
					         2.06667	-2.70000e+01	
					         2.06833	-2.50000e+01	
					         2.07000	-2.40000e+01	
					         2.07167	-2.20000e+01	
					         2.07333	-2.10000e+01	
					         2.07500	-2.00000e+01	
					         2.07667	-1.90000e+01	
					         2.07833	-1.80000e+01	
					         2.08000	-1.80000e+01	
					         2.08167	-1.80000e+01	
					         2.08333	-1.70000e+01	
					         2.08500	-1.70000e+01	
					         2.08667	-1.70000e+01	
					         2.08833	-1.70000e+01	
					         2.09000	-1.80000e+01	
					         2.09167	-1.80000e+01	
					         2.09333	-1.80000e+01	
					         2.09500	-1.90000e+01	
					         2.09667	-1.90000e+01	
					         2.09833	-1.90000e+01	
					         2.10000	-1.90000e+01	
					         2.10167	-2.00000e+01	
					         2.10333	-2.00000e+01	
					         2.10500	-2.00000e+01	
					         2.10667	-2.10000e+01	
					         2.10833	-2.20000e+01	
					         2.11000	-2.30000e+01	
					         2.11167	-2.40000e+01	
					         2.11333	-2.50000e+01	
					         2.11500	-2.70000e+01	
					         2.11667	-2.90000e+01	
					         2.11833	-3.00000e+01	
					         2.12000	-3.20000e+01	
					         2.12167	-3.30000e+01	
					         2.12333	-3.40000e+01	
					         2.12500	-3.50000e+01	
					         2.12667	-3.60000e+01	
					         2.12833	-3.50000e+01	
					         2.13000	-3.40000e+01	
					         2.13167	-3.20000e+01	
					         2.13333	-2.90000e+01	
					         2.13500	-2.50000e+01	
					         2.13667	-2.00000e+01	
					         2.13833	-1.30000e+01	
					         2.14000	-5.00000e+00	
					         2.14167	6.00000e+00	
					         2.14333	2.00000e+01	
					         2.14500	3.70000e+01	
					         2.14667	5.90000e+01	
					         2.14833	8.50000e+01	
					         2.15000	1.16000e+02	
					         2.15167	1.50000e+02	
					         2.15333	1.87000e+02	
					         2.15500	2.26000e+02	
					         2.15667	2.64000e+02	
					         2.15833	3.01000e+02	
					         2.16000	3.34000e+02	
					         2.16167	3.62000e+02	
					         2.16333	3.84000e+02	
					         2.16500	3.97000e+02	
					         2.16667	4.01000e+02	
					         2.16833	3.96000e+02	
					         2.17000	3.80000e+02	
					         2.17167	3.55000e+02	
					         2.17333	3.22000e+02	
					         2.17500	2.81000e+02	
					         2.17667	2.36000e+02	
					         2.17833	1.88000e+02	
					         2.18000	1.40000e+02	
					         2.18167	9.10000e+01	
					         2.18333	4.50000e+01	
					         2.18500	2.00000e+00	
					         2.18667	-3.70000e+01	
					         2.18833	-7.10000e+01	
					         2.19000	-1.00000e+02	
					         2.19167	-1.22000e+02	
					         2.19333	-1.39000e+02	
					         2.19500	-1.51000e+02	
					         2.19667	-1.58000e+02	
					         2.19833	-1.60000e+02	
					         2.20000	-1.59000e+02	
					         2.20167	-1.54000e+02	
					         2.20333	-1.48000e+02	
					         2.20500	-1.40000e+02	
					         2.20667	-1.31000e+02	
					         2.20833	-1.21000e+02	
					         2.21000	-1.12000e+02	
					         2.21167	-1.03000e+02	
					         2.21333	-9.50000e+01	
					         2.21500	-8.80000e+01	
					         2.21667	-8.20000e+01	
					         2.21833	-7.70000e+01	
					         2.22000	-7.20000e+01	
					         2.22167	-6.90000e+01	
					         2.22333	-6.60000e+01	
					         2.22500	-6.40000e+01	
					         2.22667	-6.20000e+01	
					         2.22833	-6.00000e+01	
					         2.23000	-5.90000e+01	
					         2.23167	-5.80000e+01	
					         2.23333	-5.60000e+01	
					         2.23500	-5.50000e+01	
					         2.23667	-5.40000e+01	
					         2.23833	-5.30000e+01	
					         2.24000	-5.20000e+01	
					         2.24167	-5.00000e+01	
					         2.24333	-4.90000e+01	
					         2.24500	-4.80000e+01	
					         2.24667	-4.60000e+01	
					         2.24833	-4.50000e+01	
					         2.25000	-4.30000e+01	
					         2.25167	-4.10000e+01	
					         2.25333	-4.00000e+01	
					         2.25500	-3.80000e+01	
					         2.25667	-3.60000e+01	
					         2.25833	-3.50000e+01	
					         2.26000	-3.30000e+01	
					         2.26167	-3.10000e+01	
					         2.26333	-3.00000e+01	
					         2.26500	-2.80000e+01	
					         2.26667	-2.60000e+01	
					         2.26833	-2.50000e+01	
					         2.27000	-2.30000e+01	
					         2.27167	-2.10000e+01	
					         2.27333	-2.00000e+01	
					         2.27500	-1.90000e+01	
					         2.27667	-1.80000e+01	
					         2.27833	-1.80000e+01	
					         2.28000	-1.70000e+01	
					         2.28167	-1.70000e+01	
					         2.28333	-1.70000e+01	
					         2.28500	-1.70000e+01	
					         2.28667	-1.60000e+01	
					         2.28833	-1.60000e+01	
					         2.29000	-1.50000e+01	
					         2.29167	-1.50000e+01	
					         2.29333	-1.40000e+01	
					         2.29500	-1.20000e+01	
					         2.29667	-1.10000e+01	
					         2.29833	-9.00000e+00	
					         2.30000	-6.00000e+00	
					         2.30167	-4.00000e+00	
					         2.30333	-1.00000e+00	
					         2.30500	1.00000e+00	
					         2.30667	4.00000e+00	
					         2.30833	6.00000e+00	
					         2.31000	9.00000e+00	
					         2.31167	1.10000e+01	
					         2.31333	1.30000e+01	
					         2.31500	1.50000e+01	
					         2.31667	1.70000e+01	
					         2.31833	1.90000e+01	
					         2.32000	2.10000e+01	
					         2.32167	2.30000e+01	
					         2.32333	2.50000e+01	
					         2.32500	2.70000e+01	
					         2.32667	2.90000e+01	
					         2.32833	3.10000e+01	
					         2.33000	3.30000e+01	
					         2.33167	3.50000e+01	
					         2.33333	3.80000e+01	
					         2.33500	4.00000e+01	
					         2.33667	4.30000e+01	
					         2.33833	4.50000e+01	
					         2.34000	4.80000e+01	
					         2.34167	5.10000e+01	
					         2.34333	5.30000e+01	
					         2.34500	5.60000e+01	
					         2.34667	5.90000e+01	
					         2.34833	6.20000e+01	
					         2.35000	6.50000e+01	
					         2.35167	6.80000e+01	
					         2.35333	7.10000e+01	
					         2.35500	7.40000e+01	
					         2.35667	7.70000e+01	
					         2.35833	8.00000e+01	
					         2.36000	8.30000e+01	
					         2.36167	8.50000e+01	
					         2.36333	8.80000e+01	
					         2.36500	9.10000e+01	
					         2.36667	9.30000e+01	
					         2.36833	9.60000e+01	
					         2.37000	9.80000e+01	
					         2.37167	1.00000e+02	
					         2.37333	1.03000e+02	
					         2.37500	1.05000e+02	
					         2.37667	1.07000e+02	
					         2.37833	1.09000e+02	
					         2.38000	1.11000e+02	
					         2.38167	1.13000e+02	
					         2.38333	1.15000e+02	
					         2.38500	1.16000e+02	
					         2.38667	1.17000e+02	
					         2.38833	1.19000e+02	
					         2.39000	1.19000e+02	
					         2.39167	1.20000e+02	
					         2.39333	1.20000e+02	
					         2.39500	1.20000e+02	
					         2.39667	1.19000e+02	
					         2.39833	1.19000e+02	
					         2.40000	1.18000e+02	
					         2.40167	1.16000e+02	
					         2.40333	1.14000e+02	
					         2.40500	1.12000e+02	
					         2.40667	1.09000e+02	
					         2.40833	1.06000e+02	
					         2.41000	1.03000e+02	
					         2.41167	9.90000e+01	
					         2.41333	9.50000e+01	
					         2.41500	9.00000e+01	
					         2.41667	8.60000e+01	
					         2.41833	8.00000e+01	
					         2.42000	7.50000e+01	
					         2.42167	6.90000e+01	
					         2.42333	6.40000e+01	
					         2.42500	5.80000e+01	
					         2.42667	5.10000e+01	
					         2.42833	4.50000e+01	
					         2.43000	3.90000e+01	
					         2.43167	3.30000e+01	
					         2.43333	2.70000e+01	
					         2.43500	2.00000e+01	
					         2.43667	1.40000e+01	
					         2.43833	7.00000e+00	
					         2.44000	1.00000e+00	
					         2.44167	-6.00000e+00	
					         2.44333	-1.20000e+01	
					         2.44500	-1.90000e+01	
					         2.44667	-2.60000e+01	
					         2.44833	-3.30000e+01	
					         2.45000	-4.00000e+01	
					         2.45167	-4.60000e+01	
					         2.45333	-5.30000e+01	
					         2.45500	-6.00000e+01	
					         2.45667	-6.60000e+01	
					         2.45833	-7.20000e+01	
					         2.46000	-7.80000e+01	
					         2.46167	-8.40000e+01	
					         2.46333	-9.00000e+01	
					         2.46500	-9.50000e+01	
					         2.46667	-1.00000e+02	
					         2.46833	-1.05000e+02	
					         2.47000	-1.09000e+02	
					         2.47167	-1.12000e+02	
					         2.47333	-1.16000e+02	
					         2.47500	-1.19000e+02	
					         2.47667	-1.21000e+02	
					         2.47833	-1.24000e+02	
					         2.48000	-1.25000e+02	
					         2.48167	-1.27000e+02	
					         2.48333	-1.28000e+02	
					         2.48500	-1.28000e+02	
					         2.48667	-1.29000e+02	
					         2.48833	-1.29000e+02	
					         2.49000	-1.29000e+02	
					         2.49167	-1.29000e+02	
					         2.49333	-1.28000e+02	
					         2.49500	-1.28000e+02	
					         2.49667	-1.28000e+02	
					         2.49833	-1.27000e+02	
					         2.50000	-1.26000e+02	
					         2.50167	-1.25000e+02	
					         2.50333	-1.25000e+02	
					         2.50500	-1.24000e+02	
					         2.50667	-1.22000e+02	
					         2.50833	-1.21000e+02	
					         2.51000	-1.20000e+02	
					         2.51167	-1.18000e+02	
					         2.51333	-1.17000e+02	
					         2.51500	-1.15000e+02	
					         2.51667	-1.14000e+02	
					         2.51833	-1.12000e+02	
					         2.52000	-1.11000e+02	
					         2.52167	-1.09000e+02	
					         2.52333	-1.07000e+02	
					         2.52500	-1.06000e+02	
					         2.52667	-1.05000e+02	
					         2.52833	-1.03000e+02	
					         2.53000	-1.02000e+02	
					         2.53167	-1.01000e+02	
					         2.53333	-9.90000e+01	
					         2.53500	-9.80000e+01	
					         2.53667	-9.70000e+01	
					         2.53833	-9.60000e+01	
					         2.54000	-9.50000e+01	
					         2.54167	-9.40000e+01	
					         2.54333	-9.40000e+01	
					         2.54500	-9.30000e+01	
					         2.54667	-9.20000e+01	
					         2.54833	-9.10000e+01	
					         2.55000	-8.90000e+01	
					         2.55167	-8.80000e+01	
					         2.55333	-8.60000e+01	
					         2.55500	-8.40000e+01	
					         2.55667	-8.30000e+01	
					         2.55833	-8.10000e+01	
					         2.56000	-7.90000e+01	
					         2.56167	-7.70000e+01	
					         2.56333	-7.40000e+01	
					         2.56500	-7.30000e+01	
					         2.56667	-7.10000e+01	
					         2.56833	-6.90000e+01	
					         2.57000	-6.80000e+01	
					         2.57167	-6.60000e+01	
					         2.57333	-6.50000e+01	
					         2.57500	-6.30000e+01	
					         2.57667	-6.20000e+01	
					         2.57833	-6.10000e+01	
					         2.58000	-5.90000e+01	
					         2.58167	-5.80000e+01	
					         2.58333	-5.70000e+01	
					         2.58500	-5.60000e+01	
					         2.58667	-5.40000e+01	
					         2.58833	-5.30000e+01	
					         2.59000	-5.20000e+01	
					         2.59167	-5.10000e+01	
					         2.59333	-5.10000e+01	
					         2.59500	-5.10000e+01	
					         2.59667	-5.10000e+01	
					         2.59833	-5.10000e+01	
					         2.60000	-5.10000e+01	
					         2.60167	-5.10000e+01	
					         2.60333	-5.10000e+01	
					         2.60500	-5.10000e+01	
					         2.60667	-5.10000e+01	
					         2.60833	-5.10000e+01	
					         2.61000	-5.10000e+01	
					         2.61167	-5.10000e+01	
					         2.61333	-5.10000e+01	
					         2.61500	-5.00000e+01	
					         2.61667	-5.00000e+01	
					         2.61833	-4.90000e+01	
					         2.62000	-4.80000e+01	
					         2.62167	-4.70000e+01	
					         2.62333	-4.60000e+01	
					         2.62500	-4.50000e+01	
					         2.62667	-4.30000e+01	
					         2.62833	-4.20000e+01	
					         2.63000	-4.10000e+01	
					         2.63167	-4.00000e+01	
					         2.63333	-3.90000e+01	
					         2.63500	-3.80000e+01	
					         2.63667	-3.80000e+01	
					         2.63833	-3.70000e+01	
					         2.64000	-3.70000e+01	
					         2.64167	-3.80000e+01	
					         2.64333	-3.80000e+01	
					         2.64500	-3.80000e+01	
					         2.64667	-3.90000e+01	
					         2.64833	-3.90000e+01	
					         2.65000	-4.00000e+01	
					         2.65167	-4.00000e+01	
					         2.65333	-4.00000e+01	
					         2.65500	-4.00000e+01	
					         2.65667	-4.00000e+01	
					         2.65833	-4.00000e+01	
					         2.66000	-4.00000e+01	
					         2.66167	-3.90000e+01	
					         2.66333	-3.90000e+01	
					         2.66500	-3.90000e+01	
					         2.66667	-3.80000e+01	
					         2.66833	-3.80000e+01	
					         2.67000	-3.70000e+01	
					         2.67167	-3.70000e+01	
					         2.67333	-3.70000e+01	
					         2.67500	-3.70000e+01	
					         2.67667	-3.70000e+01	
					         2.67833	-3.70000e+01	
					         2.68000	-3.70000e+01	
					         2.68167	-3.60000e+01	
					         2.68333	-3.60000e+01	
					         2.68500	-3.60000e+01	
					         2.68667	-3.50000e+01	
					         2.68833	-3.50000e+01	
					         2.69000	-3.50000e+01	
					         2.69167	-3.40000e+01	
					         2.69333	-3.40000e+01	
					         2.69500	-3.30000e+01	
					         2.69667	-3.20000e+01	
					         2.69833	-3.10000e+01	
					         2.70000	-3.10000e+01	
					         2.70167	-3.00000e+01	
					         2.70333	-2.80000e+01	
					         2.70500	-2.70000e+01	
					         2.70667	-2.60000e+01	
					         2.70833	-2.50000e+01	
					         2.71000	-2.30000e+01	
					         2.71167	-2.20000e+01	
					         2.71333	-2.00000e+01	
					         2.71500	-1.90000e+01	
					         2.71667	-1.80000e+01	
					         2.71833	-1.70000e+01	
					         2.72000	-1.60000e+01	
					         2.72167	-1.50000e+01	
					         2.72333	-1.50000e+01	
					         2.72500	-1.50000e+01	
					         2.72667	-1.50000e+01	
					         2.72833	-1.60000e+01	
					         2.73000	-1.60000e+01	
					         2.73167	-1.70000e+01	
					         2.73333	-1.70000e+01	
					         2.73500	-1.80000e+01	
					         2.73667	-1.80000e+01	
					         2.73833	-1.90000e+01	
					         2.74000	-1.90000e+01	
					         2.74167	-2.00000e+01	
					         2.74333	-2.00000e+01	
					         2.74500	-1.90000e+01	
					         2.74667	-1.90000e+01	
					         2.74833	-1.90000e+01	
					         2.75000	-1.80000e+01	
					         2.75167	-1.70000e+01	
					         2.75333	-1.60000e+01	
					         2.75500	-1.50000e+01	
					         2.75667	-1.40000e+01	
					         2.75833	-1.30000e+01	
					         2.76000	-1.20000e+01	
					         2.76167	-1.20000e+01	
					         2.76333	-1.10000e+01	
					         2.76500	-1.10000e+01	
					         2.76667	-1.00000e+01	
					         2.76833	-1.00000e+01	
					         2.77000	-1.00000e+01	
					         2.77167	-1.00000e+01	
					         2.77333	-1.00000e+01	
					         2.77500	-9.00000e+00	
					         2.77667	-9.00000e+00	
					         2.77833	-9.00000e+00	
					         2.78000	-8.00000e+00	
					         2.78167	-8.00000e+00	
					         2.78333	-7.00000e+00	
					         2.78500	-6.00000e+00	
					         2.78667	-5.00000e+00	
					         2.78833	-5.00000e+00	
					         2.79000	-4.00000e+00	
					         2.79167	-4.00000e+00	
					         2.79333	-3.00000e+00	
					         2.79500	-3.00000e+00	
					         2.79667	-3.00000e+00	
					         2.79833	-2.00000e+00	
					         2.80000	-2.00000e+00	
					         2.80167	-2.00000e+00	
					         2.80333	-2.00000e+00	
					         2.80500	-2.00000e+00	
					         2.80667	-2.00000e+00	
					         2.80833	-2.00000e+00	
					         2.81000	-1.00000e+00	
					         2.81167	-1.00000e+00	
					         2.81333	0.00000e+00	
					         2.81500	0.00000e+00	
					         2.81667	1.00000e+00	
					         2.81833	2.00000e+00	
					         2.82000	2.00000e+00	
					         2.82167	3.00000e+00	
					         2.82333	4.00000e+00	
					         2.82500	4.00000e+00	
					         2.82667	5.00000e+00	
					         2.82833	5.00000e+00	
					         2.83000	6.00000e+00	
					         2.83167	6.00000e+00	
					         2.83333	7.00000e+00	
					         2.83500	7.00000e+00	
					         2.83667	8.00000e+00	
					         2.83833	8.00000e+00	
					         2.84000	8.00000e+00	
					         2.84167	8.00000e+00	
					         2.84333	8.00000e+00	
					         2.84500	8.00000e+00	
					         2.84667	8.00000e+00	
					         2.84833	8.00000e+00	
					         2.85000	8.00000e+00	
					         2.85167	8.00000e+00	
					         2.85333	7.00000e+00	
					         2.85500	7.00000e+00	
					         2.85667	7.00000e+00	
					         2.85833	6.00000e+00	
					         2.86000	6.00000e+00	
					         2.86167	5.00000e+00	
					         2.86333	5.00000e+00	
					         2.86500	4.00000e+00	
					         2.86667	4.00000e+00	
					         2.86833	3.00000e+00	
					         2.87000	3.00000e+00	
					         2.87167	2.00000e+00	
					         2.87333	2.00000e+00	
					         2.87500	2.00000e+00	
					         2.87667	1.00000e+00	
					         2.87833	1.00000e+00	
					         2.88000	1.00000e+00	
					         2.88167	1.00000e+00	
					         2.88333	1.00000e+00	
					         2.88500	0.00000e+00	
					         2.88667	0.00000e+00	
					         2.88833	0.00000e+00	
					         2.89000	-1.00000e+00	
					         2.89167	-1.00000e+00	
					         2.89333	-2.00000e+00	
					         2.89500	-2.00000e+00	
					         2.89667	-3.00000e+00	
					         2.89833	-3.00000e+00	
					         2.90000	-4.00000e+00	
					         2.90167	-4.00000e+00	
					         2.90333	-3.00000e+00	
					         2.90500	-3.00000e+00	
					         2.90667	-2.00000e+00	
					         2.90833	-2.00000e+00	
					         2.91000	-1.00000e+00	
					         2.91167	0.00000e+00	
					         2.91333	1.00000e+00	
					         2.91500	1.00000e+00	
					         2.91667	2.00000e+00	
					         2.91833	2.00000e+00	
					         2.92000	2.00000e+00	
					         2.92167	2.00000e+00	
					         2.92333	2.00000e+00	
					         2.92500	2.00000e+00	
					         2.92667	1.00000e+00	
					         2.92833	1.00000e+00	
					         2.93000	0.00000e+00	
					         2.93167	0.00000e+00	
					         2.93333	0.00000e+00	
					         2.93500	-1.00000e+00	
					         2.93667	-1.00000e+00	
					         2.93833	-1.00000e+00	
					         2.94000	-1.00000e+00	
					         2.94167	-2.00000e+00	
					         2.94333	-2.00000e+00	
					         2.94500	-2.00000e+00	
					         2.94667	-2.00000e+00	
					         2.94833	-3.00000e+00	
					         2.95000	-3.00000e+00	
					         2.95167	-3.00000e+00	
					         2.95333	-4.00000e+00	
					         2.95500	-4.00000e+00	
					         2.95667	-4.00000e+00	
					         2.95833	-4.00000e+00	
					         2.96000	-4.00000e+00	
					         2.96167	-4.00000e+00	
					         2.96333	-4.00000e+00	
					         2.96500	-4.00000e+00	
					         2.96667	-4.00000e+00	
					         2.96833	-4.00000e+00	
					         2.97000	-4.00000e+00	
					         2.97167	-4.00000e+00	
					         2.97333	-4.00000e+00	
					         2.97500	-4.00000e+00	
					         2.97667	-3.00000e+00	
					         2.97833	-3.00000e+00	
					         2.98000	-3.00000e+00	
					         2.98167	-3.00000e+00	
					         2.98333	-3.00000e+00	
					         2.98500	-3.00000e+00	
					         2.98667	-2.00000e+00	
					         2.98833	-2.00000e+00	
					         2.99000	-1.00000e+00	
					         2.99167	0.00000e+00	
					         2.99333	1.00000e+00	
					         2.99500	3.00000e+00	
					         2.99667	4.00000e+00	
					         2.99833	5.00000e+00	
					         3.00000	6.00000e+00	
					         3.00167	7.00000e+00	
					         3.00333	8.00000e+00	
					         3.00500	8.00000e+00	
					         3.00667	9.00000e+00	
					         3.00833	9.00000e+00	
					         3.01000	9.00000e+00	
					         3.01167	9.00000e+00	
					         3.01333	9.00000e+00	
					         3.01500	9.00000e+00	
					         3.01667	1.00000e+01	
					         3.01833	1.00000e+01	
					         3.02000	1.10000e+01	
					         3.02167	1.20000e+01	
					         3.02333	1.30000e+01	
					         3.02500	1.40000e+01	
					         3.02667	1.50000e+01	
					         3.02833	1.70000e+01	
					         3.03000	1.80000e+01	
					         3.03167	2.00000e+01	
					         3.03333	2.20000e+01	
					         3.03500	2.30000e+01	
					         3.03667	2.50000e+01	
					         3.03833	2.60000e+01	
					         3.04000	2.80000e+01	
					         3.04167	2.90000e+01	
					         3.04333	3.10000e+01	
					         3.04500	3.30000e+01	
					         3.04667	3.40000e+01	
					         3.04833	3.60000e+01	
					         3.05000	3.70000e+01	
					         3.05167	3.80000e+01	
					         3.05333	3.90000e+01	
					         3.05500	4.00000e+01	
					         3.05667	4.00000e+01	
					         3.05833	4.00000e+01	
					         3.06000	3.90000e+01	
					         3.06167	3.80000e+01	
					         3.06333	3.60000e+01	
					         3.06500	3.30000e+01	
					         3.06667	3.10000e+01	
					         3.06833	2.80000e+01	
					         3.07000	2.40000e+01	
					         3.07167	2.10000e+01	
					         3.07333	1.80000e+01	
					         3.07500	1.50000e+01	
					         3.07667	1.10000e+01	
					         3.07833	8.00000e+00	
					         3.08000	5.00000e+00	
					         3.08167	2.00000e+00	
					         3.08333	-1.00000e+00	
					         3.08500	-4.00000e+00	
					         3.08667	-7.00000e+00	
					         3.08833	-9.00000e+00	
					         3.09000	-1.20000e+01	
					         3.09167	-1.50000e+01	
					         3.09333	-1.80000e+01	
					         3.09500	-2.00000e+01	
					         3.09667	-2.30000e+01	
					         3.09833	-2.50000e+01	
					         3.10000	-2.80000e+01	
					         3.10167	-3.00000e+01	
					         3.10333	-3.20000e+01	
					         3.10500	-3.30000e+01	
					         3.10667	-3.50000e+01	
					         3.10833	-3.60000e+01	
					         3.11000	-3.70000e+01	
					         3.11167	-3.70000e+01	
					         3.11333	-3.70000e+01	
					         3.11500	-3.70000e+01	
					         3.11667	-3.60000e+01	
					         3.11833	-3.60000e+01	
					         3.12000	-3.50000e+01	
					         3.12167	-3.30000e+01	
					         3.12333	-3.20000e+01	
					         3.12500	-3.00000e+01	
					         3.12667	-2.90000e+01	
					         3.12833	-2.70000e+01	
					         3.13000	-2.60000e+01	
					         3.13167	-2.50000e+01	
					         3.13333	-2.30000e+01	
					         3.13500	-2.20000e+01	
					         3.13667	-2.10000e+01	
					         3.13833	-2.00000e+01	
					         3.14000	-1.90000e+01	
					         3.14167	-1.80000e+01	
					         3.14333	-1.80000e+01	
					         3.14500	-1.80000e+01	
					         3.14667	-1.80000e+01	
					         3.14833	-1.70000e+01	
					         3.15000	-1.70000e+01	
					         3.15167	-1.70000e+01	
					         3.15333	-1.70000e+01	
					         3.15500	-1.70000e+01	
					         3.15667	-1.70000e+01	
					         3.15833	-1.60000e+01	
					         3.16000	-1.60000e+01	
					         3.16167	-1.50000e+01	
					         3.16333	-1.50000e+01	
					         3.16500	-1.40000e+01	
					         3.16667	-1.30000e+01	
					         3.16833	-1.20000e+01	
					         3.17000	-1.10000e+01	
					         3.17167	-1.10000e+01	
					         3.17333	-1.00000e+01	
					         3.17500	-9.00000e+00	
					         3.17667	-9.00000e+00	
					         3.17833	-9.00000e+00	
					         3.18000	-9.00000e+00	
					         3.18167	-1.00000e+01	
					         3.18333	-1.10000e+01	
					         3.18500	-1.20000e+01	
					         3.18667	-1.30000e+01	
					         3.18833	-1.50000e+01	
					         3.19000	-1.60000e+01	
					         3.19167	-1.70000e+01	
					         3.19333	-1.80000e+01	
					         3.19500	-1.90000e+01	
					         3.19667	-2.00000e+01	
					         3.19833	-2.10000e+01	
					         3.20000	-2.00000e+01	
					         3.20167	-2.00000e+01	
					         3.20333	-1.80000e+01	
					         3.20500	-1.60000e+01	
					         3.20667	-1.40000e+01	
					         3.20833	-1.00000e+01	
					         3.21000	-5.00000e+00	
					         3.21167	1.00000e+00	
					         3.21333	1.00000e+01	
					         3.21500	2.10000e+01	
					         3.21667	3.70000e+01	
					         3.21833	5.70000e+01	
					         3.22000	8.10000e+01	
					         3.22167	1.10000e+02	
					         3.22333	1.43000e+02	
					         3.22500	1.80000e+02	
					         3.22667	2.19000e+02	
					         3.22833	2.58000e+02	
					         3.23000	2.97000e+02	
					         3.23167	3.33000e+02	
					         3.23333	3.64000e+02	
					         3.23500	3.89000e+02	
					         3.23667	4.06000e+02	
					         3.23833	4.15000e+02	
					         3.24000	4.14000e+02	
					         3.24167	4.04000e+02	
					         3.24333	3.84000e+02	
					         3.24500	3.55000e+02	
					         3.24667	3.19000e+02	
					         3.24833	2.76000e+02	
					         3.25000	2.31000e+02	
					         3.25167	1.83000e+02	
					         3.25333	1.35000e+02	
					         3.25500	8.80000e+01	
					         3.25667	4.40000e+01	
					         3.25833	4.00000e+00	
					         3.26000	-3.20000e+01	
					         3.26167	-6.30000e+01	
					         3.26333	-8.90000e+01	
