Grayscale intensity, in dB

Time (s) :	Trace 1 : 	Trace 2 : 	Trace 3 : 		Ecg : 		
0.00119   	-3.51688e+01	-3.40837e+01	-2.53836e+01		         0.00000	-9.00000e+00	
0.01386   	-3.60783e+01	-3.34051e+01	-2.72477e+01		         0.00167	-3.00000e+00	
0.02654   	-3.51155e+01	-3.48223e+01	-2.66914e+01		         0.00333	6.00000e+00	
0.03919   	-3.42832e+01	-3.49407e+01	-2.56373e+01		         0.00500	1.60000e+01	
0.05186   	-3.42215e+01	-3.70942e+01	-2.56954e+01		         0.00667	2.80000e+01	
0.06453   	-3.41332e+01	-3.73304e+01	-2.67215e+01		         0.00833	4.10000e+01	
0.07720   	-3.42236e+01	-3.65014e+01	-2.82650e+01		         0.01000	5.50000e+01	
0.08987   	-3.43983e+01	-3.42668e+01	-2.93707e+01		         0.01167	7.00000e+01	
0.10283   	-3.35742e+01	-3.29902e+01	-2.97993e+01		         0.01333	8.40000e+01	
0.11520   	-3.18233e+01	-3.33537e+01	-2.90435e+01		         0.01500	9.70000e+01	
0.12787   	-2.94184e+01	-3.30011e+01	-2.90726e+01		         0.01667	1.09000e+02	
0.14054   	-2.87768e+01	-3.60895e+01	-2.68066e+01		         0.01833	1.18000e+02	
0.15321   	-2.80972e+01	-3.64019e+01	-2.58949e+01		         0.02000	1.24000e+02	
0.16587   	-2.80759e+01	-3.67795e+01	-2.65852e+01		         0.02167	1.27000e+02	
0.17854   	-2.84224e+01	-3.80762e+01	-2.89988e+01		         0.02333	1.26000e+02	
0.19121   	-2.87422e+01	-3.77009e+01	-2.92222e+01		         0.02500	1.21000e+02	
0.20388   	-2.89411e+01	-3.69882e+01	-2.86736e+01		         0.02667	1.13000e+02	
0.21654   	-2.86215e+01	-3.74566e+01	-2.76236e+01		         0.02833	1.02000e+02	
0.22921   	-2.91507e+01	-3.78185e+01	-2.79250e+01		         0.03000	8.90000e+01	
0.24188   	-2.96417e+01	-3.43779e+01	-2.68645e+01		         0.03167	7.30000e+01	
0.25455   	-3.02153e+01	-3.06784e+01	-2.60237e+01		         0.03333	5.60000e+01	
0.26721   	-3.05494e+01	-2.89739e+01	-2.68578e+01		         0.03500	3.90000e+01	
0.27989   	-3.02864e+01	-3.00522e+01	-2.83730e+01		         0.03667	2.10000e+01	
0.29255   	-2.99673e+01	-3.34014e+01	-2.69943e+01		         0.03833	4.00000e+00	
0.30522   	-2.95335e+01	-3.42993e+01	-2.61263e+01		         0.04000	-1.10000e+01	
0.31788   	-2.94510e+01	-3.66036e+01	-2.70473e+01		         0.04167	-2.60000e+01	
0.33055   	-2.93630e+01	-3.87474e+01	-2.54407e+01		         0.04333	-3.80000e+01	
0.34322   	-2.93890e+01	-4.06518e+01	-2.68917e+01		         0.04500	-4.80000e+01	
0.35589   	-2.92045e+01	-4.06792e+01	-2.76990e+01		         0.04667	-5.60000e+01	
0.36855   	-2.93515e+01	-4.25466e+01	-2.81191e+01		         0.04833	-6.30000e+01	
0.38122   	-2.97239e+01	-4.18034e+01	-2.73568e+01		         0.05000	-6.70000e+01	
0.39389   	-3.03378e+01	-4.16106e+01	-2.50679e+01		         0.05167	-6.90000e+01	
0.40656   	-3.03315e+01	-4.01344e+01	-2.57997e+01		         0.05333	-6.90000e+01	
0.41923   	-2.97659e+01	-4.10764e+01	-2.56518e+01		         0.05500	-6.80000e+01	
0.43189   	-2.83069e+01	-4.04838e+01	-2.22956e+01		         0.05667	-6.60000e+01	
0.44456   	-2.61828e+01	-3.98013e+01	-1.90549e+01		         0.05833	-6.30000e+01	
0.45723   	-2.44811e+01	-4.06451e+01	-1.85389e+01		         0.06000	-5.90000e+01	
0.46990   	-2.34332e+01	-3.80485e+01	-2.17365e+01		         0.06167	-5.50000e+01	
0.48256   	-2.27208e+01	-3.75468e+01	-2.24027e+01		         0.06333	-5.10000e+01	
0.49523   	-2.10184e+01	-3.82739e+01	-2.09572e+01		         0.06500	-4.70000e+01	
0.50790   	-1.92950e+01	-3.76623e+01	-2.43959e+01		         0.06667	-4.30000e+01	
0.52057   	-1.80752e+01	-3.76443e+01	-2.28944e+01		         0.06833	-3.90000e+01	
0.53323   	-1.81468e+01	-3.65922e+01	-1.69946e+01		         0.07000	-3.50000e+01	
0.54590   	-1.80737e+01	-3.53685e+01	-2.18539e+01		         0.07167	-3.20000e+01	
0.55857   	-1.86345e+01	-3.47196e+01	-2.21357e+01		         0.07333	-2.90000e+01	
0.57124   	-1.87524e+01	-3.22215e+01	-2.29362e+01		         0.07500	-2.60000e+01	
0.58410   	-1.84558e+01	-3.19080e+01	-2.29264e+01		         0.07667	-2.40000e+01	
0.59657   	-1.78476e+01	-2.98560e+01	-2.04057e+01		         0.07833	-2.20000e+01	
0.60924   	-1.65061e+01	-3.00093e+01	-1.94724e+01		         0.08000	-2.10000e+01	
0.62191   	-1.58726e+01	-2.98791e+01	-1.84178e+01		         0.08167	-1.90000e+01	
0.63458   	-1.58580e+01	-2.98339e+01	-1.83764e+01		         0.08333	-1.80000e+01	
0.64725   	-1.67286e+01	-2.91258e+01	-1.80633e+01		         0.08500	-1.70000e+01	
0.65991   	-1.76597e+01	-2.80174e+01	-1.74807e+01		         0.08667	-1.70000e+01	
0.67258   	-1.78602e+01	-2.92193e+01	-1.82879e+01		         0.08833	-1.60000e+01	
0.68525   	-1.80339e+01	-2.95086e+01	-1.89833e+01		         0.09000	-1.60000e+01	
0.69791   	-1.80816e+01	-2.98768e+01	-1.96786e+01		         0.09167	-1.60000e+01	
0.71058   	-1.82309e+01	-3.05185e+01	-2.03127e+01		         0.09333	-1.60000e+01	
0.72325   	-1.82887e+01	-2.98183e+01	-2.03351e+01		         0.09500	-1.60000e+01	
0.73592   	-1.80806e+01	-2.99755e+01	-2.08246e+01		         0.09667	-1.60000e+01	
0.74858   	-1.77102e+01	-2.96313e+01	-2.08532e+01		         0.09833	-1.70000e+01	
0.76125   	-1.70183e+01	-2.90370e+01	-2.09580e+01		         0.10000	-1.70000e+01	
0.77392   	-1.64182e+01	-3.05348e+01	-2.12264e+01		         0.10167	-1.70000e+01	
0.78659   	-1.58231e+01	-3.15342e+01	-2.14140e+01		         0.10333	-1.80000e+01	
0.79925   	-1.55895e+01	-3.17371e+01	-2.15115e+01		         0.10500	-1.90000e+01	
0.81192   	-1.56738e+01	-3.23475e+01	-2.19486e+01		         0.10667	-1.90000e+01	
0.82459   	-1.58002e+01	-3.45035e+01	-2.03370e+01		         0.10833	-2.00000e+01	
0.83726   	-1.66976e+01	-3.34966e+01	-1.99225e+01		         0.11000	-2.00000e+01	
0.84993   	-1.93233e+01	-3.25401e+01	-2.26324e+01		         0.11167	-2.00000e+01	
0.86260   	-2.13009e+01	-3.27238e+01	-2.16564e+01		         0.11333	-2.00000e+01	
0.87526   	-2.53337e+01	-3.18266e+01	-2.27327e+01		         0.11500	-2.00000e+01	
0.88793   	-2.99855e+01	-3.09076e+01	-2.05720e+01		         0.11667	-1.90000e+01	
0.90060   	-3.17534e+01	-3.17441e+01	-2.23507e+01		         0.11833	-1.90000e+01	
0.91326   	-3.32897e+01	-3.25750e+01	-2.08887e+01		         0.12000	-1.80000e+01	
0.92593   	-3.18767e+01	-3.21903e+01	-2.18703e+01		         0.12167	-1.80000e+01	
0.93860   	-3.04272e+01	-3.40945e+01	-2.14103e+01		         0.12333	-1.70000e+01	
0.95127   	-3.05292e+01	-3.40103e+01	-2.02138e+01		         0.12500	-1.60000e+01	
0.96394   	-3.05218e+01	-3.30957e+01	-1.99784e+01		         0.12667	-1.60000e+01	
0.97660   	-2.99161e+01	-3.11308e+01	-2.38970e+01		         0.12833	-1.50000e+01	
0.98927   	-2.97955e+01	-2.94124e+01	-2.39042e+01		         0.13000	-1.40000e+01	
1.00194   	-2.04522e+01	-2.89544e+01	-2.34532e+01		         0.13167	-1.40000e+01	
1.01460   	-1.98327e+01	-2.82984e+01	-2.30086e+01		         0.13333	-1.30000e+01	
1.02727   	-1.91014e+01	-2.93194e+01	-2.05745e+01		         0.13500	-1.30000e+01	
1.03994   	-1.87266e+01	-2.95466e+01	-2.10988e+01		         0.13667	-1.20000e+01	
1.05261   	-1.83329e+01	-3.18926e+01	-1.93568e+01		         0.13833	-1.20000e+01	
1.06528   	-1.72527e+01	-3.21412e+01	-1.72208e+01		         0.14000	-1.20000e+01	
1.07794   	-1.66161e+01	-3.39207e+01	-1.74510e+01		         0.14167	-1.10000e+01	
1.09061   	-1.72188e+01	-3.28279e+01	-1.63154e+01		         0.14333	-1.10000e+01	
1.10328   	-1.76019e+01	-3.23984e+01	-1.50656e+01		         0.14500	-1.00000e+01	
1.11595   	-1.81697e+01	-3.23775e+01	-1.61639e+01		         0.14667	-9.00000e+00	
1.12861   	-1.83259e+01	-3.11113e+01	-1.78155e+01		         0.14833	-9.00000e+00	
1.14128   	-1.95686e+01	-2.82616e+01	-2.01319e+01		         0.15000	-8.00000e+00	
1.15395   	-2.13853e+01	-2.74983e+01	-1.81152e+01		         0.15167	-8.00000e+00	
1.16662   	-2.28607e+01	-2.72014e+01	-2.06560e+01		         0.15333	-7.00000e+00	
1.17928   	-2.50761e+01	-2.95427e+01	-2.11335e+01		         0.15500	-7.00000e+00	
1.19196   	-2.64490e+01	-3.38419e+01	-2.05975e+01		         0.15667	-6.00000e+00	
1.20462   	-2.71987e+01	-3.51361e+01	-2.31214e+01		         0.15833	-5.00000e+00	
1.21729   	-2.75494e+01	-3.50453e+01	-2.22115e+01		         0.16000	-4.00000e+00	
1.22995   	-2.79124e+01	-3.68064e+01	-2.21050e+01		         0.16167	-3.00000e+00	
1.24262   	-2.78930e+01	-3.92117e+01	-1.92669e+01		         0.16333	-2.00000e+00	
1.25529   	-2.80433e+01	-3.92325e+01	-2.11731e+01		         0.16500	-2.00000e+00	
1.26796   	-2.85156e+01	-3.93768e+01	-2.08447e+01		         0.16667	-1.00000e+00	
1.28062   	-2.83992e+01	-3.87711e+01	-2.15485e+01		         0.16833	-1.00000e+00	
1.29329   	-2.71742e+01	-3.79436e+01	-2.05627e+01		         0.17000	0.00000e+00	
1.30596   	-2.48393e+01	-3.82139e+01	-1.96826e+01		         0.17167	0.00000e+00	
1.31863   	-2.18891e+01	-3.92511e+01	-1.58553e+01		         0.17333	0.00000e+00	
1.33130   	-1.95155e+01	-3.74589e+01	-1.61788e+01		         0.17500	0.00000e+00	
1.34397   	-1.77744e+01	-3.71030e+01	-1.69324e+01		         0.17667	0.00000e+00	
1.35663   	-1.62437e+01	-3.80480e+01	-1.92148e+01		         0.17833	0.00000e+00	
1.36930   	-1.58745e+01	-3.72985e+01	-1.82777e+01		         0.18000	0.00000e+00	
1.38197   	-1.52385e+01	-3.65920e+01	-1.90080e+01		         0.18167	0.00000e+00	
1.39463   	-1.54946e+01	-3.68088e+01	-2.27577e+01		         0.18333	-1.00000e+00	
1.40730   	-1.63530e+01	-3.82541e+01	-2.24788e+01		         0.18500	-1.00000e+00	
1.41997   	-1.74797e+01	-3.68874e+01	-2.11951e+01		         0.18667	-1.00000e+00	
1.43264   	-1.74193e+01	-3.71922e+01	-1.89367e+01		         0.18833	-2.00000e+00	
1.44530   	-1.71952e+01	-3.54918e+01	-2.10523e+01		         0.19000	-2.00000e+00	
1.45797   	-1.64074e+01	-3.57229e+01	-2.18994e+01		         0.19167	-2.00000e+00	
1.47064   	-1.56780e+01	-3.45319e+01	-2.14457e+01		         0.19333	-2.00000e+00	
1.48331   	-1.51739e+01	-3.24321e+01	-2.11068e+01		         0.19500	-2.00000e+00	
1.49597   	-1.46192e+01	-3.33817e+01	-2.05198e+01		         0.19667	-2.00000e+00	
1.50864   	-1.42496e+01	-3.13153e+01	-2.00445e+01		         0.19833	-1.00000e+00	
1.52131   	-1.38514e+01	-3.13701e+01	-2.03255e+01		         0.20000	-1.00000e+00	
1.53398   	-1.39385e+01	-3.14768e+01	-1.91790e+01		         0.20167	-1.00000e+00	
1.54665   	-1.45424e+01	-3.10490e+01	-1.83099e+01		         0.20333	0.00000e+00	
1.55931   	-1.55267e+01	-3.15618e+01	-1.88869e+01		         0.20500	0.00000e+00	
1.57198   	-1.61560e+01	-2.99325e+01	-1.98581e+01		         0.20667	1.00000e+00	
1.58465   	-1.61344e+01	-2.95829e+01	-1.99678e+01		         0.20833	2.00000e+00	
1.59732   	-1.58137e+01	-2.95251e+01	-2.05970e+01		         0.21000	2.00000e+00	
1.60999   	-1.56130e+01	-3.07567e+01	-2.10533e+01		         0.21167	3.00000e+00	
1.62265   	-1.55957e+01	-2.99557e+01	-2.21033e+01		         0.21333	4.00000e+00	
1.63532   	-1.54398e+01	-2.90987e+01	-2.23855e+01		         0.21500	5.00000e+00	
1.64799   	-1.53865e+01	-2.92340e+01	-2.14058e+01		         0.21667	5.00000e+00	
1.66066   	-1.53089e+01	-2.91227e+01	-2.01655e+01		         0.21833	6.00000e+00	
1.67332   	-1.53637e+01	-3.01278e+01	-1.98109e+01		         0.22000	6.00000e+00	
1.68599   	-1.55501e+01	-3.09565e+01	-2.07389e+01		         0.22167	7.00000e+00	
1.69866   	-1.60123e+01	-2.98064e+01	-2.12662e+01		         0.22333	8.00000e+00	
1.71132   	-1.61639e+01	-3.19213e+01	-2.13162e+01		         0.22500	8.00000e+00	
1.72399   	-1.60395e+01	-3.29470e+01	-2.11346e+01		         0.22667	9.00000e+00	
1.73666   	-1.54782e+01	-3.17094e+01	-2.08601e+01		         0.22833	9.00000e+00	
1.74933   	-1.64350e+01	-2.95933e+01	-2.03243e+01		         0.23000	9.00000e+00	
1.76200   	-1.90488e+01	-3.04331e+01	-2.18369e+01		         0.23167	1.00000e+01	
1.77467   	-2.01137e+01	-3.11303e+01	-2.12223e+01		         0.23333	1.00000e+01	
1.78734   	-2.25902e+01	-2.89223e+01	-2.43101e+01		         0.23500	1.00000e+01	
1.80000   	-2.42495e+01	-3.03604e+01	-2.34395e+01		         0.23667	1.10000e+01	
1.81270   	-2.47292e+01	-2.95990e+01	-2.36916e+01		         0.23833	1.20000e+01	
1.82534   	-2.69837e+01	-2.90620e+01	-2.29304e+01		         0.24000	1.20000e+01	
1.83800   	-3.13192e+01	-3.07407e+01	-2.40387e+01		         0.24167	1.30000e+01	
1.85067   	-3.08503e+01	-3.02591e+01	-2.28537e+01		         0.24333	1.40000e+01	
1.86334   	-3.11056e+01	-3.21115e+01	-2.22510e+01		         0.24500	1.50000e+01	
1.87600   	-3.00297e+01	-2.98812e+01	-2.11722e+01		         0.24667	1.60000e+01	
1.88867   	-2.46899e+01	-2.95551e+01	-2.07856e+01		         0.24833	1.70000e+01	
1.90134   	-2.13732e+01	-2.92834e+01	-2.14013e+01		         0.25000	1.80000e+01	
1.91401   	-2.08924e+01	-2.95302e+01	-1.87387e+01		         0.25167	1.90000e+01	
1.92668   	-1.99310e+01	-2.89876e+01	-1.60116e+01		         0.25333	2.00000e+01	
1.93935   	-2.00669e+01	-2.78272e+01	-1.79389e+01		         0.25500	2.10000e+01	
1.95201   	-1.97591e+01	-2.94192e+01	-1.91910e+01		         0.25667	2.20000e+01	
1.96468   	-1.91026e+01	-3.03130e+01	-1.89488e+01		         0.25833	2.30000e+01	
1.97735   	-1.88144e+01	-3.06219e+01	-1.72390e+01		         0.26000	2.40000e+01	
1.99002   	-1.82399e+01	-3.17062e+01	-1.56923e+01		         0.26167	2.50000e+01	
2.00268   	-1.72340e+01	-3.07247e+01	-1.55054e+01		         0.26333	2.50000e+01	
2.01535   	-1.77586e+01	-3.15472e+01	-1.48600e+01		         0.26500	2.60000e+01	
2.02802   	-1.77355e+01	-3.13624e+01	-1.72885e+01		         0.26667	2.70000e+01	
2.04068   	-1.80689e+01	-3.15464e+01	-1.93274e+01		         0.26833	2.70000e+01	
2.05335   	-1.89229e+01	-2.93468e+01	-1.80910e+01		         0.27000	2.70000e+01	
2.06602   	-2.05200e+01	-2.69718e+01	-1.66206e+01		         0.27167	2.80000e+01	
2.07869   	-2.27749e+01	-2.78737e+01	-1.99899e+01		         0.27333	2.80000e+01	
2.09135   	-2.48432e+01	-3.18610e+01	-2.01506e+01		         0.27500	2.80000e+01	
2.10402   	-2.63062e+01	-3.44950e+01	-1.92295e+01		         0.27667	2.80000e+01	
2.11669   	-2.67369e+01	-3.51639e+01	-2.10840e+01		         0.27833	2.90000e+01	
2.12936   	-2.69578e+01	-3.70570e+01	-2.25371e+01		         0.28000	2.90000e+01	
2.14203   	-2.70778e+01	-3.90350e+01	-2.13134e+01		         0.28167	3.00000e+01	
2.15470   	-2.69524e+01	-3.98068e+01	-2.11605e+01		         0.28333	3.00000e+01	
2.16736   	-2.71284e+01	-3.88686e+01	-1.75358e+01		         0.28500	3.10000e+01	
2.18003   	-2.83034e+01	-4.00267e+01	-1.82927e+01		         0.28667	3.10000e+01	
2.19270   	-2.77923e+01	-3.86059e+01	-2.02703e+01		         0.28833	3.20000e+01	
2.20537   	-2.66667e+01	-3.88669e+01	-2.06517e+01		         0.29000	3.20000e+01	
2.21803   	-2.43865e+01	-3.84950e+01	-1.96932e+01		         0.29167	3.20000e+01	
2.23070   	-2.19406e+01	-4.00238e+01	-1.89920e+01		         0.29333	3.10000e+01	
2.24337   	-1.91755e+01	-3.77386e+01	-1.75908e+01		         0.29500	3.00000e+01	
2.25604   	-1.71495e+01	-3.78254e+01	-1.89274e+01		         0.29667	2.90000e+01	
2.26870   	-1.64112e+01	-3.75902e+01	-2.13133e+01		         0.29833	2.80000e+01	
2.28137   	-1.64723e+01	-3.63651e+01	-1.98368e+01		         0.30000	2.70000e+01	
2.29425   	-1.59840e+01	-3.82458e+01	-2.32573e+01		         0.30167	2.50000e+01	
2.30671   	-1.58111e+01	-3.72227e+01	-2.25306e+01		         0.30333	2.30000e+01	
2.31937   	-1.70211e+01	-3.73433e+01	-1.80943e+01		         0.30500	2.10000e+01	
2.33204   	-1.72466e+01	-3.72283e+01	-1.68745e+01		         0.30667	2.00000e+01	
2.34471   	-1.74066e+01	-3.80172e+01	-2.12566e+01		         0.30833	1.80000e+01	
2.35738   	-1.68116e+01	-3.85073e+01	-2.14896e+01		         0.31000	1.60000e+01	
2.37004   	-1.62939e+01	-3.95482e+01	-2.24238e+01		         0.31167	1.50000e+01	
2.38271   	-1.57910e+01	-3.86177e+01	-2.12549e+01		         0.31333	1.30000e+01	
2.39538   	-1.65945e+01	-3.90340e+01	-1.99660e+01		         0.31500	1.20000e+01	
2.40805   	-1.73605e+01	-3.84110e+01	-1.81164e+01		         0.31667	1.00000e+01	
2.42072   	-1.79288e+01	-3.62286e+01	-1.76445e+01		         0.31833	9.00000e+00	
2.43338   	-1.76145e+01	-3.50521e+01	-1.62635e+01		         0.32000	8.00000e+00	
2.44605   	-1.79667e+01	-3.58965e+01	-1.59154e+01		         0.32167	7.00000e+00	
2.45872   	-1.80020e+01	-3.49029e+01	-1.56487e+01		         0.32333	5.00000e+00	
2.47139   	-1.77801e+01	-3.50881e+01	-1.53845e+01		         0.32500	4.00000e+00	
2.48405   	-1.73402e+01	-3.56331e+01	-1.53402e+01		         0.32667	3.00000e+00	
2.49672   	-1.75480e+01	-3.59227e+01	-1.49405e+01		         0.32833	2.00000e+00	
2.50939   	-1.80898e+01	-3.75759e+01	-1.50395e+01		         0.33000	1.00000e+00	
2.52206   	-1.87578e+01	-3.73658e+01	-1.59727e+01		         0.33167	-1.00000e+00	
2.53472   	-1.94857e+01	-3.73144e+01	-1.54968e+01		         0.33333	-2.00000e+00	
2.54739   	-2.00383e+01	-3.70319e+01	-1.59493e+01		         0.33500	-3.00000e+00	
2.56006   	-2.06989e+01	-3.78764e+01	-1.70349e+01		         0.33667	-4.00000e+00	
2.57273   	-2.12201e+01	-3.85571e+01	-1.74414e+01		         0.33833	-6.00000e+00	
2.58540   	-2.16243e+01	-3.90437e+01	-1.78161e+01		         0.34000	-7.00000e+00	
2.59806   	-2.18440e+01	-3.95992e+01	-1.77047e+01		         0.34167	-8.00000e+00	
2.61073   	-2.22145e+01	-4.12440e+01	-1.75057e+01		         0.34333	-9.00000e+00	
2.62340   	-2.31635e+01	-3.95688e+01	-1.73087e+01		         0.34500	-1.10000e+01	
2.63607   	-2.25133e+01	-3.85987e+01	-1.72197e+01		         0.34667	-1.20000e+01	
2.64873   	-2.33441e+01	-3.94344e+01	-1.96966e+01		         0.34833	-1.40000e+01	
2.66140   	-2.41276e+01	-3.98888e+01	-2.25003e+01		         0.35000	-1.50000e+01	
2.67407   	-2.69054e+01	-4.02081e+01	-2.06237e+01		         0.35167	-1.70000e+01	
2.68674   	-2.79444e+01	-4.08139e+01	-2.43403e+01		         0.35333	-1.80000e+01	
2.69940   	-2.64226e+01	-3.96119e+01	-2.68250e+01		         0.35500	-1.90000e+01	
2.71207   	-2.66450e+01	-4.07016e+01	-2.59189e+01		         0.35667	-2.10000e+01	
2.72474   	-2.71553e+01	-4.21393e+01	-2.59790e+01		         0.35833	-2.20000e+01	
2.73741   	-2.71293e+01	-4.17218e+01	-2.52239e+01		         0.36000	-2.20000e+01	
					         0.36167	-2.30000e+01	
					         0.36333	-2.40000e+01	
					         0.36500	-2.40000e+01	
					         0.36667	-2.40000e+01	
					         0.36833	-2.40000e+01	
					         0.37000	-2.30000e+01	
					         0.37167	-2.30000e+01	
					         0.37333	-2.20000e+01	
					         0.37500	-2.20000e+01	
					         0.37667	-2.10000e+01	
					         0.37833	-2.10000e+01	
					         0.38000	-2.00000e+01	
					         0.38167	-2.00000e+01	
					         0.38333	-2.00000e+01	
					         0.38500	-2.00000e+01	
					         0.38667	-2.00000e+01	
					         0.38833	-2.00000e+01	
					         0.39000	-2.00000e+01	
					         0.39167	-2.00000e+01	
					         0.39333	-1.90000e+01	
					         0.39500	-1.90000e+01	
					         0.39667	-1.90000e+01	
					         0.39833	-1.90000e+01	
					         0.40000	-1.90000e+01	
					         0.40167	-1.80000e+01	
					         0.40333	-1.80000e+01	
					         0.40500	-1.80000e+01	
					         0.40667	-1.80000e+01	
					         0.40833	-1.80000e+01	
					         0.41000	-1.70000e+01	
					         0.41167	-1.60000e+01	
					         0.41333	-1.60000e+01	
					         0.41500	-1.50000e+01	
					         0.41667	-1.40000e+01	
					         0.41833	-1.30000e+01	
					         0.42000	-1.20000e+01	
					         0.42167	-1.10000e+01	
					         0.42333	-1.00000e+01	
					         0.42500	-8.00000e+00	
					         0.42667	-8.00000e+00	
					         0.42833	-7.00000e+00	
					         0.43000	-7.00000e+00	
					         0.43167	-7.00000e+00	
					         0.43333	-6.00000e+00	
					         0.43500	-6.00000e+00	
					         0.43667	-6.00000e+00	
					         0.43833	-6.00000e+00	
					         0.44000	-6.00000e+00	
					         0.44167	-6.00000e+00	
					         0.44333	-6.00000e+00	
					         0.44500	-5.00000e+00	
					         0.44667	-5.00000e+00	
					         0.44833	-4.00000e+00	
					         0.45000	-4.00000e+00	
					         0.45167	-3.00000e+00	
					         0.45333	-2.00000e+00	
					         0.45500	-2.00000e+00	
					         0.45667	-2.00000e+00	
					         0.45833	-1.00000e+00	
					         0.46000	-1.00000e+00	
					         0.46167	-1.00000e+00	
					         0.46333	-1.00000e+00	
					         0.46500	-2.00000e+00	
					         0.46667	-2.00000e+00	
					         0.46833	-2.00000e+00	
					         0.47000	-3.00000e+00	
					         0.47167	-3.00000e+00	
					         0.47333	-3.00000e+00	
					         0.47500	-3.00000e+00	
					         0.47667	-2.00000e+00	
					         0.47833	-2.00000e+00	
					         0.48000	-2.00000e+00	
					         0.48167	-1.00000e+00	
					         0.48333	-1.00000e+00	
					         0.48500	0.00000e+00	
					         0.48667	0.00000e+00	
					         0.48833	1.00000e+00	
					         0.49000	2.00000e+00	
					         0.49167	2.00000e+00	
					         0.49333	3.00000e+00	
					         0.49500	3.00000e+00	
					         0.49667	4.00000e+00	
					         0.49833	4.00000e+00	
					         0.50000	4.00000e+00	
					         0.50167	4.00000e+00	
					         0.50333	5.00000e+00	
					         0.50500	5.00000e+00	
					         0.50667	5.00000e+00	
					         0.50833	5.00000e+00	
					         0.51000	4.00000e+00	
					         0.51167	4.00000e+00	
					         0.51333	4.00000e+00	
					         0.51500	3.00000e+00	
					         0.51667	2.00000e+00	
					         0.51833	2.00000e+00	
					         0.52000	1.00000e+00	
					         0.52167	0.00000e+00	
					         0.52333	-1.00000e+00	
					         0.52500	-3.00000e+00	
					         0.52667	-4.00000e+00	
					         0.52833	-5.00000e+00	
					         0.53000	-6.00000e+00	
					         0.53167	-6.00000e+00	
					         0.53333	-6.00000e+00	
					         0.53500	-7.00000e+00	
					         0.53667	-7.00000e+00	
					         0.53833	-6.00000e+00	
					         0.54000	-6.00000e+00	
					         0.54167	-5.00000e+00	
					         0.54333	-5.00000e+00	
					         0.54500	-4.00000e+00	
					         0.54667	-4.00000e+00	
					         0.54833	-3.00000e+00	
					         0.55000	-3.00000e+00	
					         0.55167	-2.00000e+00	
					         0.55333	-2.00000e+00	
					         0.55500	-2.00000e+00	
					         0.55667	-1.00000e+00	
					         0.55833	-1.00000e+00	
					         0.56000	-1.00000e+00	
					         0.56167	-1.00000e+00	
					         0.56333	-1.00000e+00	
					         0.56500	-1.00000e+00	
					         0.56667	-2.00000e+00	
					         0.56833	-2.00000e+00	
					         0.57000	-2.00000e+00	
					         0.57167	-2.00000e+00	
					         0.57333	-3.00000e+00	
					         0.57500	-3.00000e+00	
					         0.57667	-4.00000e+00	
					         0.57833	-4.00000e+00	
					         0.58000	-5.00000e+00	
					         0.58167	-5.00000e+00	
					         0.58333	-6.00000e+00	
					         0.58500	-6.00000e+00	
					         0.58667	-7.00000e+00	
					         0.58833	-7.00000e+00	
					         0.59000	-8.00000e+00	
					         0.59167	-9.00000e+00	
					         0.59333	-9.00000e+00	
					         0.59500	-1.00000e+01	
					         0.59667	-1.10000e+01	
					         0.59833	-1.10000e+01	
					         0.60000	-1.20000e+01	
					         0.60167	-1.20000e+01	
					         0.60333	-1.20000e+01	
					         0.60500	-1.20000e+01	
					         0.60667	-1.20000e+01	
					         0.60833	-1.20000e+01	
					         0.61000	-1.20000e+01	
					         0.61167	-1.10000e+01	
					         0.61333	-1.10000e+01	
					         0.61500	-1.10000e+01	
					         0.61667	-1.00000e+01	
					         0.61833	-9.00000e+00	
					         0.62000	-8.00000e+00	
					         0.62167	-8.00000e+00	
					         0.62333	-7.00000e+00	
					         0.62500	-6.00000e+00	
					         0.62667	-5.00000e+00	
					         0.62833	-4.00000e+00	
					         0.63000	-4.00000e+00	
					         0.63167	-3.00000e+00	
					         0.63333	-3.00000e+00	
					         0.63500	-3.00000e+00	
					         0.63667	-3.00000e+00	
					         0.63833	-3.00000e+00	
					         0.64000	-4.00000e+00	
					         0.64167	-4.00000e+00	
					         0.64333	-5.00000e+00	
					         0.64500	-6.00000e+00	
					         0.64667	-6.00000e+00	
					         0.64833	-7.00000e+00	
					         0.65000	-7.00000e+00	
					         0.65167	-7.00000e+00	
					         0.65333	-7.00000e+00	
					         0.65500	-7.00000e+00	
					         0.65667	-7.00000e+00	
					         0.65833	-7.00000e+00	
					         0.66000	-7.00000e+00	
					         0.66167	-7.00000e+00	
					         0.66333	-7.00000e+00	
					         0.66500	-7.00000e+00	
					         0.66667	-7.00000e+00	
					         0.66833	-7.00000e+00	
					         0.67000	-7.00000e+00	
					         0.67167	-7.00000e+00	
					         0.67333	-7.00000e+00	
					         0.67500	-7.00000e+00	
					         0.67667	-7.00000e+00	
					         0.67833	-6.00000e+00	
					         0.68000	-6.00000e+00	
					         0.68167	-5.00000e+00	
					         0.68333	-4.00000e+00	
					         0.68500	-3.00000e+00	
					         0.68667	-2.00000e+00	
					         0.68833	0.00000e+00	
					         0.69000	1.00000e+00	
					         0.69167	2.00000e+00	
					         0.69333	3.00000e+00	
					         0.69500	4.00000e+00	
					         0.69667	5.00000e+00	
					         0.69833	6.00000e+00	
					         0.70000	6.00000e+00	
					         0.70167	6.00000e+00	
					         0.70333	6.00000e+00	
					         0.70500	6.00000e+00	
					         0.70667	5.00000e+00	
					         0.70833	4.00000e+00	
					         0.71000	2.00000e+00	
					         0.71167	1.00000e+00	
					         0.71333	0.00000e+00	
					         0.71500	-1.00000e+00	
					         0.71667	-2.00000e+00	
					         0.71833	-2.00000e+00	
					         0.72000	-3.00000e+00	
					         0.72167	-3.00000e+00	
					         0.72333	-3.00000e+00	
					         0.72500	-3.00000e+00	
					         0.72667	-3.00000e+00	
					         0.72833	-3.00000e+00	
					         0.73000	-2.00000e+00	
					         0.73167	-2.00000e+00	
					         0.73333	-2.00000e+00	
					         0.73500	-2.00000e+00	
					         0.73667	-1.00000e+00	
					         0.73833	-1.00000e+00	
					         0.74000	-1.00000e+00	
					         0.74167	-1.00000e+00	
					         0.74333	-1.00000e+00	
					         0.74500	-1.00000e+00	
					         0.74667	-1.00000e+00	
					         0.74833	-1.00000e+00	
					         0.75000	0.00000e+00	
					         0.75167	0.00000e+00	
					         0.75333	1.00000e+00	
					         0.75500	1.00000e+00	
					         0.75667	2.00000e+00	
					         0.75833	3.00000e+00	
					         0.76000	5.00000e+00	
					         0.76167	6.00000e+00	
					         0.76333	8.00000e+00	
					         0.76500	9.00000e+00	
					         0.76667	1.10000e+01	
					         0.76833	1.20000e+01	
					         0.77000	1.30000e+01	
					         0.77167	1.50000e+01	
					         0.77333	1.60000e+01	
					         0.77500	1.70000e+01	
					         0.77667	1.70000e+01	
					         0.77833	1.80000e+01	
					         0.78000	1.90000e+01	
					         0.78167	1.90000e+01	
					         0.78333	2.00000e+01	
					         0.78500	2.00000e+01	
					         0.78667	2.00000e+01	
					         0.78833	2.10000e+01	
					         0.79000	2.10000e+01	
					         0.79167	2.20000e+01	
					         0.79333	2.20000e+01	
					         0.79500	2.20000e+01	
					         0.79667	2.20000e+01	
					         0.79833	2.20000e+01	
					         0.80000	2.20000e+01	
					         0.80167	2.10000e+01	
					         0.80333	2.00000e+01	
					         0.80500	1.80000e+01	
					         0.80667	1.60000e+01	
					         0.80833	1.50000e+01	
					         0.81000	1.30000e+01	
					         0.81167	1.10000e+01	
					         0.81333	9.00000e+00	
					         0.81500	7.00000e+00	
					         0.81667	4.00000e+00	
					         0.81833	2.00000e+00	
					         0.82000	1.00000e+00	
					         0.82167	-1.00000e+00	
					         0.82333	-3.00000e+00	
					         0.82500	-4.00000e+00	
					         0.82667	-5.00000e+00	
					         0.82833	-6.00000e+00	
					         0.83000	-7.00000e+00	
					         0.83167	-8.00000e+00	
					         0.83333	-9.00000e+00	
					         0.83500	-9.00000e+00	
					         0.83667	-1.00000e+01	
					         0.83833	-1.10000e+01	
					         0.84000	-1.10000e+01	
					         0.84167	-1.20000e+01	
					         0.84333	-1.20000e+01	
					         0.84500	-1.30000e+01	
					         0.84667	-1.40000e+01	
					         0.84833	-1.40000e+01	
					         0.85000	-1.50000e+01	
					         0.85167	-1.50000e+01	
					         0.85333	-1.50000e+01	
					         0.85500	-1.50000e+01	
					         0.85667	-1.50000e+01	
					         0.85833	-1.50000e+01	
					         0.86000	-1.50000e+01	
					         0.86167	-1.50000e+01	
					         0.86333	-1.50000e+01	
					         0.86500	-1.50000e+01	
					         0.86667	-1.40000e+01	
					         0.86833	-1.50000e+01	
					         0.87000	-1.50000e+01	
					         0.87167	-1.50000e+01	
					         0.87333	-1.60000e+01	
					         0.87500	-1.60000e+01	
					         0.87667	-1.70000e+01	
					         0.87833	-1.80000e+01	
					         0.88000	-1.90000e+01	
					         0.88167	-1.90000e+01	
					         0.88333	-1.90000e+01	
					         0.88500	-1.90000e+01	
					         0.88667	-1.70000e+01	
					         0.88833	-1.50000e+01	
					         0.89000	-1.10000e+01	
					         0.89167	-5.00000e+00	
					         0.89333	3.00000e+00	
					         0.89500	1.30000e+01	
					         0.89667	2.40000e+01	
					         0.89833	3.70000e+01	
					         0.90000	5.20000e+01	
					         0.90167	6.60000e+01	
					         0.90333	8.10000e+01	
					         0.90500	9.40000e+01	
					         0.90667	1.06000e+02	
					         0.90833	1.15000e+02	
					         0.91000	1.22000e+02	
					         0.91167	1.25000e+02	
					         0.91333	1.24000e+02	
					         0.91500	1.20000e+02	
					         0.91667	1.13000e+02	
					         0.91833	1.02000e+02	
					         0.92000	8.90000e+01	
					         0.92167	7.40000e+01	
					         0.92333	5.70000e+01	
					         0.92500	4.00000e+01	
					         0.92667	2.30000e+01	
					         0.92833	6.00000e+00	
					         0.93000	-1.00000e+01	
					         0.93167	-2.40000e+01	
					         0.93333	-3.60000e+01	
					         0.93500	-4.60000e+01	
					         0.93667	-5.40000e+01	
					         0.93833	-6.10000e+01	
					         0.94000	-6.50000e+01	
					         0.94167	-6.70000e+01	
					         0.94333	-6.80000e+01	
					         0.94500	-6.70000e+01	
					         0.94667	-6.50000e+01	
					         0.94833	-6.30000e+01	
					         0.95000	-5.90000e+01	
					         0.95167	-5.50000e+01	
					         0.95333	-5.10000e+01	
					         0.95500	-4.70000e+01	
					         0.95667	-4.30000e+01	
					         0.95833	-4.00000e+01	
					         0.96000	-3.70000e+01	
					         0.96167	-3.50000e+01	
					         0.96333	-3.30000e+01	
					         0.96500	-3.10000e+01	
					         0.96667	-3.00000e+01	
					         0.96833	-2.90000e+01	
					         0.97000	-2.80000e+01	
					         0.97167	-2.80000e+01	
					         0.97333	-2.70000e+01	
					         0.97500	-2.70000e+01	
					         0.97667	-2.60000e+01	
					         0.97833	-2.50000e+01	
					         0.98000	-2.50000e+01	
					         0.98167	-2.40000e+01	
					         0.98333	-2.30000e+01	
					         0.98500	-2.20000e+01	
					         0.98667	-2.10000e+01	
					         0.98833	-2.00000e+01	
					         0.99000	-2.00000e+01	
					         0.99167	-1.90000e+01	
					         0.99333	-1.90000e+01	
					         0.99500	-1.90000e+01	
					         0.99667	-1.90000e+01	
					         0.99833	-1.80000e+01	
					         1.00000	-1.80000e+01	
					         1.00167	-1.70000e+01	
					         1.00333	-1.70000e+01	
					         1.00500	-1.60000e+01	
					         1.00667	-1.50000e+01	
					         1.00833	-1.50000e+01	
					         1.01000	-1.40000e+01	
					         1.01167	-1.40000e+01	
					         1.01333	-1.30000e+01	
					         1.01500	-1.30000e+01	
					         1.01667	-1.30000e+01	
					         1.01833	-1.30000e+01	
					         1.02000	-1.30000e+01	
					         1.02167	-1.30000e+01	
					         1.02333	-1.30000e+01	
					         1.02500	-1.40000e+01	
					         1.02667	-1.40000e+01	
					         1.02833	-1.40000e+01	
					         1.03000	-1.40000e+01	
					         1.03167	-1.40000e+01	
					         1.03333	-1.30000e+01	
					         1.03500	-1.30000e+01	
					         1.03667	-1.20000e+01	
					         1.03833	-1.10000e+01	
					         1.04000	-1.10000e+01	
					         1.04167	-1.00000e+01	
					         1.04333	-9.00000e+00	
					         1.04500	-9.00000e+00	
					         1.04667	-8.00000e+00	
					         1.04833	-8.00000e+00	
					         1.05000	-8.00000e+00	
					         1.05167	-8.00000e+00	
					         1.05333	-8.00000e+00	
					         1.05500	-8.00000e+00	
					         1.05667	-8.00000e+00	
					         1.05833	-8.00000e+00	
					         1.06000	-8.00000e+00	
					         1.06167	-8.00000e+00	
					         1.06333	-8.00000e+00	
					         1.06500	-8.00000e+00	
					         1.06667	-8.00000e+00	
					         1.06833	-7.00000e+00	
					         1.07000	-7.00000e+00	
					         1.07167	-7.00000e+00	
					         1.07333	-6.00000e+00	
					         1.07500	-6.00000e+00	
					         1.07667	-5.00000e+00	
					         1.07833	-5.00000e+00	
					         1.08000	-5.00000e+00	
					         1.08167	-5.00000e+00	
					         1.08333	-4.00000e+00	
					         1.08500	-4.00000e+00	
					         1.08667	-4.00000e+00	
					         1.08833	-4.00000e+00	
					         1.09000	-3.00000e+00	
					         1.09167	-3.00000e+00	
					         1.09333	-3.00000e+00	
					         1.09500	-2.00000e+00	
					         1.09667	-1.00000e+00	
					         1.09833	-1.00000e+00	
					         1.10000	0.00000e+00	
					         1.10167	1.00000e+00	
					         1.10333	2.00000e+00	
					         1.10500	3.00000e+00	
					         1.10667	4.00000e+00	
					         1.10833	5.00000e+00	
					         1.11000	6.00000e+00	
					         1.11167	7.00000e+00	
					         1.11333	8.00000e+00	
					         1.11500	8.00000e+00	
					         1.11667	9.00000e+00	
					         1.11833	9.00000e+00	
					         1.12000	1.00000e+01	
					         1.12167	1.00000e+01	
					         1.12333	1.00000e+01	
					         1.12500	1.00000e+01	
					         1.12667	1.00000e+01	
					         1.12833	1.00000e+01	
					         1.13000	1.00000e+01	
					         1.13167	1.00000e+01	
					         1.13333	1.00000e+01	
					         1.13500	1.00000e+01	
					         1.13667	1.00000e+01	
					         1.13833	1.10000e+01	
					         1.14000	1.20000e+01	
					         1.14167	1.30000e+01	
					         1.14333	1.40000e+01	
					         1.14500	1.50000e+01	
					         1.14667	1.70000e+01	
					         1.14833	1.90000e+01	
					         1.15000	2.00000e+01	
					         1.15167	2.20000e+01	
					         1.15333	2.30000e+01	
					         1.15500	2.40000e+01	
					         1.15667	2.40000e+01	
					         1.15833	2.50000e+01	
					         1.16000	2.50000e+01	
					         1.16167	2.40000e+01	
					         1.16333	2.40000e+01	
					         1.16500	2.30000e+01	
					         1.16667	2.30000e+01	
					         1.16833	2.20000e+01	
					         1.17000	2.20000e+01	
					         1.17167	2.20000e+01	
					         1.17333	2.30000e+01	
					         1.17500	2.30000e+01	
					         1.17667	2.30000e+01	
					         1.17833	2.30000e+01	
					         1.18000	2.40000e+01	
					         1.18167	2.40000e+01	
					         1.18333	2.40000e+01	
					         1.18500	2.30000e+01	
					         1.18667	2.30000e+01	
					         1.18833	2.20000e+01	
					         1.19000	2.10000e+01	
					         1.19167	2.00000e+01	
					         1.19333	1.90000e+01	
					         1.19500	1.70000e+01	
					         1.19667	1.60000e+01	
					         1.19833	1.50000e+01	
					         1.20000	1.40000e+01	
					         1.20167	1.30000e+01	
					         1.20333	1.20000e+01	
					         1.20500	1.00000e+01	
					         1.20667	9.00000e+00	
					         1.20833	8.00000e+00	
					         1.21000	7.00000e+00	
					         1.21167	6.00000e+00	
					         1.21333	4.00000e+00	
					         1.21500	3.00000e+00	
					         1.21667	2.00000e+00	
					         1.21833	0.00000e+00	
					         1.22000	-1.00000e+00	
					         1.22167	-3.00000e+00	
					         1.22333	-5.00000e+00	
					         1.22500	-8.00000e+00	
					         1.22667	-1.00000e+01	
					         1.22833	-1.30000e+01	
					         1.23000	-1.50000e+01	
					         1.23167	-1.80000e+01	
					         1.23333	-2.00000e+01	
					         1.23500	-2.20000e+01	
					         1.23667	-2.40000e+01	
					         1.23833	-2.50000e+01	
					         1.24000	-2.60000e+01	
					         1.24167	-2.70000e+01	
					         1.24333	-2.80000e+01	
					         1.24500	-2.80000e+01	
					         1.24667	-2.80000e+01	
					         1.24833	-2.80000e+01	
					         1.25000	-2.80000e+01	
					         1.25167	-2.70000e+01	
					         1.25333	-2.70000e+01	
					         1.25500	-2.70000e+01	
					         1.25667	-2.60000e+01	
					         1.25833	-2.50000e+01	
					         1.26000	-2.50000e+01	
					         1.26167	-2.40000e+01	
					         1.26333	-2.40000e+01	
					         1.26500	-2.30000e+01	
					         1.26667	-2.30000e+01	
					         1.26833	-2.30000e+01	
					         1.27000	-2.30000e+01	
					         1.27167	-2.30000e+01	
					         1.27333	-2.30000e+01	
					         1.27500	-2.30000e+01	
					         1.27667	-2.40000e+01	
					         1.27833	-2.40000e+01	
					         1.28000	-2.40000e+01	
					         1.28167	-2.40000e+01	
					         1.28333	-2.40000e+01	
					         1.28500	-2.30000e+01	
					         1.28667	-2.30000e+01	
					         1.28833	-2.20000e+01	
					         1.29000	-2.10000e+01	
					         1.29167	-2.00000e+01	
					         1.29333	-1.90000e+01	
					         1.29500	-1.80000e+01	
					         1.29667	-1.80000e+01	
					         1.29833	-1.70000e+01	
					         1.30000	-1.70000e+01	
					         1.30167	-1.70000e+01	
					         1.30333	-1.80000e+01	
					         1.30500	-1.80000e+01	
					         1.30667	-1.90000e+01	
					         1.30833	-1.90000e+01	
					         1.31000	-1.90000e+01	
					         1.31167	-2.00000e+01	
					         1.31333	-1.90000e+01	
					         1.31500	-1.90000e+01	
					         1.31667	-1.90000e+01	
					         1.31833	-1.80000e+01	
					         1.32000	-1.70000e+01	
					         1.32167	-1.60000e+01	
					         1.32333	-1.50000e+01	
					         1.32500	-1.50000e+01	
					         1.32667	-1.40000e+01	
					         1.32833	-1.30000e+01	
					         1.33000	-1.30000e+01	
					         1.33167	-1.20000e+01	
					         1.33333	-1.20000e+01	
					         1.33500	-1.20000e+01	
					         1.33667	-1.10000e+01	
					         1.33833	-1.10000e+01	
					         1.34000	-1.00000e+01	
					         1.34167	-9.00000e+00	
					         1.34333	-8.00000e+00	
					         1.34500	-7.00000e+00	
					         1.34667	-6.00000e+00	
					         1.34833	-5.00000e+00	
					         1.35000	-4.00000e+00	
					         1.35167	-3.00000e+00	
					         1.35333	-2.00000e+00	
					         1.35500	-2.00000e+00	
					         1.35667	-1.00000e+00	
					         1.35833	-1.00000e+00	
					         1.36000	-1.00000e+00	
					         1.36167	-1.00000e+00	
					         1.36333	-1.00000e+00	
					         1.36500	-1.00000e+00	
					         1.36667	-2.00000e+00	
					         1.36833	-2.00000e+00	
					         1.37000	-2.00000e+00	
					         1.37167	-2.00000e+00	
					         1.37333	-1.00000e+00	
					         1.37500	-1.00000e+00	
					         1.37667	0.00000e+00	
					         1.37833	0.00000e+00	
					         1.38000	0.00000e+00	
					         1.38167	0.00000e+00	
					         1.38333	0.00000e+00	
					         1.38500	0.00000e+00	
					         1.38667	1.00000e+00	
					         1.38833	1.00000e+00	
					         1.39000	1.00000e+00	
					         1.39167	1.00000e+00	
					         1.39333	2.00000e+00	
					         1.39500	2.00000e+00	
					         1.39667	3.00000e+00	
					         1.39833	3.00000e+00	
					         1.40000	3.00000e+00	
					         1.40167	4.00000e+00	
					         1.40333	4.00000e+00	
					         1.40500	4.00000e+00	
					         1.40667	5.00000e+00	
					         1.40833	5.00000e+00	
					         1.41000	5.00000e+00	
					         1.41167	4.00000e+00	
					         1.41333	4.00000e+00	
					         1.41500	3.00000e+00	
					         1.41667	3.00000e+00	
					         1.41833	3.00000e+00	
					         1.42000	3.00000e+00	
					         1.42167	3.00000e+00	
					         1.42333	2.00000e+00	
					         1.42500	2.00000e+00	
					         1.42667	2.00000e+00	
					         1.42833	2.00000e+00	
					         1.43000	2.00000e+00	
					         1.43167	2.00000e+00	
					         1.43333	2.00000e+00	
					         1.43500	1.00000e+00	
					         1.43667	1.00000e+00	
					         1.43833	1.00000e+00	
					         1.44000	0.00000e+00	
					         1.44167	0.00000e+00	
					         1.44333	0.00000e+00	
					         1.44500	0.00000e+00	
					         1.44667	0.00000e+00	
					         1.44833	0.00000e+00	
					         1.45000	0.00000e+00	
					         1.45167	0.00000e+00	
					         1.45333	1.00000e+00	
					         1.45500	1.00000e+00	
					         1.45667	2.00000e+00	
					         1.45833	2.00000e+00	
					         1.46000	2.00000e+00	
					         1.46167	2.00000e+00	
					         1.46333	3.00000e+00	
					         1.46500	3.00000e+00	
					         1.46667	2.00000e+00	
					         1.46833	2.00000e+00	
					         1.47000	1.00000e+00	
					         1.47167	1.00000e+00	
					         1.47333	0.00000e+00	
					         1.47500	0.00000e+00	
					         1.47667	-1.00000e+00	
					         1.47833	-1.00000e+00	
					         1.48000	-1.00000e+00	
					         1.48167	-1.00000e+00	
					         1.48333	-1.00000e+00	
					         1.48500	0.00000e+00	
					         1.48667	0.00000e+00	
					         1.48833	1.00000e+00	
					         1.49000	2.00000e+00	
					         1.49167	2.00000e+00	
					         1.49333	3.00000e+00	
					         1.49500	3.00000e+00	
					         1.49667	3.00000e+00	
					         1.49833	3.00000e+00	
					         1.50000	3.00000e+00	
					         1.50167	3.00000e+00	
					         1.50333	2.00000e+00	
					         1.50500	2.00000e+00	
					         1.50667	2.00000e+00	
					         1.50833	2.00000e+00	
					         1.51000	2.00000e+00	
					         1.51167	2.00000e+00	
					         1.51333	3.00000e+00	
					         1.51500	3.00000e+00	
					         1.51667	4.00000e+00	
					         1.51833	4.00000e+00	
					         1.52000	5.00000e+00	
					         1.52167	5.00000e+00	
					         1.52333	5.00000e+00	
					         1.52500	5.00000e+00	
					         1.52667	5.00000e+00	
					         1.52833	5.00000e+00	
					         1.53000	4.00000e+00	
					         1.53167	4.00000e+00	
					         1.53333	4.00000e+00	
					         1.53500	3.00000e+00	
					         1.53667	3.00000e+00	
					         1.53833	3.00000e+00	
					         1.54000	2.00000e+00	
					         1.54167	2.00000e+00	
					         1.54333	2.00000e+00	
					         1.54500	2.00000e+00	
					         1.54667	2.00000e+00	
					         1.54833	2.00000e+00	
					         1.55000	2.00000e+00	
					         1.55167	2.00000e+00	
					         1.55333	2.00000e+00	
					         1.55500	2.00000e+00	
					         1.55667	2.00000e+00	
					         1.55833	2.00000e+00	
					         1.56000	1.00000e+00	
					         1.56167	1.00000e+00	
					         1.56333	0.00000e+00	
					         1.56500	0.00000e+00	
					         1.56667	0.00000e+00	
					         1.56833	0.00000e+00	
					         1.57000	0.00000e+00	
					         1.57167	0.00000e+00	
					         1.57333	1.00000e+00	
					         1.57500	1.00000e+00	
					         1.57667	2.00000e+00	
					         1.57833	3.00000e+00	
					         1.58000	3.00000e+00	
					         1.58167	4.00000e+00	
					         1.58333	4.00000e+00	
					         1.58500	5.00000e+00	
					         1.58667	5.00000e+00	
					         1.58833	5.00000e+00	
					         1.59000	5.00000e+00	
					         1.59167	5.00000e+00	
					         1.59333	4.00000e+00	
					         1.59500	3.00000e+00	
					         1.59667	3.00000e+00	
					         1.59833	2.00000e+00	
					         1.60000	1.00000e+00	
					         1.60167	1.00000e+00	
					         1.60333	0.00000e+00	
					         1.60500	0.00000e+00	
					         1.60667	-1.00000e+00	
					         1.60833	-1.00000e+00	
					         1.61000	-1.00000e+00	
					         1.61167	-1.00000e+00	
					         1.61333	-1.00000e+00	
					         1.61500	-1.00000e+00	
					         1.61667	-1.00000e+00	
					         1.61833	0.00000e+00	
					         1.62000	0.00000e+00	
					         1.62167	0.00000e+00	
					         1.62333	0.00000e+00	
					         1.62500	0.00000e+00	
					         1.62667	0.00000e+00	
					         1.62833	0.00000e+00	
					         1.63000	0.00000e+00	
					         1.63167	0.00000e+00	
					         1.63333	-1.00000e+00	
					         1.63500	-1.00000e+00	
					         1.63667	-2.00000e+00	
					         1.63833	-2.00000e+00	
					         1.64000	-3.00000e+00	
					         1.64167	-3.00000e+00	
					         1.64333	-3.00000e+00	
					         1.64500	-3.00000e+00	
					         1.64667	-3.00000e+00	
					         1.64833	-3.00000e+00	
					         1.65000	-3.00000e+00	
					         1.65167	-2.00000e+00	
					         1.65333	-2.00000e+00	
					         1.65500	-1.00000e+00	
					         1.65667	-1.00000e+00	
					         1.65833	0.00000e+00	
					         1.66000	1.00000e+00	
					         1.66167	1.00000e+00	
					         1.66333	2.00000e+00	
					         1.66500	2.00000e+00	
					         1.66667	3.00000e+00	
					         1.66833	3.00000e+00	
					         1.67000	4.00000e+00	
					         1.67167	5.00000e+00	
					         1.67333	6.00000e+00	
					         1.67500	7.00000e+00	
					         1.67667	8.00000e+00	
					         1.67833	1.00000e+01	
					         1.68000	1.10000e+01	
					         1.68167	1.30000e+01	
					         1.68333	1.40000e+01	
					         1.68500	1.50000e+01	
					         1.68667	1.70000e+01	
					         1.68833	1.80000e+01	
					         1.69000	1.90000e+01	
					         1.69167	2.00000e+01	
					         1.69333	2.10000e+01	
					         1.69500	2.20000e+01	
					         1.69667	2.30000e+01	
					         1.69833	2.30000e+01	
					         1.70000	2.30000e+01	
					         1.70167	2.30000e+01	
					         1.70333	2.20000e+01	
					         1.70500	2.10000e+01	
					         1.70667	2.10000e+01	
					         1.70833	2.00000e+01	
					         1.71000	2.00000e+01	
					         1.71167	2.00000e+01	
					         1.71333	1.90000e+01	
					         1.71500	1.90000e+01	
					         1.71667	1.80000e+01	
					         1.71833	1.70000e+01	
					         1.72000	1.70000e+01	
					         1.72167	1.60000e+01	
					         1.72333	1.40000e+01	
					         1.72500	1.30000e+01	
					         1.72667	1.10000e+01	
					         1.72833	8.00000e+00	
					         1.73000	6.00000e+00	
					         1.73167	3.00000e+00	
					         1.73333	0.00000e+00	
					         1.73500	-3.00000e+00	
					         1.73667	-5.00000e+00	
					         1.73833	-7.00000e+00	
					         1.74000	-9.00000e+00	
					         1.74167	-1.10000e+01	
					         1.74333	-1.20000e+01	
					         1.74500	-1.30000e+01	
					         1.74667	-1.40000e+01	
					         1.74833	-1.50000e+01	
					         1.75000	-1.50000e+01	
					         1.75167	-1.50000e+01	
					         1.75333	-1.50000e+01	
					         1.75500	-1.50000e+01	
					         1.75667	-1.50000e+01	
					         1.75833	-1.50000e+01	
					         1.76000	-1.50000e+01	
					         1.76167	-1.40000e+01	
					         1.76333	-1.40000e+01	
					         1.76500	-1.40000e+01	
					         1.76667	-1.30000e+01	
					         1.76833	-1.20000e+01	
					         1.77000	-1.20000e+01	
					         1.77167	-1.10000e+01	
					         1.77333	-1.10000e+01	
					         1.77500	-1.00000e+01	
					         1.77667	-1.00000e+01	
					         1.77833	-1.00000e+01	
					         1.78000	-1.10000e+01	
					         1.78167	-1.10000e+01	
					         1.78333	-1.20000e+01	
					         1.78500	-1.20000e+01	
					         1.78667	-1.30000e+01	
					         1.78833	-1.30000e+01	
					         1.79000	-1.30000e+01	
					         1.79167	-1.10000e+01	
					         1.79333	-9.00000e+00	
					         1.79500	-5.00000e+00	
					         1.79667	0.00000e+00	
					         1.79833	7.00000e+00	
					         1.80000	1.60000e+01	
					         1.80167	2.70000e+01	
					         1.80333	3.90000e+01	
					         1.80500	5.30000e+01	
					         1.80667	6.60000e+01	
					         1.80833	8.00000e+01	
					         1.81000	9.30000e+01	
					         1.81167	1.05000e+02	
					         1.81333	1.14000e+02	
					         1.81500	1.21000e+02	
					         1.81667	1.24000e+02	
					         1.81833	1.24000e+02	
					         1.82000	1.21000e+02	
					         1.82167	1.14000e+02	
					         1.82333	1.04000e+02	
					         1.82500	9.20000e+01	
					         1.82667	7.80000e+01	
					         1.82833	6.20000e+01	
					         1.83000	4.60000e+01	
					         1.83167	2.90000e+01	
					         1.83333	1.30000e+01	
					         1.83500	-2.00000e+00	
					         1.83667	-1.50000e+01	
					         1.83833	-2.70000e+01	
					         1.84000	-3.70000e+01	
					         1.84167	-4.50000e+01	
					         1.84333	-5.20000e+01	
					         1.84500	-5.60000e+01	
					         1.84667	-5.90000e+01	
					         1.84833	-6.00000e+01	
					         1.85000	-6.00000e+01	
					         1.85167	-5.90000e+01	
					         1.85333	-5.60000e+01	
					         1.85500	-5.30000e+01	
					         1.85667	-4.90000e+01	
					         1.85833	-4.50000e+01	
					         1.86000	-4.10000e+01	
					         1.86167	-3.70000e+01	
					         1.86333	-3.40000e+01	
					         1.86500	-3.00000e+01	
					         1.86667	-2.70000e+01	
					         1.86833	-2.50000e+01	
					         1.87000	-2.30000e+01	
					         1.87167	-2.10000e+01	
					         1.87333	-2.00000e+01	
					         1.87500	-1.90000e+01	
					         1.87667	-1.80000e+01	
					         1.87833	-1.80000e+01	
					         1.88000	-1.70000e+01	
					         1.88167	-1.60000e+01	
					         1.88333	-1.50000e+01	
					         1.88500	-1.40000e+01	
					         1.88667	-1.30000e+01	
					         1.88833	-1.20000e+01	
					         1.89000	-1.10000e+01	
					         1.89167	-1.10000e+01	
					         1.89333	-1.00000e+01	
					         1.89500	-1.00000e+01	
					         1.89667	-1.00000e+01	
					         1.89833	-1.00000e+01	
					         1.90000	-1.00000e+01	
					         1.90167	-1.10000e+01	
					         1.90333	-1.10000e+01	
					         1.90500	-1.20000e+01	
					         1.90667	-1.30000e+01	
					         1.90833	-1.30000e+01	
					         1.91000	-1.30000e+01	
					         1.91167	-1.30000e+01	
					         1.91333	-1.30000e+01	
					         1.91500	-1.30000e+01	
					         1.91667	-1.20000e+01	
					         1.91833	-1.20000e+01	
					         1.92000	-1.10000e+01	
					         1.92167	-1.00000e+01	
					         1.92333	-9.00000e+00	
					         1.92500	-9.00000e+00	
					         1.92667	-8.00000e+00	
					         1.92833	-8.00000e+00	
					         1.93000	-8.00000e+00	
					         1.93167	-7.00000e+00	
					         1.93333	-7.00000e+00	
					         1.93500	-7.00000e+00	
					         1.93667	-6.00000e+00	
					         1.93833	-6.00000e+00	
					         1.94000	-5.00000e+00	
					         1.94167	-5.00000e+00	
					         1.94333	-4.00000e+00	
					         1.94500	-4.00000e+00	
					         1.94667	-3.00000e+00	
					         1.94833	-3.00000e+00	
					         1.95000	-2.00000e+00	
					         1.95167	-2.00000e+00	
					         1.95333	-1.00000e+00	
					         1.95500	-1.00000e+00	
					         1.95667	-1.00000e+00	
					         1.95833	0.00000e+00	
					         1.96000	0.00000e+00	
					         1.96167	0.00000e+00	
					         1.96333	1.00000e+00	
					         1.96500	2.00000e+00	
					         1.96667	2.00000e+00	
					         1.96833	3.00000e+00	
					         1.97000	4.00000e+00	
					         1.97167	5.00000e+00	
					         1.97333	6.00000e+00	
					         1.97500	7.00000e+00	
					         1.97667	7.00000e+00	
					         1.97833	7.00000e+00	
					         1.98000	8.00000e+00	
					         1.98167	8.00000e+00	
					         1.98333	8.00000e+00	
					         1.98500	7.00000e+00	
					         1.98667	7.00000e+00	
					         1.98833	6.00000e+00	
					         1.99000	6.00000e+00	
					         1.99167	5.00000e+00	
					         1.99333	5.00000e+00	
					         1.99500	4.00000e+00	
					         1.99667	4.00000e+00	
					         1.99833	4.00000e+00	
					         2.00000	4.00000e+00	
					         2.00167	4.00000e+00	
					         2.00333	4.00000e+00	
					         2.00500	4.00000e+00	
					         2.00667	5.00000e+00	
					         2.00833	5.00000e+00	
					         2.01000	6.00000e+00	
					         2.01167	7.00000e+00	
					         2.01333	8.00000e+00	
					         2.01500	9.00000e+00	
					         2.01667	1.10000e+01	
					         2.01833	1.20000e+01	
					         2.02000	1.30000e+01	
					         2.02167	1.40000e+01	
					         2.02333	1.60000e+01	
					         2.02500	1.70000e+01	
					         2.02667	1.80000e+01	
					         2.02833	1.80000e+01	
					         2.03000	1.90000e+01	
					         2.03167	2.00000e+01	
					         2.03333	2.10000e+01	
					         2.03500	2.10000e+01	
					         2.03667	2.20000e+01	
					         2.03833	2.20000e+01	
					         2.04000	2.20000e+01	
					         2.04167	2.30000e+01	
					         2.04333	2.30000e+01	
					         2.04500	2.40000e+01	
					         2.04667	2.40000e+01	
					         2.04833	2.50000e+01	
					         2.05000	2.50000e+01	
					         2.05167	2.60000e+01	
					         2.05333	2.70000e+01	
					         2.05500	2.80000e+01	
					         2.05667	2.80000e+01	
					         2.05833	2.90000e+01	
					         2.06000	3.00000e+01	
					         2.06167	3.10000e+01	
					         2.06333	3.20000e+01	
					         2.06500	3.30000e+01	
					         2.06667	3.30000e+01	
					         2.06833	3.40000e+01	
					         2.07000	3.50000e+01	
					         2.07167	3.50000e+01	
					         2.07333	3.50000e+01	
					         2.07500	3.40000e+01	
					         2.07667	3.40000e+01	
					         2.07833	3.30000e+01	
					         2.08000	3.20000e+01	
					         2.08167	3.20000e+01	
					         2.08333	3.10000e+01	
					         2.08500	3.00000e+01	
					         2.08667	3.00000e+01	
					         2.08833	2.90000e+01	
					         2.09000	2.90000e+01	
					         2.09167	2.80000e+01	
					         2.09333	2.80000e+01	
					         2.09500	2.70000e+01	
					         2.09667	2.70000e+01	
					         2.09833	2.60000e+01	
					         2.10000	2.50000e+01	
					         2.10167	2.40000e+01	
					         2.10333	2.30000e+01	
					         2.10500	2.20000e+01	
					         2.10667	2.00000e+01	
					         2.10833	1.90000e+01	
					         2.11000	1.70000e+01	
					         2.11167	1.60000e+01	
					         2.11333	1.40000e+01	
					         2.11500	1.20000e+01	
					         2.11667	1.10000e+01	
					         2.11833	9.00000e+00	
					         2.12000	7.00000e+00	
					         2.12167	6.00000e+00	
					         2.12333	4.00000e+00	
					         2.12500	2.00000e+00	
					         2.12667	0.00000e+00	
					         2.12833	-2.00000e+00	
					         2.13000	-4.00000e+00	
					         2.13167	-6.00000e+00	
					         2.13333	-8.00000e+00	
					         2.13500	-1.00000e+01	
					         2.13667	-1.20000e+01	
					         2.13833	-1.40000e+01	
					         2.14000	-1.50000e+01	
					         2.14167	-1.70000e+01	
					         2.14333	-1.80000e+01	
					         2.14500	-1.90000e+01	
					         2.14667	-2.00000e+01	
					         2.14833	-2.00000e+01	
					         2.15000	-2.10000e+01	
					         2.15167	-2.10000e+01	
					         2.15333	-2.10000e+01	
					         2.15500	-2.10000e+01	
					         2.15667	-2.10000e+01	
					         2.15833	-2.10000e+01	
					         2.16000	-2.20000e+01	
					         2.16167	-2.20000e+01	
					         2.16333	-2.30000e+01	
					         2.16500	-2.40000e+01	
					         2.16667	-2.40000e+01	
					         2.16833	-2.50000e+01	
					         2.17000	-2.60000e+01	
					         2.17167	-2.70000e+01	
					         2.17333	-2.80000e+01	
					         2.17500	-2.90000e+01	
					         2.17667	-3.00000e+01	
					         2.17833	-3.00000e+01	
					         2.18000	-3.00000e+01	
					         2.18167	-3.00000e+01	
					         2.18333	-3.00000e+01	
					         2.18500	-3.00000e+01	
					         2.18667	-2.90000e+01	
					         2.18833	-2.80000e+01	
					         2.19000	-2.70000e+01	
					         2.19167	-2.70000e+01	
					         2.19333	-2.60000e+01	
					         2.19500	-2.50000e+01	
					         2.19667	-2.40000e+01	
					         2.19833	-2.30000e+01	
					         2.20000	-2.20000e+01	
					         2.20167	-2.10000e+01	
					         2.20333	-2.10000e+01	
					         2.20500	-2.00000e+01	
					         2.20667	-2.00000e+01	
					         2.20833	-2.00000e+01	
					         2.21000	-2.00000e+01	
					         2.21167	-2.00000e+01	
					         2.21333	-2.00000e+01	
					         2.21500	-2.00000e+01	
					         2.21667	-2.00000e+01	
					         2.21833	-2.00000e+01	
					         2.22000	-2.10000e+01	
					         2.22167	-2.10000e+01	
					         2.22333	-2.00000e+01	
					         2.22500	-2.00000e+01	
					         2.22667	-1.90000e+01	
					         2.22833	-1.80000e+01	
					         2.23000	-1.70000e+01	
					         2.23167	-1.60000e+01	
					         2.23333	-1.50000e+01	
					         2.23500	-1.30000e+01	
					         2.23667	-1.20000e+01	
					         2.23833	-1.00000e+01	
					         2.24000	-9.00000e+00	
					         2.24167	-8.00000e+00	
					         2.24333	-7.00000e+00	
					         2.24500	-6.00000e+00	
					         2.24667	-5.00000e+00	
					         2.24833	-4.00000e+00	
					         2.25000	-4.00000e+00	
					         2.25167	-4.00000e+00	
					         2.25333	-4.00000e+00	
					         2.25500	-4.00000e+00	
					         2.25667	-4.00000e+00	
					         2.25833	-4.00000e+00	
					         2.26000	-4.00000e+00	
					         2.26167	-4.00000e+00	
					         2.26333	-4.00000e+00	
					         2.26500	-4.00000e+00	
					         2.26667	-3.00000e+00	
					         2.26833	-3.00000e+00	
					         2.27000	-2.00000e+00	
					         2.27167	-1.00000e+00	
					         2.27333	0.00000e+00	
					         2.27500	1.00000e+00	
					         2.27667	2.00000e+00	
					         2.27833	3.00000e+00	
					         2.28000	3.00000e+00	
					         2.28167	4.00000e+00	
					         2.28333	4.00000e+00	
					         2.28500	3.00000e+00	
					         2.28667	3.00000e+00	
					         2.28833	2.00000e+00	
					         2.29000	1.00000e+00	
					         2.29167	0.00000e+00	
					         2.29333	0.00000e+00	
					         2.29500	-1.00000e+00	
					         2.29667	-1.00000e+00	
					         2.29833	-1.00000e+00	
					         2.30000	-1.00000e+00	
					         2.30167	0.00000e+00	
					         2.30333	0.00000e+00	
					         2.30500	1.00000e+00	
					         2.30667	1.00000e+00	
					         2.30833	2.00000e+00	
					         2.31000	3.00000e+00	
					         2.31167	3.00000e+00	
					         2.31333	3.00000e+00	
					         2.31500	3.00000e+00	
					         2.31667	3.00000e+00	
					         2.31833	2.00000e+00	
					         2.32000	2.00000e+00	
					         2.32167	1.00000e+00	
					         2.32333	1.00000e+00	
					         2.32500	0.00000e+00	
					         2.32667	0.00000e+00	
					         2.32833	0.00000e+00	
					         2.33000	0.00000e+00	
					         2.33167	0.00000e+00	
					         2.33333	1.00000e+00	
					         2.33500	1.00000e+00	
					         2.33667	1.00000e+00	
					         2.33833	2.00000e+00	
					         2.34000	2.00000e+00	
					         2.34167	2.00000e+00	
					         2.34333	1.00000e+00	
					         2.34500	1.00000e+00	
					         2.34667	0.00000e+00	
					         2.34833	-1.00000e+00	
					         2.35000	-2.00000e+00	
					         2.35167	-3.00000e+00	
					         2.35333	-4.00000e+00	
					         2.35500	-5.00000e+00	
					         2.35667	-6.00000e+00	
					         2.35833	-7.00000e+00	
					         2.36000	-7.00000e+00	
					         2.36167	-7.00000e+00	
					         2.36333	-7.00000e+00	
					         2.36500	-7.00000e+00	
					         2.36667	-6.00000e+00	
					         2.36833	-5.00000e+00	
					         2.37000	-5.00000e+00	
					         2.37167	-4.00000e+00	
					         2.37333	-3.00000e+00	
					         2.37500	-2.00000e+00	
					         2.37667	-1.00000e+00	
					         2.37833	0.00000e+00	
					         2.38000	0.00000e+00	
					         2.38167	1.00000e+00	
					         2.38333	1.00000e+00	
					         2.38500	2.00000e+00	
					         2.38667	2.00000e+00	
					         2.38833	2.00000e+00	
					         2.39000	3.00000e+00	
					         2.39167	3.00000e+00	
					         2.39333	3.00000e+00	
					         2.39500	3.00000e+00	
					         2.39667	3.00000e+00	
					         2.39833	2.00000e+00	
					         2.40000	2.00000e+00	
					         2.40167	1.00000e+00	
					         2.40333	1.00000e+00	
					         2.40500	0.00000e+00	
					         2.40667	-1.00000e+00	
					         2.40833	-2.00000e+00	
					         2.41000	-3.00000e+00	
					         2.41167	-4.00000e+00	
					         2.41333	-6.00000e+00	
					         2.41500	-6.00000e+00	
					         2.41667	-7.00000e+00	
					         2.41833	-8.00000e+00	
					         2.42000	-8.00000e+00	
					         2.42167	-8.00000e+00	
					         2.42333	-8.00000e+00	
					         2.42500	-8.00000e+00	
					         2.42667	-8.00000e+00	
					         2.42833	-7.00000e+00	
					         2.43000	-7.00000e+00	
					         2.43167	-6.00000e+00	
					         2.43333	-5.00000e+00	
					         2.43500	-4.00000e+00	
					         2.43667	-4.00000e+00	
					         2.43833	-3.00000e+00	
					         2.44000	-2.00000e+00	
					         2.44167	-2.00000e+00	
					         2.44333	-2.00000e+00	
					         2.44500	-1.00000e+00	
					         2.44667	-1.00000e+00	
					         2.44833	-1.00000e+00	
					         2.45000	-1.00000e+00	
					         2.45167	-1.00000e+00	
					         2.45333	-2.00000e+00	
					         2.45500	-3.00000e+00	
					         2.45667	-3.00000e+00	
					         2.45833	-4.00000e+00	
					         2.46000	-5.00000e+00	
					         2.46167	-6.00000e+00	
					         2.46333	-7.00000e+00	
					         2.46500	-7.00000e+00	
					         2.46667	-7.00000e+00	
					         2.46833	-7.00000e+00	
					         2.47000	-7.00000e+00	
					         2.47167	-7.00000e+00	
					         2.47333	-6.00000e+00	
					         2.47500	-6.00000e+00	
					         2.47667	-5.00000e+00	
					         2.47833	-4.00000e+00	
					         2.48000	-3.00000e+00	
					         2.48167	-2.00000e+00	
					         2.48333	-2.00000e+00	
					         2.48500	-1.00000e+00	
					         2.48667	0.00000e+00	
					         2.48833	0.00000e+00	
					         2.49000	1.00000e+00	
					         2.49167	1.00000e+00	
					         2.49333	1.00000e+00	
					         2.49500	2.00000e+00	
					         2.49667	2.00000e+00	
					         2.49833	2.00000e+00	
					         2.50000	3.00000e+00	
					         2.50167	3.00000e+00	
					         2.50333	3.00000e+00	
					         2.50500	3.00000e+00	
					         2.50667	3.00000e+00	
					         2.50833	3.00000e+00	
					         2.51000	3.00000e+00	
					         2.51167	3.00000e+00	
					         2.51333	3.00000e+00	
					         2.51500	3.00000e+00	
					         2.51667	2.00000e+00	
					         2.51833	2.00000e+00	
					         2.52000	1.00000e+00	
					         2.52167	1.00000e+00	
					         2.52333	0.00000e+00	
					         2.52500	-1.00000e+00	
					         2.52667	-2.00000e+00	
					         2.52833	-2.00000e+00	
					         2.53000	-3.00000e+00	
					         2.53167	-3.00000e+00	
					         2.53333	-3.00000e+00	
					         2.53500	-3.00000e+00	
					         2.53667	-2.00000e+00	
					         2.53833	-2.00000e+00	
					         2.54000	-1.00000e+00	
					         2.54167	0.00000e+00	
					         2.54333	1.00000e+00	
					         2.54500	2.00000e+00	
					         2.54667	2.00000e+00	
					         2.54833	3.00000e+00	
					         2.55000	3.00000e+00	
					         2.55167	3.00000e+00	
					         2.55333	3.00000e+00	
					         2.55500	3.00000e+00	
					         2.55667	3.00000e+00	
					         2.55833	3.00000e+00	
					         2.56000	2.00000e+00	
					         2.56167	3.00000e+00	
					         2.56333	3.00000e+00	
					         2.56500	4.00000e+00	
					         2.56667	6.00000e+00	
					         2.56833	8.00000e+00	
					         2.57000	1.00000e+01	
					         2.57167	1.20000e+01	
					         2.57333	1.50000e+01	
					         2.57500	1.70000e+01	
					         2.57667	1.90000e+01	
					         2.57833	2.00000e+01	
					         2.58000	2.20000e+01	
					         2.58167	2.30000e+01	
					         2.58333	2.40000e+01	
					         2.58500	2.50000e+01	
					         2.58667	2.50000e+01	
					         2.58833	2.50000e+01	
					         2.59000	2.50000e+01	
					         2.59167	2.50000e+01	
					         2.59333	2.50000e+01	
					         2.59500	2.40000e+01	
					         2.59667	2.40000e+01	
					         2.59833	2.30000e+01	
					         2.60000	2.30000e+01	
					         2.60167	2.30000e+01	
					         2.60333	2.20000e+01	
					         2.60500	2.20000e+01	
					         2.60667	2.10000e+01	
					         2.60833	2.10000e+01	
					         2.61000	2.00000e+01	
					         2.61167	1.90000e+01	
					         2.61333	1.80000e+01	
					         2.61500	1.70000e+01	
					         2.61667	1.50000e+01	
					         2.61833	1.30000e+01	
					         2.62000	1.10000e+01	
					         2.62167	9.00000e+00	
					         2.62333	6.00000e+00	
					         2.62500	4.00000e+00	
					         2.62667	1.00000e+00	
					         2.62833	-1.00000e+00	
					         2.63000	-4.00000e+00	
					         2.63167	-6.00000e+00	
					         2.63333	-8.00000e+00	
					         2.63500	-1.00000e+01	
					         2.63667	-1.10000e+01	
					         2.63833	-1.20000e+01	
					         2.64000	-1.30000e+01	
					         2.64167	-1.30000e+01	
					         2.64333	-1.30000e+01	
					         2.64500	-1.30000e+01	
					         2.64667	-1.20000e+01	
					         2.64833	-1.20000e+01	
					         2.65000	-1.20000e+01	
					         2.65167	-1.10000e+01	
					         2.65333	-1.00000e+01	
					         2.65500	-1.00000e+01	
					         2.65667	-1.00000e+01	
					         2.65833	-9.00000e+00	
					         2.66000	-9.00000e+00	
					         2.66167	-1.00000e+01	
					         2.66333	-1.00000e+01	
					         2.66500	-1.00000e+01	
					         2.66667	-1.10000e+01	
					         2.66833	-1.10000e+01	
					         2.67000	-1.20000e+01	
					         2.67167	-1.20000e+01	
					         2.67333	-1.30000e+01	
					         2.67500	-1.30000e+01	
					         2.67667	-1.40000e+01	
					         2.67833	-1.50000e+01	
					         2.68000	-1.50000e+01	
					         2.68167	-1.50000e+01	
					         2.68333	-1.50000e+01	
					         2.68500	-1.30000e+01	
					         2.68667	-1.10000e+01	
					         2.68833	-6.00000e+00	
					         2.69000	0.00000e+00	
					         2.69167	8.00000e+00	
					         2.69333	1.80000e+01	
					         2.69500	3.00000e+01	
					         2.69667	4.30000e+01	
					         2.69833	5.80000e+01	
					         2.70000	7.30000e+01	
					         2.70167	8.70000e+01	
					         2.70333	1.01000e+02	
					         2.70500	1.12000e+02	
					         2.70667	1.21000e+02	
					         2.70833	1.27000e+02	
					         2.71000	1.28000e+02	
					         2.71167	1.26000e+02	
					         2.71333	1.20000e+02	
					         2.71500	1.11000e+02	
					         2.71667	9.90000e+01	
					         2.71833	8.40000e+01	
					         2.72000	6.80000e+01	
					         2.72167	5.00000e+01	
					         2.72333	3.30000e+01	
					         2.72500	1.50000e+01	
					         2.72667	-1.00000e+00	
					         2.72833	-1.60000e+01	
					         2.73000	-2.90000e+01	
					         2.73167	-4.00000e+01	
					         2.73333	-4.90000e+01	
					         2.73500	-5.70000e+01	
					         2.73667	-6.20000e+01	
					         2.73833	-6.60000e+01	
					         2.74000	-6.80000e+01	
					         2.74167	-6.80000e+01	
					         2.74333	-6.70000e+01	
					         2.74500	-6.50000e+01	
					         2.74667	-6.30000e+01	
					         2.74833	-6.00000e+01	
					         2.75000	-5.60000e+01	
					         2.75167	-5.20000e+01	
