Grayscale intensity, in dB

Time (s) :	Trace 1 : 	Trace 2 : 	Trace 3 : 		Ecg : 		
0.00131   	-1.78857e+01	-4.63300e+01	-3.08168e+01		         0.00000	7.10000e+01	
0.01721   	-1.78120e+01	-4.64627e+01	-3.29450e+01		         0.00167	9.80000e+01	
0.03311   	-1.76772e+01	-4.52405e+01	-3.37487e+01		         0.00333	1.29000e+02	
0.04902   	-1.67546e+01	-4.37113e+01	-3.32165e+01		         0.00500	1.64000e+02	
0.06492   	-1.75676e+01	-4.54320e+01	-3.17192e+01		         0.00667	2.01000e+02	
0.08082   	-1.81413e+01	-4.31362e+01	-3.10258e+01		         0.00833	2.40000e+02	
0.09672   	-1.82521e+01	-4.15313e+01	-3.07288e+01		         0.01000	2.80000e+02	
0.11262   	-1.80994e+01	-3.95520e+01	-3.21627e+01		         0.01167	3.19000e+02	
0.12852   	-1.92189e+01	-4.29682e+01	-2.92349e+01		         0.01333	3.56000e+02	
0.14443   	-2.06879e+01	-4.28323e+01	-2.96510e+01		         0.01500	3.89000e+02	
0.16033   	-2.11843e+01	-4.28299e+01	-2.81598e+01		         0.01667	4.17000e+02	
0.17623   	-2.32331e+01	-4.54874e+01	-2.98396e+01		         0.01833	4.39000e+02	
0.19213   	-2.52567e+01	-4.59646e+01	-2.87080e+01		         0.02000	4.53000e+02	
0.20803   	-2.82426e+01	-4.54711e+01	-3.02754e+01		         0.02167	4.59000e+02	
0.22393   	-2.89963e+01	-4.62177e+01	-3.08989e+01		         0.02333	4.56000e+02	
0.23984   	-2.98673e+01	-4.69341e+01	-3.17000e+01		         0.02500	4.45000e+02	
0.25574   	-3.12111e+01	-4.44158e+01	-3.28394e+01		         0.02667	4.25000e+02	
0.27164   	-3.27830e+01	-4.59468e+01	-3.39813e+01		         0.02833	3.98000e+02	
0.28754   	-3.34678e+01	-4.58312e+01	-3.50226e+01		         0.03000	3.65000e+02	
0.30344   	-3.36085e+01	-4.64668e+01	-3.40475e+01		         0.03167	3.27000e+02	
0.31935   	-3.40390e+01	-4.78209e+01	-3.38517e+01		         0.03333	2.86000e+02	
0.33525   	-3.38875e+01	-4.89358e+01	-3.57447e+01		         0.03500	2.42000e+02	
0.35115   	-3.38674e+01	-4.98726e+01	-3.94745e+01		         0.03667	1.99000e+02	
0.36706   	-3.41000e+01	-5.06380e+01	-4.15604e+01		         0.03833	1.56000e+02	
0.38296   	-3.39157e+01	-5.12806e+01	-4.33182e+01		         0.04000	1.15000e+02	
0.39887   	-3.39236e+01	-5.16704e+01	-4.56946e+01		         0.04167	7.70000e+01	
0.41476   	-3.46576e+01	-5.09710e+01	-4.70452e+01		         0.04333	4.30000e+01	
0.43067   	-3.43459e+01	-5.16524e+01	-4.66418e+01		         0.04500	1.20000e+01	
0.44656   	-3.06585e+01	-5.15645e+01	-4.54738e+01		         0.04667	-1.40000e+01	
0.46247   	-3.07818e+01	-5.10080e+01	-4.47828e+01		         0.04833	-3.80000e+01	
0.47837   	-3.00837e+01	-5.03201e+01	-4.51579e+01		         0.05000	-5.70000e+01	
0.49427   	-3.08557e+01	-5.02634e+01	-4.67967e+01		         0.05167	-7.40000e+01	
0.51017   	-3.38003e+01	-5.07802e+01	-4.76900e+01		         0.05333	-8.70000e+01	
0.52608   	-3.61142e+01	-5.05268e+01	-4.86019e+01		         0.05500	-9.80000e+01	
0.54197   	-3.73194e+01	-5.04631e+01	-4.89142e+01		         0.05667	-1.07000e+02	
0.55788   	-3.51170e+01	-4.80178e+01	-4.75594e+01		         0.05833	-1.14000e+02	
0.57378   	-3.12880e+01	-4.70355e+01	-4.52494e+01		         0.06000	-1.19000e+02	
0.58978   	-2.70209e+01	-4.34063e+01	-4.05471e+01		         0.06167	-1.22000e+02	
0.60558   	-2.26162e+01	-4.06103e+01	-3.72521e+01		         0.06333	-1.25000e+02	
0.62149   	-1.94319e+01	-3.96724e+01	-3.54097e+01		         0.06500	-1.26000e+02	
0.63738   	-1.99622e+01	-3.98381e+01	-3.34943e+01		         0.06667	-1.26000e+02	
0.65329   	-1.92453e+01	-4.00189e+01	-3.31979e+01		         0.06833	-1.26000e+02	
0.66919   	-1.94328e+01	-3.95247e+01	-3.29562e+01		         0.07000	-1.25000e+02	
0.68509   	-1.99819e+01	-4.05423e+01	-3.28824e+01		         0.07167	-1.24000e+02	
0.70099   	-1.86947e+01	-3.99006e+01	-3.31059e+01		         0.07333	-1.22000e+02	
0.71690   	-1.87295e+01	-4.06491e+01	-3.31907e+01		         0.07500	-1.20000e+02	
0.73281   	-1.94417e+01	-4.26872e+01	-3.33729e+01		         0.07667	-1.19000e+02	
0.74870   	-1.97078e+01	-4.35460e+01	-3.36743e+01		         0.07833	-1.17000e+02	
0.76460   	-2.01815e+01	-4.34106e+01	-3.37304e+01		         0.08000	-1.15000e+02	
0.78050   	-2.05877e+01	-4.35109e+01	-3.45335e+01		         0.08167	-1.13000e+02	
0.79641   	-2.06289e+01	-4.38483e+01	-3.52509e+01		         0.08333	-1.11000e+02	
0.81231   	-2.05429e+01	-4.32797e+01	-3.57199e+01		         0.08500	-1.09000e+02	
0.82821   	-2.04098e+01	-4.34856e+01	-3.59687e+01		         0.08667	-1.07000e+02	
0.84411   	-2.01961e+01	-4.28733e+01	-3.64011e+01		         0.08833	-1.04000e+02	
0.86001   	-2.00277e+01	-4.21218e+01	-3.69698e+01		         0.09000	-1.02000e+02	
0.87592   	-2.01261e+01	-4.15768e+01	-3.71676e+01		         0.09167	-1.00000e+02	
0.89182   	-2.01596e+01	-4.17506e+01	-3.73144e+01		         0.09333	-9.70000e+01	
0.90772   	-2.01694e+01	-4.24690e+01	-3.72738e+01		         0.09500	-9.50000e+01	
0.92362   	-2.03312e+01	-4.29104e+01	-3.70565e+01		         0.09667	-9.20000e+01	
0.93952   	-2.03822e+01	-4.34038e+01	-3.67400e+01		         0.09833	-8.90000e+01	
0.95542   	-2.03722e+01	-4.36829e+01	-3.64305e+01		         0.10000	-8.70000e+01	
0.97133   	-2.04054e+01	-4.41524e+01	-3.61720e+01		         0.10167	-8.40000e+01	
0.98723   	-2.03686e+01	-4.46025e+01	-3.60955e+01		         0.10333	-8.20000e+01	
1.00313   	-2.03840e+01	-4.46175e+01	-3.60365e+01		         0.10500	-7.90000e+01	
1.01903   	-2.04707e+01	-4.46905e+01	-3.59041e+01		         0.10667	-7.70000e+01	
1.03493   	-2.05247e+01	-4.51940e+01	-3.58222e+01		         0.10833	-7.50000e+01	
1.05083   	-2.05088e+01	-4.52880e+01	-3.58045e+01		         0.11000	-7.40000e+01	
1.06675   	-2.04726e+01	-4.51704e+01	-3.59112e+01		         0.11167	-7.20000e+01	
1.08264   	-2.03065e+01	-4.58470e+01	-3.59771e+01		         0.11333	-7.00000e+01	
1.09854   	-2.00587e+01	-4.67735e+01	-3.59269e+01		         0.11500	-6.80000e+01	
1.11444   	-1.97566e+01	-4.92482e+01	-3.59480e+01		         0.11667	-6.70000e+01	
1.13035   	-1.95718e+01	-5.07483e+01	-3.59934e+01		         0.11833	-6.50000e+01	
1.14625   	-1.96943e+01	-5.00618e+01	-3.49217e+01		         0.12000	-6.40000e+01	
1.16215   	-1.96390e+01	-4.89923e+01	-3.33439e+01		         0.12167	-6.20000e+01	
1.17805   	-1.73473e+01	-4.79896e+01	-3.33292e+01		         0.12333	-6.10000e+01	
1.19396   	-1.69982e+01	-4.53694e+01	-2.98118e+01		         0.12500	-5.90000e+01	
1.20986   	-1.69182e+01	-4.55443e+01	-2.98862e+01		         0.12667	-5.70000e+01	
1.22576   	-1.77023e+01	-4.58406e+01	-3.30219e+01		         0.12833	-5.50000e+01	
1.24167   	-1.79468e+01	-4.54948e+01	-3.42644e+01		         0.13000	-5.30000e+01	
1.25757   	-1.72960e+01	-4.43166e+01	-3.46210e+01		         0.13167	-5.10000e+01	
1.27348   	-1.82547e+01	-4.34436e+01	-3.44556e+01		         0.13333	-4.90000e+01	
1.28936   	-1.87644e+01	-4.55118e+01	-3.30086e+01		         0.13500	-4.70000e+01	
1.30527   	-1.93350e+01	-4.20529e+01	-3.30598e+01		         0.13667	-4.60000e+01	
1.32117   	-1.95520e+01	-4.28587e+01	-3.28694e+01		         0.13833	-4.40000e+01	
1.33707   	-2.06857e+01	-4.25809e+01	-3.28513e+01		         0.14000	-4.20000e+01	
1.35297   	-2.22431e+01	-4.25949e+01	-2.95811e+01		         0.14167	-4.00000e+01	
1.36887   	-2.29314e+01	-4.29531e+01	-3.03220e+01		         0.14333	-3.90000e+01	
1.38478   	-2.41251e+01	-4.41576e+01	-2.73122e+01		         0.14500	-3.70000e+01	
1.40068   	-2.54227e+01	-4.45237e+01	-2.81029e+01		         0.14667	-3.60000e+01	
1.41658   	-2.81493e+01	-4.44721e+01	-2.79593e+01		         0.14833	-3.40000e+01	
1.43248   	-2.99355e+01	-4.53932e+01	-2.92728e+01		         0.15000	-3.30000e+01	
1.44839   	-3.05585e+01	-4.63320e+01	-3.08792e+01		         0.15167	-3.20000e+01	
1.46429   	-3.20959e+01	-4.41757e+01	-3.12620e+01		         0.15333	-3.10000e+01	
1.48019   	-3.31578e+01	-4.49912e+01	-3.22176e+01		         0.15500	-3.00000e+01	
1.49609   	-3.43739e+01	-4.56827e+01	-3.38472e+01		         0.15667	-2.90000e+01	
1.51199   	-3.41403e+01	-4.59403e+01	-3.39542e+01		         0.15833	-2.90000e+01	
1.52790   	-3.37874e+01	-4.65321e+01	-3.20142e+01		         0.16000	-2.80000e+01	
1.54380   	-3.42294e+01	-4.82523e+01	-3.18782e+01		         0.16167	-2.80000e+01	
1.55970   	-3.41294e+01	-4.92847e+01	-3.46749e+01		         0.16333	-2.70000e+01	
1.57560   	-3.51568e+01	-4.97179e+01	-3.91727e+01		         0.16500	-2.70000e+01	
1.59150   	-3.48953e+01	-5.09955e+01	-4.21952e+01		         0.16667	-2.60000e+01	
1.60741   	-3.46316e+01	-5.11794e+01	-4.45922e+01		         0.16833	-2.50000e+01	
1.62331   	-3.46887e+01	-5.05457e+01	-4.67886e+01		         0.17000	-2.40000e+01	
1.63921   	-3.49672e+01	-5.03446e+01	-4.64685e+01		         0.17167	-2.30000e+01	
1.65511   	-3.47125e+01	-5.15378e+01	-4.60254e+01		         0.17333	-2.20000e+01	
1.67101   	-3.19817e+01	-5.05440e+01	-4.52218e+01		         0.17500	-2.10000e+01	
1.68691   	-3.18124e+01	-5.02304e+01	-4.51022e+01		         0.17667	-1.90000e+01	
1.70282   	-2.98545e+01	-4.98078e+01	-4.60783e+01		         0.17833	-1.70000e+01	
1.71872   	-2.98874e+01	-5.11290e+01	-4.68716e+01		         0.18000	-1.50000e+01	
1.73462   	-3.22463e+01	-5.01811e+01	-4.74708e+01		         0.18167	-1.40000e+01	
1.75052   	-3.62809e+01	-4.84539e+01	-4.85786e+01		         0.18333	-1.20000e+01	
1.76643   	-3.55590e+01	-4.83785e+01	-4.96220e+01		         0.18500	-1.00000e+01	
1.78233   	-3.43470e+01	-4.67857e+01	-4.88858e+01		         0.18667	-9.00000e+00	
1.79823   	-2.88800e+01	-4.23078e+01	-4.48662e+01		         0.18833	-7.00000e+00	
1.81413   	-2.55903e+01	-3.93489e+01	-3.95366e+01		         0.19000	-6.00000e+00	
1.83003   	-2.04941e+01	-3.74882e+01	-3.57861e+01		         0.19167	-6.00000e+00	
1.84594   	-1.90493e+01	-3.82861e+01	-3.30240e+01		         0.19333	-5.00000e+00	
1.86184   	-2.02446e+01	-3.95794e+01	-3.30064e+01		         0.19500	-5.00000e+00	
1.87774   	-1.94710e+01	-3.90875e+01	-3.30916e+01		         0.19667	-5.00000e+00	
1.89364   	-2.02448e+01	-3.89080e+01	-3.28137e+01		         0.19833	-5.00000e+00	
1.90954   	-2.10292e+01	-3.87738e+01	-3.30162e+01		         0.20000	-5.00000e+00	
1.92545   	-1.98952e+01	-3.91272e+01	-3.40025e+01		         0.20167	-5.00000e+00	
1.94134   	-1.98029e+01	-3.85281e+01	-3.52561e+01		         0.20333	-5.00000e+00	
1.95725   	-2.06624e+01	-3.92653e+01	-3.59299e+01		         0.20500	-5.00000e+00	
1.97315   	-2.16186e+01	-3.99256e+01	-3.51845e+01		         0.20667	-4.00000e+00	
2.08075   	-2.18385e+01	-4.02087e+01	-3.57264e+01		         0.20833	-4.00000e+00	
2.09773   	-2.19191e+01	-3.97376e+01	-3.59577e+01		         0.21000	-3.00000e+00	
2.11471   	-2.20272e+01	-3.96519e+01	-3.61452e+01		         0.21167	-2.00000e+00	
2.13169   	-2.22665e+01	-3.92799e+01	-3.60000e+01		         0.21333	-1.00000e+00	
2.14867   	-2.24106e+01	-3.91818e+01	-3.57464e+01		         0.21500	1.00000e+00	
2.16565   	-2.24571e+01	-3.95406e+01	-3.56429e+01		         0.21667	2.00000e+00	
2.18287   	-2.24444e+01	-3.99570e+01	-3.57350e+01		         0.21833	4.00000e+00	
2.19978   	-2.24022e+01	-4.04751e+01	-3.57029e+01		         0.22000	6.00000e+00	
2.21659   	-2.23827e+01	-4.07156e+01	-3.57158e+01		         0.22167	7.00000e+00	
2.23357   	-2.23274e+01	-4.06563e+01	-3.56281e+01		         0.22333	9.00000e+00	
2.25055   	-2.23101e+01	-4.10105e+01	-3.56802e+01		         0.22500	1.10000e+01	
2.26753   	-2.21798e+01	-4.11480e+01	-3.56910e+01		         0.22667	1.20000e+01	
2.28451   	-2.20308e+01	-4.14615e+01	-3.56280e+01		         0.22833	1.40000e+01	
2.30149   	-2.18785e+01	-4.20353e+01	-3.55826e+01		         0.23000	1.50000e+01	
2.31847   	-2.18397e+01	-4.27717e+01	-3.55494e+01		         0.23167	1.70000e+01	
2.33545   	-2.17688e+01	-4.47664e+01	-3.53746e+01		         0.23333	1.80000e+01	
2.35243   	-2.13925e+01	-4.63137e+01	-3.47680e+01		         0.23500	1.90000e+01	
2.36941   	-2.07768e+01	-4.71073e+01	-3.45176e+01		         0.23667	1.90000e+01	
2.38639   	-2.11585e+01	-4.58689e+01	-3.39055e+01		         0.23833	2.00000e+01	
2.40337   	-1.86990e+01	-4.65968e+01	-3.35792e+01		         0.24000	2.10000e+01	
2.42035   	-1.71727e+01	-4.49657e+01	-3.18421e+01		         0.24167	2.20000e+01	
2.43733   	-1.68395e+01	-4.37279e+01	-2.97120e+01		         0.24333	2.30000e+01	
2.45431   	-1.77006e+01	-4.55298e+01	-3.26612e+01		         0.24500	2.40000e+01	
2.47129   	-1.77116e+01	-4.47706e+01	-3.53317e+01		         0.24667	2.50000e+01	
2.48828   	-1.72040e+01	-4.29359e+01	-3.63195e+01		         0.24833	2.70000e+01	
2.50525   	-1.87512e+01	-4.13704e+01	-3.54753e+01		         0.25000	2.80000e+01	
2.52223   	-1.89921e+01	-4.26326e+01	-3.40318e+01		         0.25167	3.00000e+01	
2.53921   	-1.95737e+01	-4.01848e+01	-3.42393e+01		         0.25333	3.10000e+01	
2.55619   	-2.13790e+01	-4.13311e+01	-3.37805e+01		         0.25500	3.30000e+01	
2.57317   	-2.21852e+01	-4.20256e+01	-3.24848e+01		         0.25667	3.50000e+01	
2.59015   	-2.30125e+01	-4.09356e+01	-3.04501e+01		         0.25833	3.70000e+01	
2.60713   	-2.37332e+01	-4.29779e+01	-2.73426e+01		         0.26000	3.90000e+01	
2.62411   	-2.49339e+01	-4.44500e+01	-2.75990e+01		         0.26167	4.00000e+01	
2.64109   	-2.71844e+01	-4.42476e+01	-2.75883e+01		         0.26333	4.20000e+01	
2.65807   	-2.99579e+01	-4.46077e+01	-2.90012e+01		         0.26500	4.30000e+01	
2.67505   	-2.99165e+01	-4.41865e+01	-2.98910e+01		         0.26667	4.50000e+01	
2.69203   	-3.12478e+01	-4.44623e+01	-3.04706e+01		         0.26833	4.60000e+01	
2.70901   	-3.29263e+01	-4.35602e+01	-3.08740e+01		         0.27000	4.70000e+01	
2.72599   	-3.45397e+01	-4.66929e+01	-3.33251e+01		         0.27167	4.80000e+01	
2.74297   	-3.44741e+01	-4.68618e+01	-3.25786e+01		         0.27333	5.00000e+01	
2.75995   	-3.38141e+01	-4.65317e+01	-3.04832e+01		         0.27500	5.10000e+01	
2.77693   	-3.44079e+01	-4.72028e+01	-3.08672e+01		         0.27667	5.20000e+01	
2.79391   	-3.46843e+01	-4.75397e+01	-3.41023e+01		         0.27833	5.30000e+01	
2.81089   	-3.52943e+01	-4.81655e+01	-3.92061e+01		         0.28000	5.50000e+01	
2.82787   	-3.51201e+01	-4.83417e+01	-4.29132e+01		         0.28167	5.60000e+01	
2.84485   	-3.51346e+01	-4.92977e+01	-4.50829e+01		         0.28333	5.80000e+01	
2.86183   	-3.58621e+01	-4.93208e+01	-4.58814e+01		         0.28500	5.90000e+01	
2.87881   	-3.54792e+01	-5.10817e+01	-4.55025e+01		         0.28667	6.00000e+01	
2.89579   	-3.46713e+01	-5.14754e+01	-4.57742e+01		         0.28833	6.20000e+01	
2.91277   	-3.43315e+01	-4.99108e+01	-4.46391e+01		         0.29000	6.30000e+01	
2.93008   	-3.17806e+01	-5.04095e+01	-4.52754e+01		         0.29167	6.40000e+01	
2.94673   	-2.95636e+01	-4.98774e+01	-4.65579e+01		         0.29333	6.50000e+01	
2.96371   	-3.01552e+01	-5.06774e+01	-4.73739e+01		         0.29500	6.50000e+01	
2.98069   	-3.34460e+01	-4.98069e+01	-4.84412e+01		         0.29667	6.50000e+01	
2.99767   	-3.68955e+01	-4.89802e+01	-4.92271e+01		         0.29833	6.60000e+01	
3.01465   	-3.68646e+01	-4.82698e+01	-4.85436e+01		         0.30000	6.60000e+01	
3.03163   	-3.20020e+01	-4.39400e+01	-4.32625e+01		         0.30167	6.50000e+01	
3.04861   	-2.80191e+01	-3.95534e+01	-3.75521e+01		         0.30333	6.50000e+01	
3.06559   	-2.16427e+01	-3.81385e+01	-3.48777e+01		         0.30500	6.40000e+01	
3.08257   	-1.98640e+01	-3.89010e+01	-3.31812e+01		         0.30667	6.30000e+01	
3.09955   	-2.16760e+01	-3.96096e+01	-3.30504e+01		         0.30833	6.10000e+01	
3.11653   	-2.05096e+01	-3.90645e+01	-3.30264e+01		         0.31000	6.00000e+01	
3.13351   	-2.08028e+01	-3.93019e+01	-3.28707e+01		         0.31167	5.80000e+01	
3.15049   	-2.18539e+01	-3.91603e+01	-3.30446e+01		         0.31333	5.60000e+01	
3.16747   	-2.18163e+01	-3.94789e+01	-3.39222e+01		         0.31500	5.30000e+01	
3.18445   	-2.24617e+01	-4.04345e+01	-3.46855e+01		         0.31667	5.10000e+01	
3.20143   	-2.38929e+01	-4.16784e+01	-3.53540e+01		         0.31833	4.80000e+01	
3.21841   	-2.44555e+01	-4.16529e+01	-3.53472e+01		         0.32000	4.50000e+01	
3.23539   	-2.44170e+01	-4.16140e+01	-3.57675e+01		         0.32167	4.10000e+01	
3.25237   	-2.45300e+01	-4.17218e+01	-3.59053e+01		         0.32333	3.80000e+01	
3.26936   	-2.45043e+01	-4.19381e+01	-3.59432e+01		         0.32500	3.40000e+01	
3.28633   	-2.42336e+01	-4.13675e+01	-3.58281e+01		         0.32667	3.10000e+01	
3.30331   	-2.39795e+01	-4.05346e+01	-3.59964e+01		         0.32833	2.80000e+01	
3.32029   	-2.37694e+01	-4.06761e+01	-3.59115e+01		         0.33000	2.40000e+01	
3.33727   	-2.35593e+01	-4.05978e+01	-3.58288e+01		         0.33167	2.10000e+01	
3.35425   	-2.35353e+01	-4.04870e+01	-3.60839e+01		         0.33333	1.80000e+01	
3.37123   	-2.36332e+01	-4.05726e+01	-3.59026e+01		         0.33500	1.50000e+01	
3.38821   	-2.37207e+01	-4.04214e+01	-3.59243e+01		         0.33667	1.20000e+01	
3.40519   	-2.37478e+01	-4.05960e+01	-3.57410e+01		         0.33833	9.00000e+00	
3.42217   	-2.37386e+01	-4.05537e+01	-3.54802e+01		         0.34000	6.00000e+00	
3.43915   	-2.37558e+01	-4.05027e+01	-3.54659e+01		         0.34167	2.00000e+00	
3.45613   	-2.37674e+01	-4.06700e+01	-3.53340e+01		         0.34333	-1.00000e+00	
3.47312   	-2.37170e+01	-4.06285e+01	-3.52025e+01		         0.34500	-4.00000e+00	
3.49009   	-2.37065e+01	-4.05170e+01	-3.50245e+01		         0.34667	-8.00000e+00	
3.50707   	-2.36833e+01	-4.01787e+01	-3.50258e+01		         0.34833	-1.10000e+01	
3.52405   	-2.36254e+01	-4.00097e+01	-3.49994e+01		         0.35000	-1.50000e+01	
3.54103   	-2.35752e+01	-3.99263e+01	-3.49578e+01		         0.35167	-1.90000e+01	
3.55801   	-2.34652e+01	-4.01894e+01	-3.49008e+01		         0.35333	-2.30000e+01	
3.57499   	-2.32312e+01	-4.13162e+01	-3.47660e+01		         0.35500	-2.70000e+01	
3.59197   	-2.27387e+01	-4.26125e+01	-3.45148e+01		         0.35667	-3.10000e+01	
3.60895   	-2.24609e+01	-4.38865e+01	-3.40463e+01		         0.35833	-3.50000e+01	
3.62593   	-2.25849e+01	-4.45803e+01	-3.36863e+01		         0.36000	-3.90000e+01	
3.64291   	-2.23029e+01	-4.39080e+01	-3.33205e+01		         0.36167	-4.20000e+01	
3.65989   	-2.07247e+01	-4.29478e+01	-3.28212e+01		         0.36333	-4.50000e+01	
3.67705   	-2.07120e+01	-4.04504e+01	-3.30322e+01		         0.36500	-4.70000e+01	
3.69385   	-2.09997e+01	-4.01008e+01	-3.27733e+01		         0.36667	-4.90000e+01	
3.71083   	-2.08734e+01	-4.07486e+01	-3.63935e+01		         0.36833	-5.10000e+01	
3.72781   	-2.03124e+01	-4.04896e+01	-3.81286e+01		         0.37000	-5.20000e+01	
3.74479   	-1.93447e+01	-3.83913e+01	-3.97191e+01		         0.37167	-5.30000e+01	
					         0.37333	-5.40000e+01	
					         0.37500	-5.40000e+01	
					         0.37667	-5.30000e+01	
					         0.37833	-5.30000e+01	
					         0.38000	-5.20000e+01	
					         0.38167	-5.10000e+01	
					         0.38333	-5.10000e+01	
					         0.38500	-5.00000e+01	
					         0.38667	-4.90000e+01	
					         0.38833	-4.90000e+01	
					         0.39000	-4.90000e+01	
					         0.39167	-4.80000e+01	
					         0.39333	-4.80000e+01	
					         0.39500	-4.80000e+01	
					         0.39667	-4.90000e+01	
					         0.39833	-4.90000e+01	
					         0.40000	-4.90000e+01	
					         0.40167	-4.90000e+01	
					         0.40333	-4.90000e+01	
					         0.40500	-4.90000e+01	
					         0.40667	-4.90000e+01	
					         0.40833	-4.90000e+01	
					         0.41000	-4.80000e+01	
					         0.41167	-4.80000e+01	
					         0.41333	-4.70000e+01	
					         0.41500	-4.60000e+01	
					         0.41667	-4.40000e+01	
					         0.41833	-4.30000e+01	
					         0.42000	-4.20000e+01	
					         0.42167	-4.00000e+01	
					         0.42333	-3.90000e+01	
					         0.42500	-3.80000e+01	
					         0.42667	-3.70000e+01	
					         0.42833	-3.50000e+01	
					         0.43000	-3.40000e+01	
					         0.43167	-3.30000e+01	
					         0.43333	-3.20000e+01	
					         0.43500	-3.20000e+01	
					         0.43667	-3.10000e+01	
					         0.43833	-3.00000e+01	
					         0.44000	-3.00000e+01	
					         0.44167	-2.90000e+01	
					         0.44333	-2.80000e+01	
					         0.44500	-2.80000e+01	
					         0.44667	-2.80000e+01	
					         0.44833	-2.70000e+01	
					         0.45000	-2.70000e+01	
					         0.45167	-2.70000e+01	
					         0.45333	-2.60000e+01	
					         0.45500	-2.60000e+01	
					         0.45667	-2.60000e+01	
					         0.45833	-2.60000e+01	
					         0.46000	-2.50000e+01	
					         0.46167	-2.50000e+01	
					         0.46333	-2.40000e+01	
					         0.46500	-2.40000e+01	
					         0.46667	-2.30000e+01	
					         0.46833	-2.20000e+01	
					         0.47000	-2.10000e+01	
					         0.47167	-2.00000e+01	
					         0.47333	-1.90000e+01	
					         0.47500	-1.80000e+01	
					         0.47667	-1.70000e+01	
					         0.47833	-1.60000e+01	
					         0.48000	-1.50000e+01	
					         0.48167	-1.40000e+01	
					         0.48333	-1.30000e+01	
					         0.48500	-1.20000e+01	
					         0.48667	-1.10000e+01	
					         0.48833	-1.10000e+01	
					         0.49000	-1.10000e+01	
					         0.49167	-1.10000e+01	
					         0.49333	-1.10000e+01	
					         0.49500	-1.10000e+01	
					         0.49667	-1.10000e+01	
					         0.49833	-1.10000e+01	
					         0.50000	-1.20000e+01	
					         0.50167	-1.20000e+01	
					         0.50333	-1.20000e+01	
					         0.50500	-1.20000e+01	
					         0.50667	-1.20000e+01	
					         0.50833	-1.20000e+01	
					         0.51000	-1.20000e+01	
					         0.51167	-1.20000e+01	
					         0.51333	-1.20000e+01	
					         0.51500	-1.10000e+01	
					         0.51667	-1.10000e+01	
					         0.51833	-1.00000e+01	
					         0.52000	-1.00000e+01	
					         0.52167	-9.00000e+00	
					         0.52333	-9.00000e+00	
					         0.52500	-9.00000e+00	
					         0.52667	-8.00000e+00	
					         0.52833	-8.00000e+00	
					         0.53000	-8.00000e+00	
					         0.53167	-7.00000e+00	
					         0.53333	-7.00000e+00	
					         0.53500	-7.00000e+00	
					         0.53667	-6.00000e+00	
					         0.53833	-6.00000e+00	
					         0.54000	-5.00000e+00	
					         0.54167	-5.00000e+00	
					         0.54333	-4.00000e+00	
					         0.54500	-4.00000e+00	
					         0.54667	-4.00000e+00	
					         0.54833	-3.00000e+00	
					         0.55000	-3.00000e+00	
					         0.55167	-2.00000e+00	
					         0.55333	-2.00000e+00	
					         0.55500	-2.00000e+00	
					         0.55667	-2.00000e+00	
					         0.55833	-1.00000e+00	
					         0.56000	-1.00000e+00	
					         0.56167	-1.00000e+00	
					         0.56333	-1.00000e+00	
					         0.56500	-1.00000e+00	
					         0.56667	-1.00000e+00	
					         0.56833	-1.00000e+00	
					         0.57000	-1.00000e+00	
					         0.57167	-1.00000e+00	
					         0.57333	-2.00000e+00	
					         0.57500	-3.00000e+00	
					         0.57667	-4.00000e+00	
					         0.57833	-4.00000e+00	
					         0.58000	-5.00000e+00	
					         0.58167	-6.00000e+00	
					         0.58333	-6.00000e+00	
					         0.58500	-7.00000e+00	
					         0.58667	-7.00000e+00	
					         0.58833	-7.00000e+00	
					         0.59000	-7.00000e+00	
					         0.59167	-6.00000e+00	
					         0.59333	-6.00000e+00	
					         0.59500	-5.00000e+00	
					         0.59667	-5.00000e+00	
					         0.59833	-4.00000e+00	
					         0.60000	-3.00000e+00	
					         0.60167	-3.00000e+00	
					         0.60333	-2.00000e+00	
					         0.60500	-2.00000e+00	
					         0.60667	-2.00000e+00	
					         0.60833	-2.00000e+00	
					         0.61000	-2.00000e+00	
					         0.61167	-2.00000e+00	
					         0.61333	-2.00000e+00	
					         0.61500	-3.00000e+00	
					         0.61667	-3.00000e+00	
					         0.61833	-4.00000e+00	
					         0.62000	-4.00000e+00	
					         0.62167	-4.00000e+00	
					         0.62333	-4.00000e+00	
					         0.62500	-4.00000e+00	
					         0.62667	-4.00000e+00	
					         0.62833	-4.00000e+00	
					         0.63000	-3.00000e+00	
					         0.63167	-3.00000e+00	
					         0.63333	-2.00000e+00	
					         0.63500	-2.00000e+00	
					         0.63667	-1.00000e+00	
					         0.63833	-1.00000e+00	
					         0.64000	-1.00000e+00	
					         0.64167	-1.00000e+00	
					         0.64333	-1.00000e+00	
					         0.64500	-1.00000e+00	
					         0.64667	-1.00000e+00	
					         0.64833	-1.00000e+00	
					         0.65000	-1.00000e+00	
					         0.65167	-1.00000e+00	
					         0.65333	-1.00000e+00	
					         0.65500	0.00000e+00	
					         0.65667	0.00000e+00	
					         0.65833	0.00000e+00	
					         0.66000	0.00000e+00	
					         0.66167	0.00000e+00	
					         0.66333	0.00000e+00	
					         0.66500	0.00000e+00	
					         0.66667	0.00000e+00	
					         0.66833	0.00000e+00	
					         0.67000	0.00000e+00	
					         0.67167	0.00000e+00	
					         0.67333	0.00000e+00	
					         0.67500	0.00000e+00	
					         0.67667	0.00000e+00	
					         0.67833	0.00000e+00	
					         0.68000	0.00000e+00	
					         0.68167	0.00000e+00	
					         0.68333	0.00000e+00	
					         0.68500	0.00000e+00	
					         0.68667	0.00000e+00	
					         0.68833	0.00000e+00	
					         0.69000	1.00000e+00	
					         0.69167	1.00000e+00	
					         0.69333	1.00000e+00	
					         0.69500	1.00000e+00	
					         0.69667	0.00000e+00	
					         0.69833	0.00000e+00	
					         0.70000	0.00000e+00	
					         0.70167	0.00000e+00	
					         0.70333	0.00000e+00	
					         0.70500	0.00000e+00	
					         0.70667	1.00000e+00	
					         0.70833	1.00000e+00	
					         0.71000	2.00000e+00	
					         0.71167	3.00000e+00	
					         0.71333	3.00000e+00	
					         0.71500	4.00000e+00	
					         0.71667	5.00000e+00	
					         0.71833	6.00000e+00	
					         0.72000	7.00000e+00	
					         0.72167	7.00000e+00	
					         0.72333	7.00000e+00	
					         0.72500	8.00000e+00	
					         0.72667	7.00000e+00	
					         0.72833	7.00000e+00	
					         0.73000	7.00000e+00	
					         0.73167	6.00000e+00	
					         0.73333	5.00000e+00	
					         0.73500	5.00000e+00	
					         0.73667	4.00000e+00	
					         0.73833	4.00000e+00	
					         0.74000	3.00000e+00	
					         0.74167	3.00000e+00	
					         0.74333	3.00000e+00	
					         0.74500	2.00000e+00	
					         0.74667	2.00000e+00	
					         0.74833	2.00000e+00	
					         0.75000	2.00000e+00	
					         0.75167	1.00000e+00	
					         0.75333	1.00000e+00	
					         0.75500	1.00000e+00	
					         0.75667	1.00000e+00	
					         0.75833	0.00000e+00	
					         0.76000	0.00000e+00	
					         0.76167	0.00000e+00	
					         0.76333	0.00000e+00	
					         0.76500	0.00000e+00	
					         0.76667	0.00000e+00	
					         0.76833	0.00000e+00	
					         0.77000	1.00000e+00	
					         0.77167	1.00000e+00	
					         0.77333	2.00000e+00	
					         0.77500	2.00000e+00	
					         0.77667	3.00000e+00	
					         0.77833	3.00000e+00	
					         0.78000	3.00000e+00	
					         0.78167	3.00000e+00	
					         0.78333	3.00000e+00	
					         0.78500	3.00000e+00	
					         0.78667	3.00000e+00	
					         0.78833	2.00000e+00	
					         0.79000	2.00000e+00	
					         0.79167	2.00000e+00	
					         0.79333	1.00000e+00	
					         0.79500	1.00000e+00	
					         0.79667	2.00000e+00	
					         0.79833	2.00000e+00	
					         0.80000	2.00000e+00	
					         0.80167	3.00000e+00	
					         0.80333	4.00000e+00	
					         0.80500	5.00000e+00	
					         0.80667	6.00000e+00	
					         0.80833	6.00000e+00	
					         0.81000	7.00000e+00	
					         0.81167	8.00000e+00	
					         0.81333	8.00000e+00	
					         0.81500	9.00000e+00	
					         0.81667	8.00000e+00	
					         0.81833	8.00000e+00	
					         0.82000	8.00000e+00	
					         0.82167	7.00000e+00	
					         0.82333	6.00000e+00	
					         0.82500	6.00000e+00	
					         0.82667	5.00000e+00	
					         0.82833	4.00000e+00	
					         0.83000	3.00000e+00	
					         0.83167	2.00000e+00	
					         0.83333	1.00000e+00	
					         0.83500	1.00000e+00	
					         0.83667	0.00000e+00	
					         0.83833	0.00000e+00	
					         0.84000	0.00000e+00	
					         0.84167	0.00000e+00	
					         0.84333	1.00000e+00	
					         0.84500	1.00000e+00	
					         0.84667	1.00000e+00	
					         0.84833	1.00000e+00	
					         0.85000	2.00000e+00	
					         0.85167	2.00000e+00	
					         0.85333	2.00000e+00	
					         0.85500	3.00000e+00	
					         0.85667	3.00000e+00	
					         0.85833	3.00000e+00	
					         0.86000	3.00000e+00	
					         0.86167	3.00000e+00	
					         0.86333	3.00000e+00	
					         0.86500	3.00000e+00	
					         0.86667	3.00000e+00	
					         0.86833	3.00000e+00	
					         0.87000	2.00000e+00	
					         0.87167	2.00000e+00	
					         0.87333	2.00000e+00	
					         0.87500	2.00000e+00	
					         0.87667	2.00000e+00	
					         0.87833	2.00000e+00	
					         0.88000	2.00000e+00	
					         0.88167	3.00000e+00	
					         0.88333	3.00000e+00	
					         0.88500	3.00000e+00	
					         0.88667	3.00000e+00	
					         0.88833	4.00000e+00	
					         0.89000	4.00000e+00	
					         0.89167	4.00000e+00	
					         0.89333	5.00000e+00	
					         0.89500	5.00000e+00	
					         0.89667	5.00000e+00	
					         0.89833	5.00000e+00	
					         0.90000	5.00000e+00	
					         0.90167	5.00000e+00	
					         0.90333	5.00000e+00	
					         0.90500	5.00000e+00	
					         0.90667	4.00000e+00	
					         0.90833	4.00000e+00	
					         0.91000	3.00000e+00	
					         0.91167	2.00000e+00	
					         0.91333	1.00000e+00	
					         0.91500	0.00000e+00	
					         0.91667	-1.00000e+00	
					         0.91833	-1.00000e+00	
					         0.92000	-2.00000e+00	
					         0.92167	-3.00000e+00	
					         0.92333	-3.00000e+00	
					         0.92500	-3.00000e+00	
					         0.92667	-3.00000e+00	
					         0.92833	-2.00000e+00	
					         0.93000	-2.00000e+00	
					         0.93167	-1.00000e+00	
					         0.93333	0.00000e+00	
					         0.93500	0.00000e+00	
					         0.93667	1.00000e+00	
					         0.93833	2.00000e+00	
					         0.94000	3.00000e+00	
					         0.94167	4.00000e+00	
					         0.94333	5.00000e+00	
					         0.94500	5.00000e+00	
					         0.94667	5.00000e+00	
					         0.94833	5.00000e+00	
					         0.95000	5.00000e+00	
					         0.95167	5.00000e+00	
					         0.95333	4.00000e+00	
					         0.95500	4.00000e+00	
					         0.95667	3.00000e+00	
					         0.95833	2.00000e+00	
					         0.96000	1.00000e+00	
					         0.96167	0.00000e+00	
					         0.96333	-1.00000e+00	
					         0.96500	-2.00000e+00	
					         0.96667	-3.00000e+00	
					         0.96833	-3.00000e+00	
					         0.97000	-4.00000e+00	
					         0.97167	-4.00000e+00	
					         0.97333	-4.00000e+00	
					         0.97500	-3.00000e+00	
					         0.97667	-3.00000e+00	
					         0.97833	-2.00000e+00	
					         0.98000	-1.00000e+00	
					         0.98167	-1.00000e+00	
					         0.98333	0.00000e+00	
					         0.98500	1.00000e+00	
					         0.98667	1.00000e+00	
					         0.98833	2.00000e+00	
					         0.99000	2.00000e+00	
					         0.99167	2.00000e+00	
					         0.99333	2.00000e+00	
					         0.99500	2.00000e+00	
					         0.99667	2.00000e+00	
					         0.99833	2.00000e+00	
					         1.00000	1.00000e+00	
					         1.00167	1.00000e+00	
					         1.00333	0.00000e+00	
					         1.00500	0.00000e+00	
					         1.00667	0.00000e+00	
					         1.00833	-1.00000e+00	
					         1.01000	-1.00000e+00	
					         1.01167	-1.00000e+00	
					         1.01333	-1.00000e+00	
					         1.01500	-1.00000e+00	
					         1.01667	-1.00000e+00	
					         1.01833	-1.00000e+00	
					         1.02000	-1.00000e+00	
					         1.02167	-1.00000e+00	
					         1.02333	-1.00000e+00	
					         1.02500	-1.00000e+00	
					         1.02667	-1.00000e+00	
					         1.02833	-1.00000e+00	
					         1.03000	-1.00000e+00	
					         1.03167	-1.00000e+00	
					         1.03333	-2.00000e+00	
					         1.03500	-2.00000e+00	
					         1.03667	-3.00000e+00	
					         1.03833	-3.00000e+00	
					         1.04000	-4.00000e+00	
					         1.04167	-4.00000e+00	
					         1.04333	-5.00000e+00	
					         1.04500	-5.00000e+00	
					         1.04667	-6.00000e+00	
					         1.04833	-6.00000e+00	
					         1.05000	-6.00000e+00	
					         1.05167	-6.00000e+00	
					         1.05333	-6.00000e+00	
					         1.05500	-5.00000e+00	
					         1.05667	-5.00000e+00	
					         1.05833	-5.00000e+00	
					         1.06000	-4.00000e+00	
					         1.06167	-4.00000e+00	
					         1.06333	-3.00000e+00	
					         1.06500	-2.00000e+00	
					         1.06667	-1.00000e+00	
					         1.06833	0.00000e+00	
					         1.07000	1.00000e+00	
					         1.07167	2.00000e+00	
					         1.07333	3.00000e+00	
					         1.07500	4.00000e+00	
					         1.07667	4.00000e+00	
					         1.07833	5.00000e+00	
					         1.08000	6.00000e+00	
					         1.08167	6.00000e+00	
					         1.08333	6.00000e+00	
					         1.08500	7.00000e+00	
					         1.08667	7.00000e+00	
					         1.08833	7.00000e+00	
					         1.09000	8.00000e+00	
					         1.09167	8.00000e+00	
					         1.09333	9.00000e+00	
					         1.09500	9.00000e+00	
					         1.09667	1.00000e+01	
					         1.09833	1.10000e+01	
					         1.10000	1.30000e+01	
					         1.10167	1.40000e+01	
					         1.10333	1.50000e+01	
					         1.10500	1.70000e+01	
					         1.10667	1.70000e+01	
					         1.10833	1.80000e+01	
					         1.11000	1.80000e+01	
					         1.11167	1.80000e+01	
					         1.11333	1.70000e+01	
					         1.11500	1.60000e+01	
					         1.11667	1.50000e+01	
					         1.11833	1.40000e+01	
					         1.12000	1.20000e+01	
					         1.12167	1.10000e+01	
					         1.12333	9.00000e+00	
					         1.12500	8.00000e+00	
					         1.12667	6.00000e+00	
					         1.12833	5.00000e+00	
					         1.13000	4.00000e+00	
					         1.13167	3.00000e+00	
					         1.13333	3.00000e+00	
					         1.13500	2.00000e+00	
					         1.13667	2.00000e+00	
					         1.13833	2.00000e+00	
					         1.14000	1.00000e+00	
					         1.14167	1.00000e+00	
					         1.14333	1.00000e+00	
					         1.14500	0.00000e+00	
					         1.14667	0.00000e+00	
					         1.14833	-1.00000e+00	
					         1.15000	-1.00000e+00	
					         1.15167	-1.00000e+00	
					         1.15333	-1.00000e+00	
					         1.15500	-1.00000e+00	
					         1.15667	0.00000e+00	
					         1.15833	1.00000e+00	
					         1.16000	1.00000e+00	
					         1.16167	2.00000e+00	
					         1.16333	3.00000e+00	
					         1.16500	4.00000e+00	
					         1.16667	5.00000e+00	
					         1.16833	5.00000e+00	
					         1.17000	5.00000e+00	
					         1.17167	5.00000e+00	
					         1.17333	5.00000e+00	
					         1.17500	5.00000e+00	
					         1.17667	4.00000e+00	
					         1.17833	3.00000e+00	
					         1.18000	3.00000e+00	
					         1.18167	2.00000e+00	
					         1.18333	1.00000e+00	
					         1.18500	-1.00000e+00	
					         1.18667	-2.00000e+00	
					         1.18833	-4.00000e+00	
					         1.19000	-6.00000e+00	
					         1.19167	-8.00000e+00	
					         1.19333	-1.00000e+01	
					         1.19500	-1.20000e+01	
					         1.19667	-1.40000e+01	
					         1.19833	-1.60000e+01	
					         1.20000	-1.80000e+01	
					         1.20167	-2.00000e+01	
					         1.20333	-2.10000e+01	
					         1.20500	-2.20000e+01	
					         1.20667	-2.10000e+01	
					         1.20833	-1.90000e+01	
					         1.21000	-1.50000e+01	
					         1.21167	-8.00000e+00	
					         1.21333	1.00000e+00	
					         1.21500	1.40000e+01	
					         1.21667	3.00000e+01	
					         1.21833	5.10000e+01	
					         1.22000	7.50000e+01	
					         1.22167	1.04000e+02	
					         1.22333	1.37000e+02	
					         1.22500	1.74000e+02	
					         1.22667	2.13000e+02	
					         1.22833	2.54000e+02	
					         1.23000	2.95000e+02	
					         1.23167	3.35000e+02	
					         1.23333	3.72000e+02	
					         1.23500	4.05000e+02	
					         1.23667	4.32000e+02	
					         1.23833	4.53000e+02	
					         1.24000	4.65000e+02	
					         1.24167	4.69000e+02	
					         1.24333	4.63000e+02	
					         1.24500	4.49000e+02	
					         1.24667	4.27000e+02	
					         1.24833	3.97000e+02	
					         1.25000	3.62000e+02	
					         1.25167	3.23000e+02	
					         1.25333	2.80000e+02	
					         1.25500	2.36000e+02	
					         1.25667	1.92000e+02	
					         1.25833	1.49000e+02	
					         1.26000	1.09000e+02	
					         1.26167	7.10000e+01	
					         1.26333	3.80000e+01	
					         1.26500	8.00000e+00	
					         1.26667	-1.80000e+01	
					         1.26833	-4.10000e+01	
					         1.27000	-6.00000e+01	
					         1.27167	-7.60000e+01	
					         1.27333	-8.90000e+01	
					         1.27500	-9.90000e+01	
					         1.27667	-1.08000e+02	
					         1.27833	-1.14000e+02	
					         1.28000	-1.19000e+02	
					         1.28167	-1.23000e+02	
					         1.28333	-1.25000e+02	
					         1.28500	-1.26000e+02	
					         1.28667	-1.27000e+02	
					         1.28833	-1.26000e+02	
					         1.29000	-1.26000e+02	
					         1.29167	-1.24000e+02	
					         1.29333	-1.23000e+02	
					         1.29500	-1.21000e+02	
					         1.29667	-1.19000e+02	
					         1.29833	-1.17000e+02	
					         1.30000	-1.15000e+02	
					         1.30167	-1.13000e+02	
					         1.30333	-1.12000e+02	
					         1.30500	-1.10000e+02	
					         1.30667	-1.08000e+02	
					         1.30833	-1.06000e+02	
					         1.31000	-1.04000e+02	
					         1.31167	-1.02000e+02	
					         1.31333	-1.00000e+02	
					         1.31500	-9.80000e+01	
					         1.31667	-9.50000e+01	
					         1.31833	-9.30000e+01	
					         1.32000	-9.00000e+01	
					         1.32167	-8.70000e+01	
					         1.32333	-8.40000e+01	
					         1.32500	-8.10000e+01	
					         1.32667	-7.80000e+01	
					         1.32833	-7.50000e+01	
					         1.33000	-7.30000e+01	
					         1.33167	-7.00000e+01	
					         1.33333	-6.80000e+01	
					         1.33500	-6.50000e+01	
					         1.33667	-6.30000e+01	
					         1.33833	-6.20000e+01	
					         1.34000	-6.00000e+01	
					         1.34167	-5.90000e+01	
					         1.34333	-5.70000e+01	
					         1.34500	-5.60000e+01	
					         1.34667	-5.50000e+01	
					         1.34833	-5.50000e+01	
					         1.35000	-5.40000e+01	
					         1.35167	-5.30000e+01	
					         1.35333	-5.20000e+01	
					         1.35500	-5.10000e+01	
					         1.35667	-5.00000e+01	
					         1.35833	-4.90000e+01	
					         1.36000	-4.80000e+01	
					         1.36167	-4.70000e+01	
					         1.36333	-4.60000e+01	
					         1.36500	-4.50000e+01	
					         1.36667	-4.40000e+01	
					         1.36833	-4.20000e+01	
					         1.37000	-4.10000e+01	
					         1.37167	-4.00000e+01	
					         1.37333	-3.80000e+01	
					         1.37500	-3.70000e+01	
					         1.37667	-3.60000e+01	
					         1.37833	-3.50000e+01	
					         1.38000	-3.40000e+01	
					         1.38167	-3.30000e+01	
					         1.38333	-3.20000e+01	
					         1.38500	-3.10000e+01	
					         1.38667	-3.00000e+01	
					         1.38833	-2.90000e+01	
					         1.39000	-2.70000e+01	
					         1.39167	-2.60000e+01	
					         1.39333	-2.50000e+01	
					         1.39500	-2.30000e+01	
					         1.39667	-2.20000e+01	
					         1.39833	-2.10000e+01	
					         1.40000	-1.90000e+01	
					         1.40167	-1.80000e+01	
					         1.40333	-1.70000e+01	
					         1.40500	-1.60000e+01	
					         1.40667	-1.50000e+01	
					         1.40833	-1.50000e+01	
					         1.41000	-1.40000e+01	
					         1.41167	-1.40000e+01	
					         1.41333	-1.30000e+01	
					         1.41500	-1.30000e+01	
					         1.41667	-1.30000e+01	
					         1.41833	-1.30000e+01	
					         1.42000	-1.20000e+01	
					         1.42167	-1.20000e+01	
					         1.42333	-1.20000e+01	
					         1.42500	-1.10000e+01	
					         1.42667	-1.00000e+01	
					         1.42833	-9.00000e+00	
					         1.43000	-8.00000e+00	
					         1.43167	-6.00000e+00	
					         1.43333	-5.00000e+00	
					         1.43500	-3.00000e+00	
					         1.43667	-1.00000e+00	
					         1.43833	1.00000e+00	
					         1.44000	3.00000e+00	
					         1.44167	5.00000e+00	
					         1.44333	7.00000e+00	
					         1.44500	9.00000e+00	
					         1.44667	1.10000e+01	
					         1.44833	1.20000e+01	
					         1.45000	1.40000e+01	
					         1.45167	1.50000e+01	
					         1.45333	1.70000e+01	
					         1.45500	1.80000e+01	
					         1.45667	1.90000e+01	
					         1.45833	2.00000e+01	
					         1.46000	2.10000e+01	
					         1.46167	2.20000e+01	
					         1.46333	2.40000e+01	
					         1.46500	2.50000e+01	
					         1.46667	2.60000e+01	
					         1.46833	2.70000e+01	
					         1.47000	2.80000e+01	
					         1.47167	3.00000e+01	
					         1.47333	3.10000e+01	
					         1.47500	3.20000e+01	
					         1.47667	3.40000e+01	
					         1.47833	3.50000e+01	
					         1.48000	3.60000e+01	
					         1.48167	3.80000e+01	
					         1.48333	3.90000e+01	
					         1.48500	4.10000e+01	
					         1.48667	4.20000e+01	
					         1.48833	4.30000e+01	
					         1.49000	4.40000e+01	
					         1.49167	4.50000e+01	
					         1.49333	4.60000e+01	
					         1.49500	4.70000e+01	
					         1.49667	4.80000e+01	
					         1.49833	4.90000e+01	
					         1.50000	5.00000e+01	
					         1.50167	5.10000e+01	
					         1.50333	5.10000e+01	
					         1.50500	5.20000e+01	
					         1.50667	5.30000e+01	
					         1.50833	5.30000e+01	
					         1.51000	5.40000e+01	
					         1.51167	5.40000e+01	
					         1.51333	5.40000e+01	
					         1.51500	5.40000e+01	
					         1.51667	5.40000e+01	
					         1.51833	5.40000e+01	
					         1.52000	5.40000e+01	
					         1.52167	5.40000e+01	
					         1.52333	5.30000e+01	
					         1.52500	5.30000e+01	
					         1.52667	5.20000e+01	
					         1.52833	5.20000e+01	
					         1.53000	5.10000e+01	
					         1.53167	5.00000e+01	
					         1.53333	4.90000e+01	
					         1.53500	4.80000e+01	
					         1.53667	4.70000e+01	
					         1.53833	4.60000e+01	
					         1.54000	4.40000e+01	
					         1.54167	4.20000e+01	
					         1.54333	4.00000e+01	
					         1.54500	3.70000e+01	
					         1.54667	3.50000e+01	
					         1.54833	3.10000e+01	
					         1.55000	2.80000e+01	
					         1.55167	2.40000e+01	
					         1.55333	1.90000e+01	
					         1.55500	1.50000e+01	
					         1.55667	1.00000e+01	
					         1.55833	6.00000e+00	
					         1.56000	1.00000e+00	
					         1.56167	-3.00000e+00	
					         1.56333	-8.00000e+00	
					         1.56500	-1.20000e+01	
					         1.56667	-1.60000e+01	
					         1.56833	-1.90000e+01	
					         1.57000	-2.30000e+01	
					         1.57167	-2.60000e+01	
					         1.57333	-2.90000e+01	
					         1.57500	-3.20000e+01	
					         1.57667	-3.50000e+01	
					         1.57833	-3.80000e+01	
					         1.58000	-4.10000e+01	
					         1.58167	-4.40000e+01	
					         1.58333	-4.60000e+01	
					         1.58500	-4.90000e+01	
					         1.58667	-5.10000e+01	
					         1.58833	-5.30000e+01	
					         1.59000	-5.50000e+01	
					         1.59167	-5.60000e+01	
					         1.59333	-5.80000e+01	
					         1.59500	-5.90000e+01	
					         1.59667	-5.90000e+01	
					         1.59833	-6.00000e+01	
					         1.60000	-6.00000e+01	
					         1.60167	-6.00000e+01	
					         1.60333	-6.00000e+01	
					         1.60500	-6.00000e+01	
					         1.60667	-5.90000e+01	
					         1.60833	-5.90000e+01	
					         1.61000	-5.80000e+01	
					         1.61167	-5.80000e+01	
					         1.61333	-5.70000e+01	
					         1.61500	-5.70000e+01	
					         1.61667	-5.60000e+01	
					         1.61833	-5.50000e+01	
					         1.62000	-5.50000e+01	
					         1.62167	-5.50000e+01	
					         1.62333	-5.40000e+01	
					         1.62500	-5.40000e+01	
					         1.62667	-5.30000e+01	
					         1.62833	-5.20000e+01	
					         1.63000	-5.20000e+01	
					         1.63167	-5.10000e+01	
					         1.63333	-5.00000e+01	
					         1.63500	-5.00000e+01	
					         1.63667	-4.90000e+01	
					         1.63833	-4.80000e+01	
					         1.64000	-4.60000e+01	
					         1.64167	-4.50000e+01	
					         1.64333	-4.40000e+01	
					         1.64500	-4.30000e+01	
					         1.64667	-4.10000e+01	
					         1.64833	-4.00000e+01	
					         1.65000	-3.80000e+01	
					         1.65167	-3.70000e+01	
					         1.65333	-3.60000e+01	
					         1.65500	-3.40000e+01	
					         1.65667	-3.30000e+01	
					         1.65833	-3.20000e+01	
					         1.66000	-3.20000e+01	
					         1.66167	-3.10000e+01	
					         1.66333	-3.00000e+01	
					         1.66500	-3.00000e+01	
					         1.66667	-3.00000e+01	
					         1.66833	-2.90000e+01	
					         1.67000	-2.90000e+01	
					         1.67167	-2.90000e+01	
					         1.67333	-2.90000e+01	
					         1.67500	-2.90000e+01	
					         1.67667	-2.80000e+01	
					         1.67833	-2.80000e+01	
					         1.68000	-2.80000e+01	
					         1.68167	-2.70000e+01	
					         1.68333	-2.60000e+01	
					         1.68500	-2.60000e+01	
					         1.68667	-2.50000e+01	
					         1.68833	-2.40000e+01	
					         1.69000	-2.30000e+01	
					         1.69167	-2.20000e+01	
					         1.69333	-2.20000e+01	
					         1.69500	-2.10000e+01	
					         1.69667	-2.00000e+01	
					         1.69833	-2.00000e+01	
					         1.70000	-1.90000e+01	
					         1.70167	-1.90000e+01	
					         1.70333	-1.80000e+01	
					         1.70500	-1.80000e+01	
					         1.70667	-1.80000e+01	
					         1.70833	-1.80000e+01	
					         1.71000	-1.70000e+01	
					         1.71167	-1.70000e+01	
					         1.71333	-1.60000e+01	
					         1.71500	-1.60000e+01	
					         1.71667	-1.50000e+01	
					         1.71833	-1.50000e+01	
					         1.72000	-1.50000e+01	
					         1.72167	-1.40000e+01	
					         1.72333	-1.40000e+01	
					         1.72500	-1.40000e+01	
					         1.72667	-1.40000e+01	
					         1.72833	-1.40000e+01	
					         1.73000	-1.50000e+01	
					         1.73167	-1.50000e+01	
					         1.73333	-1.50000e+01	
					         1.73500	-1.50000e+01	
					         1.73667	-1.50000e+01	
					         1.73833	-1.50000e+01	
					         1.74000	-1.50000e+01	
					         1.74167	-1.40000e+01	
					         1.74333	-1.40000e+01	
					         1.74500	-1.30000e+01	
					         1.74667	-1.30000e+01	
					         1.74833	-1.20000e+01	
					         1.75000	-1.20000e+01	
					         1.75167	-1.20000e+01	
					         1.75333	-1.20000e+01	
					         1.75500	-1.10000e+01	
					         1.75667	-1.10000e+01	
					         1.75833	-1.10000e+01	
					         1.76000	-1.10000e+01	
					         1.76167	-1.10000e+01	
					         1.76333	-1.10000e+01	
					         1.76500	-1.00000e+01	
					         1.76667	-1.00000e+01	
					         1.76833	-9.00000e+00	
					         1.77000	-9.00000e+00	
					         1.77167	-8.00000e+00	
					         1.77333	-7.00000e+00	
					         1.77500	-6.00000e+00	
					         1.77667	-5.00000e+00	
					         1.77833	-4.00000e+00	
					         1.78000	-3.00000e+00	
					         1.78167	-3.00000e+00	
					         1.78333	-2.00000e+00	
					         1.78500	-2.00000e+00	
					         1.78667	-2.00000e+00	
					         1.78833	-2.00000e+00	
					         1.79000	-2.00000e+00	
					         1.79167	-2.00000e+00	
					         1.79333	-2.00000e+00	
					         1.79500	-3.00000e+00	
					         1.79667	-3.00000e+00	
					         1.79833	-3.00000e+00	
					         1.80000	-3.00000e+00	
					         1.80167	-3.00000e+00	
					         1.80333	-3.00000e+00	
					         1.80500	-2.00000e+00	
					         1.80667	-2.00000e+00	
					         1.80833	-1.00000e+00	
					         1.81000	0.00000e+00	
					         1.81167	0.00000e+00	
					         1.81333	1.00000e+00	
					         1.81500	2.00000e+00	
					         1.81667	2.00000e+00	
					         1.81833	3.00000e+00	
					         1.82000	3.00000e+00	
					         1.82167	3.00000e+00	
					         1.82333	3.00000e+00	
					         1.82500	2.00000e+00	
					         1.82667	1.00000e+00	
					         1.82833	1.00000e+00	
					         1.83000	0.00000e+00	
					         1.83167	-1.00000e+00	
					         1.83333	-2.00000e+00	
					         1.83500	-2.00000e+00	
					         1.83667	-3.00000e+00	
					         1.83833	-3.00000e+00	
					         1.84000	-3.00000e+00	
					         1.84167	-3.00000e+00	
					         1.84333	-3.00000e+00	
					         1.84500	-3.00000e+00	
					         1.84667	-2.00000e+00	
					         1.84833	-1.00000e+00	
					         1.85000	-1.00000e+00	
					         1.85167	0.00000e+00	
					         1.85333	1.00000e+00	
					         1.85500	2.00000e+00	
					         1.85667	2.00000e+00	
					         1.85833	3.00000e+00	
					         1.86000	3.00000e+00	
					         1.86167	3.00000e+00	
					         1.86333	3.00000e+00	
					         1.86500	3.00000e+00	
					         1.86667	2.00000e+00	
					         1.86833	2.00000e+00	
					         1.87000	1.00000e+00	
					         1.87167	0.00000e+00	
					         1.87333	0.00000e+00	
					         1.87500	-1.00000e+00	
					         1.87667	-2.00000e+00	
					         1.87833	-2.00000e+00	
					         1.88000	-3.00000e+00	
					         1.88167	-3.00000e+00	
					         1.88333	-3.00000e+00	
					         1.88500	-2.00000e+00	
					         1.88667	-2.00000e+00	
					         1.88833	-2.00000e+00	
					         1.89000	-1.00000e+00	
					         1.89167	0.00000e+00	
					         1.89333	0.00000e+00	
					         1.89500	1.00000e+00	
					         1.89667	1.00000e+00	
					         1.89833	2.00000e+00	
					         1.90000	2.00000e+00	
					         1.90167	2.00000e+00	
					         1.90333	2.00000e+00	
					         1.90500	2.00000e+00	
					         1.90667	2.00000e+00	
					         1.90833	3.00000e+00	
					         1.91000	3.00000e+00	
					         1.91167	3.00000e+00	
					         1.91333	3.00000e+00	
					         1.91500	3.00000e+00	
					         1.91667	3.00000e+00	
					         1.91833	2.00000e+00	
					         1.92000	2.00000e+00	
					         1.92167	2.00000e+00	
					         1.92333	2.00000e+00	
					         1.92500	1.00000e+00	
					         1.92667	1.00000e+00	
					         1.92833	0.00000e+00	
					         1.93000	-1.00000e+00	
					         1.93167	-2.00000e+00	
					         1.93333	-2.00000e+00	
					         1.93500	-3.00000e+00	
					         1.93667	-3.00000e+00	
					         1.93833	-4.00000e+00	
					         1.94000	-4.00000e+00	
					         1.94167	-5.00000e+00	
					         1.94333	-5.00000e+00	
					         1.94500	-5.00000e+00	
					         1.94667	-5.00000e+00	
					         1.94833	-5.00000e+00	
					         1.95000	-5.00000e+00	
					         1.95167	-4.00000e+00	
					         1.95333	-4.00000e+00	
					         1.95500	-3.00000e+00	
					         1.95667	-3.00000e+00	
					         1.95833	-2.00000e+00	
					         1.96000	-2.00000e+00	
					         1.96167	-1.00000e+00	
					         1.96333	0.00000e+00	
					         1.96500	0.00000e+00	
					         1.96667	1.00000e+00	
					         1.96833	1.00000e+00	
					         1.97000	1.00000e+00	
					         1.97167	1.00000e+00	
					         1.97333	2.00000e+00	
					         1.97500	1.00000e+00	
					         1.97667	1.00000e+00	
					         1.97833	1.00000e+00	
					         1.98000	1.00000e+00	
					         1.98167	1.00000e+00	
					         1.98333	0.00000e+00	
					         1.98500	0.00000e+00	
					         1.98667	-1.00000e+00	
					         1.98833	-1.00000e+00	
					         1.99000	-1.00000e+00	
					         1.99167	-2.00000e+00	
					         1.99333	-2.00000e+00	
					         1.99500	-2.00000e+00	
					         1.99667	-2.00000e+00	
					         1.99833	-2.00000e+00	
					         2.00000	-2.00000e+00	
					         2.00167	-2.00000e+00	
					         2.00333	-2.00000e+00	
					         2.00500	-1.00000e+00	
					         2.00667	-1.00000e+00	
					         2.00833	-1.00000e+00	
					         2.01000	-1.00000e+00	
					         2.01167	0.00000e+00	
					         2.01333	0.00000e+00	
					         2.01500	0.00000e+00	
					         2.01667	0.00000e+00	
					         2.01833	0.00000e+00	
					         2.02000	-1.00000e+00	
					         2.02167	-1.00000e+00	
					         2.02333	-1.00000e+00	
					         2.02500	-2.00000e+00	
					         2.02667	-2.00000e+00	
					         2.02833	-2.00000e+00	
					         2.03000	-2.00000e+00	
					         2.03167	-2.00000e+00	
					         2.03333	-2.00000e+00	
					         2.03500	-2.00000e+00	
					         2.03667	-2.00000e+00	
					         2.03833	-2.00000e+00	
					         2.04000	-1.00000e+00	
					         2.04167	-1.00000e+00	
					         2.04333	0.00000e+00	
					         2.04500	0.00000e+00	
					         2.04667	1.00000e+00	
					         2.04833	2.00000e+00	
					         2.05000	3.00000e+00	
					         2.05167	3.00000e+00	
					         2.05333	4.00000e+00	
					         2.05500	4.00000e+00	
					         2.05667	5.00000e+00	
					         2.05833	5.00000e+00	
					         2.06000	5.00000e+00	
					         2.06167	5.00000e+00	
					         2.06333	5.00000e+00	
					         2.06500	5.00000e+00	
					         2.06667	5.00000e+00	
					         2.06833	5.00000e+00	
					         2.07000	4.00000e+00	
					         2.07167	4.00000e+00	
					         2.07333	4.00000e+00	
					         2.07500	3.00000e+00	
					         2.07667	3.00000e+00	
					         2.07833	2.00000e+00	
					         2.08000	2.00000e+00	
					         2.08167	1.00000e+00	
					         2.08333	1.00000e+00	
					         2.08500	0.00000e+00	
					         2.08667	0.00000e+00	
					         2.08833	0.00000e+00	
					         2.09000	0.00000e+00	
					         2.09167	-1.00000e+00	
					         2.09333	-1.00000e+00	
					         2.09500	-1.00000e+00	
					         2.09667	0.00000e+00	
					         2.09833	0.00000e+00	
					         2.10000	0.00000e+00	
					         2.10167	0.00000e+00	
					         2.10333	1.00000e+00	
					         2.10500	1.00000e+00	
					         2.10667	2.00000e+00	
					         2.10833	2.00000e+00	
					         2.11000	3.00000e+00	
					         2.11167	3.00000e+00	
					         2.11333	4.00000e+00	
					         2.11500	5.00000e+00	
					         2.11667	5.00000e+00	
					         2.11833	6.00000e+00	
					         2.12000	6.00000e+00	
					         2.12167	6.00000e+00	
					         2.12333	6.00000e+00	
					         2.12500	6.00000e+00	
					         2.12667	6.00000e+00	
					         2.12833	5.00000e+00	
					         2.13000	4.00000e+00	
					         2.13167	4.00000e+00	
					         2.13333	3.00000e+00	
					         2.13500	2.00000e+00	
					         2.13667	1.00000e+00	
					         2.13833	0.00000e+00	
					         2.14000	-1.00000e+00	
					         2.14167	-2.00000e+00	
					         2.14333	-2.00000e+00	
					         2.14500	-3.00000e+00	
					         2.14667	-3.00000e+00	
					         2.14833	-3.00000e+00	
					         2.15000	-4.00000e+00	
					         2.15167	-4.00000e+00	
					         2.15333	-4.00000e+00	
					         2.15500	-4.00000e+00	
					         2.15667	-4.00000e+00	
					         2.15833	-3.00000e+00	
					         2.16000	-3.00000e+00	
					         2.16167	-3.00000e+00	
					         2.16333	-3.00000e+00	
					         2.16500	-3.00000e+00	
					         2.16667	-3.00000e+00	
					         2.16833	-3.00000e+00	
					         2.17000	-3.00000e+00	
					         2.17167	-3.00000e+00	
					         2.17333	-3.00000e+00	
					         2.17500	-3.00000e+00	
					         2.17667	-3.00000e+00	
					         2.17833	-3.00000e+00	
					         2.18000	-3.00000e+00	
					         2.18167	-3.00000e+00	
					         2.18333	-3.00000e+00	
					         2.18500	-3.00000e+00	
					         2.18667	-3.00000e+00	
					         2.18833	-3.00000e+00	
					         2.19000	-3.00000e+00	
					         2.19167	-3.00000e+00	
					         2.19333	-3.00000e+00	
					         2.19500	-3.00000e+00	
					         2.19667	-3.00000e+00	
					         2.19833	-3.00000e+00	
					         2.20000	-3.00000e+00	
					         2.20167	-2.00000e+00	
					         2.20333	-2.00000e+00	
					         2.20500	-1.00000e+00	
					         2.20667	-1.00000e+00	
					         2.20833	0.00000e+00	
					         2.21000	0.00000e+00	
					         2.21167	1.00000e+00	
					         2.21333	1.00000e+00	
					         2.21500	2.00000e+00	
					         2.21667	2.00000e+00	
					         2.21833	2.00000e+00	
					         2.22000	3.00000e+00	
					         2.22167	3.00000e+00	
					         2.22333	3.00000e+00	
					         2.22500	3.00000e+00	
					         2.22667	3.00000e+00	
					         2.22833	3.00000e+00	
					         2.23000	4.00000e+00	
					         2.23167	4.00000e+00	
					         2.23333	5.00000e+00	
					         2.23500	6.00000e+00	
					         2.23667	8.00000e+00	
					         2.23833	1.00000e+01	
					         2.24000	1.20000e+01	
					         2.24167	1.30000e+01	
					         2.24333	1.50000e+01	
					         2.24500	1.70000e+01	
					         2.24667	1.90000e+01	
					         2.24833	2.10000e+01	
					         2.25000	2.30000e+01	
					         2.25167	2.40000e+01	
					         2.25333	2.40000e+01	
					         2.25500	2.40000e+01	
					         2.25667	2.30000e+01	
					         2.25833	2.20000e+01	
					         2.26000	2.10000e+01	
					         2.26167	1.90000e+01	
					         2.26333	1.70000e+01	
					         2.26500	1.50000e+01	
					         2.26667	1.20000e+01	
					         2.26833	1.00000e+01	
					         2.27000	8.00000e+00	
					         2.27167	5.00000e+00	
					         2.27333	3.00000e+00	
					         2.27500	1.00000e+00	
					         2.27667	0.00000e+00	
					         2.27833	-2.00000e+00	
					         2.28000	-3.00000e+00	
					         2.28167	-4.00000e+00	
					         2.28333	-5.00000e+00	
					         2.28500	-5.00000e+00	
					         2.28667	-6.00000e+00	
					         2.28833	-7.00000e+00	
					         2.29000	-7.00000e+00	
					         2.29167	-8.00000e+00	
					         2.29333	-8.00000e+00	
					         2.29500	-9.00000e+00	
					         2.29667	-9.00000e+00	
					         2.29833	-9.00000e+00	
					         2.30000	-8.00000e+00	
					         2.30167	-8.00000e+00	
					         2.30333	-7.00000e+00	
					         2.30500	-6.00000e+00	
					         2.30667	-5.00000e+00	
					         2.30833	-4.00000e+00	
					         2.31000	-2.00000e+00	
					         2.31167	-1.00000e+00	
					         2.31333	0.00000e+00	
					         2.31500	2.00000e+00	
					         2.31667	3.00000e+00	
					         2.31833	4.00000e+00	
					         2.32000	4.00000e+00	
					         2.32167	5.00000e+00	
					         2.32333	5.00000e+00	
					         2.32500	5.00000e+00	
					         2.32667	5.00000e+00	
					         2.32833	4.00000e+00	
					         2.33000	4.00000e+00	
					         2.33167	3.00000e+00	
					         2.33333	2.00000e+00	
					         2.33500	0.00000e+00	
					         2.33667	-1.00000e+00	
					         2.33833	-3.00000e+00	
					         2.34000	-5.00000e+00	
					         2.34167	-8.00000e+00	
					         2.34333	-1.10000e+01	
					         2.34500	-1.40000e+01	
					         2.34667	-1.70000e+01	
					         2.34833	-1.90000e+01	
					         2.35000	-2.20000e+01	
					         2.35167	-2.30000e+01	
					         2.35333	-2.40000e+01	
					         2.35500	-2.30000e+01	
					         2.35667	-2.00000e+01	
					         2.35833	-1.50000e+01	
					         2.36000	-7.00000e+00	
					         2.36167	4.00000e+00	
					         2.36333	1.80000e+01	
					         2.36500	3.70000e+01	
					         2.36667	6.00000e+01	
					         2.36833	8.70000e+01	
					         2.37000	1.18000e+02	
					         2.37167	1.53000e+02	
					         2.37333	1.92000e+02	
					         2.37500	2.32000e+02	
					         2.37667	2.74000e+02	
					         2.37833	3.15000e+02	
					         2.38000	3.54000e+02	
					         2.38167	3.91000e+02	
					         2.38333	4.22000e+02	
					         2.38500	4.47000e+02	
					         2.38667	4.64000e+02	
					         2.38833	4.73000e+02	
					         2.39000	4.73000e+02	
					         2.39167	4.64000e+02	
					         2.39333	4.47000e+02	
					         2.39500	4.21000e+02	
					         2.39667	3.89000e+02	
					         2.39833	3.52000e+02	
					         2.40000	3.11000e+02	
					         2.40167	2.67000e+02	
					         2.40333	2.23000e+02	
					         2.40500	1.79000e+02	
					         2.40667	1.37000e+02	
					         2.40833	9.70000e+01	
					         2.41000	6.10000e+01	
					         2.41167	2.90000e+01	
					         2.41333	1.00000e+00	
					         2.41500	-2.40000e+01	
					         2.41667	-4.60000e+01	
					         2.41833	-6.40000e+01	
					         2.42000	-7.90000e+01	
					         2.42167	-9.10000e+01	
					         2.42333	-1.01000e+02	
					         2.42500	-1.10000e+02	
					         2.42667	-1.16000e+02	
					         2.42833	-1.21000e+02	
					         2.43000	-1.25000e+02	
					         2.43167	-1.27000e+02	
					         2.43333	-1.29000e+02	
					         2.43500	-1.30000e+02	
					         2.43667	-1.29000e+02	
					         2.43833	-1.29000e+02	
					         2.44000	-1.28000e+02	
					         2.44167	-1.26000e+02	
					         2.44333	-1.25000e+02	
					         2.44500	-1.23000e+02	
					         2.44667	-1.21000e+02	
					         2.44833	-1.18000e+02	
					         2.45000	-1.16000e+02	
					         2.45167	-1.14000e+02	
					         2.45333	-1.12000e+02	
					         2.45500	-1.10000e+02	
					         2.45667	-1.08000e+02	
					         2.45833	-1.06000e+02	
					         2.46000	-1.04000e+02	
					         2.46167	-1.02000e+02	
					         2.46333	-1.00000e+02	
					         2.46500	-9.80000e+01	
					         2.46667	-9.50000e+01	
					         2.46833	-9.30000e+01	
					         2.47000	-9.10000e+01	
					         2.47167	-8.80000e+01	
					         2.47333	-8.60000e+01	
					         2.47500	-8.30000e+01	
					         2.47667	-8.00000e+01	
					         2.47833	-7.80000e+01	
					         2.48000	-7.50000e+01	
					         2.48167	-7.20000e+01	
					         2.48333	-7.00000e+01	
					         2.48500	-6.70000e+01	
					         2.48667	-6.50000e+01	
					         2.48833	-6.30000e+01	
					         2.49000	-6.10000e+01	
					         2.49167	-5.90000e+01	
					         2.49333	-5.80000e+01	
					         2.49500	-5.60000e+01	
					         2.49667	-5.50000e+01	
					         2.49833	-5.30000e+01	
					         2.50000	-5.20000e+01	
					         2.50167	-5.10000e+01	
					         2.50333	-5.00000e+01	
					         2.50500	-4.90000e+01	
					         2.50667	-4.80000e+01	
					         2.50833	-4.70000e+01	
					         2.51000	-4.60000e+01	
					         2.51167	-4.50000e+01	
					         2.51333	-4.50000e+01	
					         2.51500	-4.40000e+01	
					         2.51667	-4.40000e+01	
					         2.51833	-4.40000e+01	
					         2.52000	-4.30000e+01	
					         2.52167	-4.30000e+01	
					         2.52333	-4.20000e+01	
					         2.52500	-4.10000e+01	
					         2.52667	-4.00000e+01	
					         2.52833	-3.80000e+01	
					         2.53000	-3.70000e+01	
					         2.53167	-3.50000e+01	
					         2.53333	-3.20000e+01	
					         2.53500	-3.00000e+01	
					         2.53667	-2.80000e+01	
					         2.53833	-2.50000e+01	
					         2.54000	-2.30000e+01	
					         2.54167	-2.10000e+01	
					         2.54333	-2.00000e+01	
					         2.54500	-1.80000e+01	
					         2.54667	-1.70000e+01	
					         2.54833	-1.60000e+01	
					         2.55000	-1.50000e+01	
					         2.55167	-1.50000e+01	
					         2.55333	-1.40000e+01	
					         2.55500	-1.40000e+01	
					         2.55667	-1.30000e+01	
					         2.55833	-1.30000e+01	
					         2.56000	-1.20000e+01	
					         2.56167	-1.20000e+01	
					         2.56333	-1.10000e+01	
					         2.56500	-1.10000e+01	
					         2.56667	-1.00000e+01	
					         2.56833	-1.00000e+01	
					         2.57000	-9.00000e+00	
					         2.57167	-9.00000e+00	
					         2.57333	-9.00000e+00	
					         2.57500	-8.00000e+00	
					         2.57667	-8.00000e+00	
					         2.57833	-7.00000e+00	
					         2.58000	-7.00000e+00	
					         2.58167	-6.00000e+00	
					         2.58333	-6.00000e+00	
					         2.58500	-5.00000e+00	
					         2.58667	-4.00000e+00	
					         2.58833	-3.00000e+00	
					         2.59000	-2.00000e+00	
					         2.59167	-1.00000e+00	
					         2.59333	0.00000e+00	
					         2.59500	2.00000e+00	
					         2.59667	3.00000e+00	
					         2.59833	4.00000e+00	
					         2.60000	6.00000e+00	
					         2.60167	7.00000e+00	
					         2.60333	9.00000e+00	
					         2.60500	1.00000e+01	
					         2.60667	1.20000e+01	
					         2.60833	1.40000e+01	
					         2.61000	1.60000e+01	
					         2.61167	1.80000e+01	
					         2.61333	2.00000e+01	
					         2.61500	2.20000e+01	
					         2.61667	2.50000e+01	
					         2.61833	2.70000e+01	
					         2.62000	2.90000e+01	
					         2.62167	3.20000e+01	
					         2.62333	3.40000e+01	
					         2.62500	3.60000e+01	
					         2.62667	3.80000e+01	
					         2.62833	3.90000e+01	
					         2.63000	4.10000e+01	
					         2.63167	4.20000e+01	
					         2.63333	4.30000e+01	
					         2.63500	4.40000e+01	
					         2.63667	4.50000e+01	
					         2.63833	4.50000e+01	
					         2.64000	4.60000e+01	
					         2.64167	4.70000e+01	
					         2.64333	4.80000e+01	
					         2.64500	4.90000e+01	
					         2.64667	5.00000e+01	
					         2.64833	5.10000e+01	
					         2.65000	5.20000e+01	
					         2.65167	5.40000e+01	
					         2.65333	5.50000e+01	
					         2.65500	5.70000e+01	
					         2.65667	5.90000e+01	
					         2.65833	6.00000e+01	
					         2.66000	6.20000e+01	
					         2.66167	6.30000e+01	
					         2.66333	6.40000e+01	
					         2.66500	6.50000e+01	
					         2.66667	6.50000e+01	
					         2.66833	6.50000e+01	
					         2.67000	6.50000e+01	
					         2.67167	6.50000e+01	
					         2.67333	6.40000e+01	
					         2.67500	6.20000e+01	
					         2.67667	6.10000e+01	
					         2.67833	5.90000e+01	
					         2.68000	5.70000e+01	
					         2.68167	5.50000e+01	
					         2.68333	5.30000e+01	
					         2.68500	5.10000e+01	
					         2.68667	4.90000e+01	
					         2.68833	4.60000e+01	
					         2.69000	4.40000e+01	
					         2.69167	4.10000e+01	
					         2.69333	3.80000e+01	
					         2.69500	3.50000e+01	
					         2.69667	3.20000e+01	
					         2.69833	2.80000e+01	
					         2.70000	2.50000e+01	
					         2.70167	2.10000e+01	
					         2.70333	1.70000e+01	
					         2.70500	1.30000e+01	
					         2.70667	8.00000e+00	
					         2.70833	4.00000e+00	
					         2.71000	0.00000e+00	
					         2.71167	-5.00000e+00	
					         2.71333	-9.00000e+00	
					         2.71500	-1.30000e+01	
					         2.71667	-1.70000e+01	
					         2.71833	-2.10000e+01	
					         2.72000	-2.40000e+01	
					         2.72167	-2.80000e+01	
					         2.72333	-3.10000e+01	
					         2.72500	-3.30000e+01	
					         2.72667	-3.60000e+01	
					         2.72833	-3.80000e+01	
					         2.73000	-4.00000e+01	
					         2.73167	-4.30000e+01	
					         2.73333	-4.40000e+01	
					         2.73500	-4.60000e+01	
					         2.73667	-4.80000e+01	
					         2.73833	-5.00000e+01	
					         2.74000	-5.10000e+01	
					         2.74167	-5.30000e+01	
					         2.74333	-5.40000e+01	
					         2.74500	-5.50000e+01	
					         2.74667	-5.50000e+01	
					         2.74833	-5.60000e+01	
					         2.75000	-5.60000e+01	
					         2.75167	-5.60000e+01	
					         2.75333	-5.60000e+01	
					         2.75500	-5.60000e+01	
					         2.75667	-5.50000e+01	
					         2.75833	-5.40000e+01	
					         2.76000	-5.30000e+01	
					         2.76167	-5.30000e+01	
					         2.76333	-5.20000e+01	
					         2.76500	-5.10000e+01	
					         2.76667	-5.00000e+01	
					         2.76833	-4.90000e+01	
					         2.77000	-4.80000e+01	
					         2.77167	-4.70000e+01	
					         2.77333	-4.60000e+01	
					         2.77500	-4.50000e+01	
					         2.77667	-4.40000e+01	
					         2.77833	-4.30000e+01	
					         2.78000	-4.20000e+01	
					         2.78167	-4.10000e+01	
					         2.78333	-4.00000e+01	
					         2.78500	-3.90000e+01	
					         2.78667	-3.90000e+01	
					         2.78833	-3.80000e+01	
					         2.79000	-3.80000e+01	
					         2.79167	-3.70000e+01	
					         2.79333	-3.70000e+01	
					         2.79500	-3.70000e+01	
					         2.79667	-3.60000e+01	
					         2.79833	-3.60000e+01	
					         2.80000	-3.60000e+01	
					         2.80167	-3.60000e+01	
					         2.80333	-3.50000e+01	
					         2.80500	-3.50000e+01	
					         2.80667	-3.40000e+01	
					         2.80833	-3.30000e+01	
					         2.81000	-3.30000e+01	
					         2.81167	-3.20000e+01	
					         2.81333	-3.00000e+01	
					         2.81500	-2.90000e+01	
					         2.81667	-2.80000e+01	
					         2.81833	-2.60000e+01	
					         2.82000	-2.40000e+01	
					         2.82167	-2.20000e+01	
					         2.82333	-2.00000e+01	
					         2.82500	-1.80000e+01	
					         2.82667	-1.70000e+01	
					         2.82833	-1.50000e+01	
					         2.83000	-1.40000e+01	
					         2.83167	-1.30000e+01	
					         2.83333	-1.20000e+01	
					         2.83500	-1.10000e+01	
					         2.83667	-1.10000e+01	
					         2.83833	-1.10000e+01	
					         2.84000	-1.10000e+01	
					         2.84167	-1.10000e+01	
					         2.84333	-1.10000e+01	
					         2.84500	-1.10000e+01	
					         2.84667	-1.20000e+01	
					         2.84833	-1.20000e+01	
					         2.85000	-1.30000e+01	
					         2.85167	-1.30000e+01	
					         2.85333	-1.40000e+01	
					         2.85500	-1.40000e+01	
					         2.85667	-1.40000e+01	
					         2.85833	-1.40000e+01	
					         2.86000	-1.40000e+01	
					         2.86167	-1.40000e+01	
					         2.86333	-1.40000e+01	
					         2.86500	-1.40000e+01	
					         2.86667	-1.40000e+01	
					         2.86833	-1.40000e+01	
					         2.87000	-1.40000e+01	
					         2.87167	-1.40000e+01	
					         2.87333	-1.40000e+01	
					         2.87500	-1.30000e+01	
					         2.87667	-1.30000e+01	
					         2.87833	-1.30000e+01	
					         2.88000	-1.30000e+01	
					         2.88167	-1.30000e+01	
					         2.88333	-1.30000e+01	
					         2.88500	-1.30000e+01	
					         2.88667	-1.30000e+01	
					         2.88833	-1.30000e+01	
					         2.89000	-1.30000e+01	
					         2.89167	-1.30000e+01	
					         2.89333	-1.20000e+01	
					         2.89500	-1.20000e+01	
					         2.89667	-1.10000e+01	
					         2.89833	-1.00000e+01	
					         2.90000	-1.00000e+01	
					         2.90167	-9.00000e+00	
					         2.90333	-8.00000e+00	
					         2.90500	-8.00000e+00	
					         2.90667	-7.00000e+00	
					         2.90833	-7.00000e+00	
					         2.91000	-7.00000e+00	
					         2.91167	-6.00000e+00	
					         2.91333	-6.00000e+00	
					         2.91500	-6.00000e+00	
					         2.91667	-6.00000e+00	
					         2.91833	-5.00000e+00	
					         2.92000	-5.00000e+00	
					         2.92167	-5.00000e+00	
					         2.92333	-5.00000e+00	
					         2.92500	-5.00000e+00	
					         2.92667	-6.00000e+00	
					         2.92833	-6.00000e+00	
					         2.93000	-6.00000e+00	
					         2.93167	-6.00000e+00	
					         2.93333	-7.00000e+00	
					         2.93500	-7.00000e+00	
					         2.93667	-7.00000e+00	
					         2.93833	-7.00000e+00	
					         2.94000	-7.00000e+00	
					         2.94167	-6.00000e+00	
					         2.94333	-6.00000e+00	
					         2.94500	-5.00000e+00	
					         2.94667	-5.00000e+00	
					         2.94833	-5.00000e+00	
					         2.95000	-4.00000e+00	
					         2.95167	-4.00000e+00	
					         2.95333	-3.00000e+00	
					         2.95500	-3.00000e+00	
					         2.95667	-3.00000e+00	
					         2.95833	-3.00000e+00	
					         2.96000	-3.00000e+00	
					         2.96167	-3.00000e+00	
					         2.96333	-3.00000e+00	
					         2.96500	-3.00000e+00	
					         2.96667	-3.00000e+00	
					         2.96833	-3.00000e+00	
					         2.97000	-3.00000e+00	
					         2.97167	-4.00000e+00	
					         2.97333	-4.00000e+00	
					         2.97500	-4.00000e+00	
					         2.97667	-4.00000e+00	
					         2.97833	-4.00000e+00	
					         2.98000	-4.00000e+00	
					         2.98167	-4.00000e+00	
					         2.98333	-4.00000e+00	
					         2.98500	-4.00000e+00	
					         2.98667	-4.00000e+00	
					         2.98833	-4.00000e+00	
					         2.99000	-4.00000e+00	
					         2.99167	-4.00000e+00	
					         2.99333	-3.00000e+00	
					         2.99500	-3.00000e+00	
					         2.99667	-3.00000e+00	
					         2.99833	-3.00000e+00	
					         3.00000	-3.00000e+00	
					         3.00167	-2.00000e+00	
					         3.00333	-2.00000e+00	
					         3.00500	-2.00000e+00	
					         3.00667	-1.00000e+00	
					         3.00833	-1.00000e+00	
					         3.01000	-1.00000e+00	
					         3.01167	0.00000e+00	
					         3.01333	0.00000e+00	
					         3.01500	0.00000e+00	
					         3.01667	0.00000e+00	
					         3.01833	1.00000e+00	
					         3.02000	1.00000e+00	
					         3.02167	1.00000e+00	
					         3.02333	0.00000e+00	
					         3.02500	0.00000e+00	
					         3.02667	0.00000e+00	
					         3.02833	-1.00000e+00	
					         3.03000	-1.00000e+00	
					         3.03167	-2.00000e+00	
					         3.03333	-3.00000e+00	
					         3.03500	-4.00000e+00	
					         3.03667	-5.00000e+00	
					         3.03833	-6.00000e+00	
					         3.04000	-6.00000e+00	
					         3.04167	-7.00000e+00	
					         3.04333	-8.00000e+00	
					         3.04500	-8.00000e+00	
					         3.04667	-9.00000e+00	
					         3.04833	-9.00000e+00	
					         3.05000	-9.00000e+00	
					         3.05167	-9.00000e+00	
					         3.05333	-9.00000e+00	
					         3.05500	-8.00000e+00	
					         3.05667	-8.00000e+00	
					         3.05833	-7.00000e+00	
					         3.06000	-6.00000e+00	
					         3.06167	-5.00000e+00	
					         3.06333	-4.00000e+00	
					         3.06500	-4.00000e+00	
					         3.06667	-3.00000e+00	
					         3.06833	-2.00000e+00	
					         3.07000	-2.00000e+00	
					         3.07167	-1.00000e+00	
					         3.07333	-1.00000e+00	
					         3.07500	-1.00000e+00	
					         3.07667	-1.00000e+00	
					         3.07833	-1.00000e+00	
					         3.08000	-2.00000e+00	
					         3.08167	-2.00000e+00	
					         3.08333	-3.00000e+00	
					         3.08500	-3.00000e+00	
					         3.08667	-3.00000e+00	
					         3.08833	-4.00000e+00	
					         3.09000	-4.00000e+00	
					         3.09167	-4.00000e+00	
					         3.09333	-4.00000e+00	
					         3.09500	-4.00000e+00	
					         3.09667	-4.00000e+00	
					         3.09833	-3.00000e+00	
					         3.10000	-3.00000e+00	
					         3.10167	-2.00000e+00	
					         3.10333	-2.00000e+00	
					         3.10500	-1.00000e+00	
					         3.10667	-1.00000e+00	
					         3.10833	0.00000e+00	
					         3.11000	0.00000e+00	
					         3.11167	1.00000e+00	
					         3.11333	1.00000e+00	
					         3.11500	1.00000e+00	
					         3.11667	1.00000e+00	
					         3.11833	1.00000e+00	
					         3.12000	1.00000e+00	
					         3.12167	1.00000e+00	
					         3.12333	1.00000e+00	
					         3.12500	0.00000e+00	
					         3.12667	0.00000e+00	
					         3.12833	0.00000e+00	
					         3.13000	-1.00000e+00	
					         3.13167	-1.00000e+00	
					         3.13333	-1.00000e+00	
					         3.13500	-1.00000e+00	
					         3.13667	-1.00000e+00	
					         3.13833	-1.00000e+00	
					         3.14000	-1.00000e+00	
					         3.14167	-1.00000e+00	
					         3.14333	-1.00000e+00	
					         3.14500	0.00000e+00	
					         3.14667	0.00000e+00	
					         3.14833	0.00000e+00	
					         3.15000	0.00000e+00	
					         3.15167	-1.00000e+00	
					         3.15333	-1.00000e+00	
					         3.15500	-1.00000e+00	
					         3.15667	-1.00000e+00	
					         3.15833	-2.00000e+00	
					         3.16000	-2.00000e+00	
					         3.16167	-2.00000e+00	
					         3.16333	-3.00000e+00	
					         3.16500	-3.00000e+00	
					         3.16667	-3.00000e+00	
					         3.16833	-3.00000e+00	
					         3.17000	-3.00000e+00	
					         3.17167	-3.00000e+00	
					         3.17333	-2.00000e+00	
					         3.17500	-2.00000e+00	
					         3.17667	-2.00000e+00	
					         3.17833	-1.00000e+00	
					         3.18000	-1.00000e+00	
					         3.18167	-1.00000e+00	
					         3.18333	-1.00000e+00	
					         3.18500	0.00000e+00	
					         3.18667	0.00000e+00	
					         3.18833	-1.00000e+00	
					         3.19000	-1.00000e+00	
					         3.19167	-1.00000e+00	
					         3.19333	-2.00000e+00	
					         3.19500	-2.00000e+00	
					         3.19667	-2.00000e+00	
					         3.19833	-3.00000e+00	
					         3.20000	-3.00000e+00	
					         3.20167	-3.00000e+00	
					         3.20333	-3.00000e+00	
					         3.20500	-3.00000e+00	
					         3.20667	-3.00000e+00	
					         3.20833	-3.00000e+00	
					         3.21000	-3.00000e+00	
					         3.21167	-3.00000e+00	
					         3.21333	-2.00000e+00	
					         3.21500	-2.00000e+00	
					         3.21667	-2.00000e+00	
					         3.21833	-2.00000e+00	
					         3.22000	-2.00000e+00	
					         3.22167	-2.00000e+00	
					         3.22333	-2.00000e+00	
					         3.22500	-2.00000e+00	
					         3.22667	-2.00000e+00	
					         3.22833	-2.00000e+00	
					         3.23000	-3.00000e+00	
					         3.23167	-3.00000e+00	
					         3.23333	-3.00000e+00	
					         3.23500	-3.00000e+00	
					         3.23667	-3.00000e+00	
					         3.23833	-2.00000e+00	
					         3.24000	-2.00000e+00	
					         3.24167	-2.00000e+00	
					         3.24333	-2.00000e+00	
					         3.24500	-1.00000e+00	
					         3.24667	-1.00000e+00	
					         3.24833	-1.00000e+00	
					         3.25000	-1.00000e+00	
					         3.25167	-1.00000e+00	
					         3.25333	-1.00000e+00	
					         3.25500	-1.00000e+00	
					         3.25667	-1.00000e+00	
					         3.25833	-1.00000e+00	
					         3.26000	-1.00000e+00	
					         3.26167	-1.00000e+00	
					         3.26333	-1.00000e+00	
					         3.26500	-1.00000e+00	
					         3.26667	-1.00000e+00	
					         3.26833	-1.00000e+00	
					         3.27000	-1.00000e+00	
					         3.27167	-1.00000e+00	
					         3.27333	-1.00000e+00	
					         3.27500	-1.00000e+00	
					         3.27667	-1.00000e+00	
					         3.27833	-1.00000e+00	
					         3.28000	0.00000e+00	
					         3.28167	0.00000e+00	
					         3.28333	0.00000e+00	
					         3.28500	0.00000e+00	
					         3.28667	0.00000e+00	
					         3.28833	0.00000e+00	
					         3.29000	0.00000e+00	
					         3.29167	0.00000e+00	
					         3.29333	0.00000e+00	
					         3.29500	-1.00000e+00	
					         3.29667	-1.00000e+00	
					         3.29833	-1.00000e+00	
					         3.30000	-1.00000e+00	
					         3.30167	-1.00000e+00	
					         3.30333	-1.00000e+00	
					         3.30500	-1.00000e+00	
					         3.30667	-1.00000e+00	
					         3.30833	0.00000e+00	
					         3.31000	0.00000e+00	
					         3.31167	0.00000e+00	
					         3.31333	1.00000e+00	
					         3.31500	1.00000e+00	
					         3.31667	2.00000e+00	
					         3.31833	2.00000e+00	
					         3.32000	2.00000e+00	
					         3.32167	2.00000e+00	
					         3.32333	2.00000e+00	
					         3.32500	3.00000e+00	
					         3.32667	3.00000e+00	
					         3.32833	3.00000e+00	
					         3.33000	3.00000e+00	
					         3.33167	3.00000e+00	
					         3.33333	3.00000e+00	
					         3.33500	3.00000e+00	
					         3.33667	3.00000e+00	
					         3.33833	3.00000e+00	
					         3.34000	3.00000e+00	
					         3.34167	3.00000e+00	
					         3.34333	3.00000e+00	
					         3.34500	3.00000e+00	
					         3.34667	3.00000e+00	
					         3.34833	2.00000e+00	
					         3.35000	2.00000e+00	
					         3.35167	1.00000e+00	
					         3.35333	1.00000e+00	
					         3.35500	1.00000e+00	
					         3.35667	0.00000e+00	
					         3.35833	0.00000e+00	
					         3.36000	0.00000e+00	
					         3.36167	0.00000e+00	
					         3.36333	0.00000e+00	
					         3.36500	0.00000e+00	
					         3.36667	0.00000e+00	
					         3.36833	0.00000e+00	
					         3.37000	1.00000e+00	
					         3.37167	1.00000e+00	
					         3.37333	2.00000e+00	
					         3.37500	2.00000e+00	
					         3.37667	3.00000e+00	
					         3.37833	3.00000e+00	
					         3.38000	4.00000e+00	
					         3.38167	4.00000e+00	
					         3.38333	4.00000e+00	
					         3.38500	4.00000e+00	
					         3.38667	4.00000e+00	
					         3.38833	4.00000e+00	
					         3.39000	4.00000e+00	
					         3.39167	4.00000e+00	
					         3.39333	4.00000e+00	
					         3.39500	3.00000e+00	
					         3.39667	3.00000e+00	
					         3.39833	3.00000e+00	
					         3.40000	2.00000e+00	
					         3.40167	2.00000e+00	
					         3.40333	2.00000e+00	
					         3.40500	2.00000e+00	
					         3.40667	2.00000e+00	
					         3.40833	2.00000e+00	
					         3.41000	2.00000e+00	
					         3.41167	2.00000e+00	
					         3.41333	2.00000e+00	
					         3.41500	2.00000e+00	
					         3.41667	2.00000e+00	
					         3.41833	3.00000e+00	
					         3.42000	3.00000e+00	
					         3.42167	4.00000e+00	
					         3.42333	4.00000e+00	
					         3.42500	4.00000e+00	
					         3.42667	5.00000e+00	
					         3.42833	5.00000e+00	
					         3.43000	6.00000e+00	
					         3.43167	6.00000e+00	
					         3.43333	6.00000e+00	
					         3.43500	6.00000e+00	
					         3.43667	5.00000e+00	
					         3.43833	5.00000e+00	
					         3.44000	5.00000e+00	
					         3.44167	4.00000e+00	
					         3.44333	3.00000e+00	
					         3.44500	3.00000e+00	
					         3.44667	2.00000e+00	
					         3.44833	1.00000e+00	
					         3.45000	0.00000e+00	
					         3.45167	-1.00000e+00	
					         3.45333	-1.00000e+00	
					         3.45500	-2.00000e+00	
					         3.45667	-2.00000e+00	
					         3.45833	-2.00000e+00	
					         3.46000	-2.00000e+00	
					         3.46167	-2.00000e+00	
					         3.46333	-2.00000e+00	
					         3.46500	-1.00000e+00	
					         3.46667	0.00000e+00	
					         3.46833	1.00000e+00	
					         3.47000	2.00000e+00	
					         3.47167	3.00000e+00	
					         3.47333	4.00000e+00	
					         3.47500	5.00000e+00	
					         3.47667	6.00000e+00	
					         3.47833	7.00000e+00	
					         3.48000	8.00000e+00	
					         3.48167	9.00000e+00	
					         3.48333	1.00000e+01	
					         3.48500	1.00000e+01	
					         3.48667	1.10000e+01	
					         3.48833	1.20000e+01	
					         3.49000	1.30000e+01	
					         3.49167	1.40000e+01	
					         3.49333	1.50000e+01	
					         3.49500	1.60000e+01	
					         3.49667	1.70000e+01	
					         3.49833	1.70000e+01	
					         3.50000	1.80000e+01	
					         3.50167	1.90000e+01	
					         3.50333	2.00000e+01	
					         3.50500	2.00000e+01	
					         3.50667	2.00000e+01	
					         3.50833	2.00000e+01	
					         3.51000	1.90000e+01	
					         3.51167	1.90000e+01	
					         3.51333	1.70000e+01	
					         3.51500	1.60000e+01	
					         3.51667	1.50000e+01	
					         3.51833	1.30000e+01	
					         3.52000	1.20000e+01	
					         3.52167	1.00000e+01	
					         3.52333	9.00000e+00	
					         3.52500	7.00000e+00	
					         3.52667	6.00000e+00	
					         3.52833	5.00000e+00	
					         3.53000	4.00000e+00	
					         3.53167	4.00000e+00	
					         3.53333	3.00000e+00	
					         3.53500	3.00000e+00	
					         3.53667	3.00000e+00	
					         3.53833	3.00000e+00	
					         3.54000	3.00000e+00	
					         3.54167	3.00000e+00	
					         3.54333	3.00000e+00	
					         3.54500	3.00000e+00	
					         3.54667	3.00000e+00	
					         3.54833	3.00000e+00	
					         3.55000	3.00000e+00	
					         3.55167	3.00000e+00	
					         3.55333	2.00000e+00	
					         3.55500	2.00000e+00	
					         3.55667	2.00000e+00	
					         3.55833	1.00000e+00	
					         3.56000	1.00000e+00	
					         3.56167	1.00000e+00	
					         3.56333	0.00000e+00	
					         3.56500	0.00000e+00	
					         3.56667	-1.00000e+00	
					         3.56833	-1.00000e+00	
					         3.57000	-1.00000e+00	
					         3.57167	-2.00000e+00	
					         3.57333	-2.00000e+00	
					         3.57500	-3.00000e+00	
					         3.57667	-3.00000e+00	
					         3.57833	-3.00000e+00	
					         3.58000	-3.00000e+00	
					         3.58167	-3.00000e+00	
					         3.58333	-3.00000e+00	
					         3.58500	-3.00000e+00	
					         3.58667	-3.00000e+00	
					         3.58833	-3.00000e+00	
					         3.59000	-4.00000e+00	
					         3.59167	-5.00000e+00	
					         3.59333	-6.00000e+00	
					         3.59500	-8.00000e+00	
					         3.59667	-1.00000e+01	
					         3.59833	-1.30000e+01	
					         3.60000	-1.50000e+01	
					         3.60167	-1.80000e+01	
					         3.60333	-2.00000e+01	
					         3.60500	-2.20000e+01	
					         3.60667	-2.30000e+01	
					         3.60833	-2.30000e+01	
					         3.61000	-2.00000e+01	
					         3.61167	-1.50000e+01	
					         3.61333	-7.00000e+00	
					         3.61500	4.00000e+00	
					         3.61667	1.80000e+01	
					         3.61833	3.70000e+01	
					         3.62000	6.00000e+01	
					         3.62167	8.80000e+01	
					         3.62333	1.20000e+02	
					         3.62500	1.56000e+02	
					         3.62667	1.95000e+02	
					         3.62833	2.36000e+02	
					         3.63000	2.77000e+02	
					         3.63167	3.18000e+02	
					         3.63333	3.58000e+02	
					         3.63500	3.93000e+02	
					         3.63667	4.24000e+02	
					         3.63833	4.48000e+02	
					         3.64000	4.65000e+02	
					         3.64167	4.73000e+02	
					         3.64333	4.72000e+02	
					         3.64500	4.62000e+02	
					         3.64667	4.44000e+02	
					         3.64833	4.18000e+02	
					         3.65000	3.86000e+02	
					         3.65167	3.48000e+02	
					         3.65333	3.06000e+02	
					         3.65500	2.62000e+02	
					         3.65667	2.17000e+02	
					         3.65833	1.73000e+02	
					         3.66000	1.31000e+02	
					         3.66167	9.10000e+01	
					         3.66333	5.50000e+01	
					         3.66500	2.20000e+01	
					         3.66667	-6.00000e+00	
					         3.66833	-3.10000e+01	
					         3.67000	-5.20000e+01	
					         3.67167	-7.00000e+01	
					         3.67333	-8.40000e+01	
					         3.67500	-9.60000e+01	
					         3.67667	-1.06000e+02	
					         3.67833	-1.14000e+02	
