Velocity (TVI), in cm/s

Time (s) :	Trace 1 : 		Ecg : 		
0.00541   	-2.19969e+00		         0.00000	2.50000e+01	
0.01178   	-2.16040e+00		         0.00167	3.40000e+01	
0.01816   	-2.04539e+00		         0.00333	4.40000e+01	
0.02454   	-1.56865e+00		         0.00500	5.60000e+01	
0.03091   	-5.00498e-01		         0.00667	6.90000e+01	
0.03729   	9.19047e-01		         0.00833	8.20000e+01	
0.04367   	1.38680e+00		         0.01000	9.60000e+01	
0.05004   	2.12964e-01		         0.01167	1.08000e+02	
0.05642   	-1.16430e+00		         0.01333	1.20000e+02	
0.06280   	-1.40451e+00		         0.01500	1.30000e+02	
0.06917   	-1.07697e+00		         0.01667	1.39000e+02	
0.07555   	-9.54082e-01		         0.01833	1.45000e+02	
0.08193   	-6.14220e-01		         0.02000	1.48000e+02	
0.08830   	8.47182e-01		         0.02167	1.49000e+02	
0.09468   	2.68514e+00		         0.02333	1.46000e+02	
0.10106   	3.89599e+00		         0.02500	1.40000e+02	
0.10744   	4.48682e+00		         0.02667	1.31000e+02	
0.11381   	4.69581e+00		         0.02833	1.19000e+02	
0.12019   	4.67126e+00		         0.03000	1.05000e+02	
0.12656   	4.52841e+00		         0.03167	8.90000e+01	
0.13294   	4.39676e+00		         0.03333	7.30000e+01	
0.13932   	4.30385e+00		         0.03500	5.60000e+01	
0.14569   	4.29811e+00		         0.03667	4.00000e+01	
0.15207   	4.30024e+00		         0.03833	2.40000e+01	
0.15845   	4.32214e+00		         0.04000	1.00000e+01	
0.16483   	4.34253e+00		         0.04167	-3.00000e+00	
0.17120   	4.41837e+00		         0.04333	-1.40000e+01	
0.17758   	4.45806e+00		         0.04500	-2.30000e+01	
0.18396   	4.52096e+00		         0.04667	-2.90000e+01	
0.19033   	4.53439e+00		         0.04833	-3.40000e+01	
0.19671   	4.53793e+00		         0.05000	-3.70000e+01	
0.20309   	4.49536e+00		         0.05167	-3.90000e+01	
0.20946   	4.40433e+00		         0.05333	-4.00000e+01	
0.21584   	4.21593e+00		         0.05500	-3.90000e+01	
0.22222   	4.08235e+00		         0.05667	-3.80000e+01	
0.22859   	3.90847e+00		         0.05833	-3.70000e+01	
0.23497   	3.81674e+00		         0.06000	-3.60000e+01	
0.24135   	3.65071e+00		         0.06167	-3.50000e+01	
0.24772   	3.58178e+00		         0.06333	-3.40000e+01	
0.25410   	3.55572e+00		         0.06500	-3.30000e+01	
0.26048   	3.47161e+00		         0.06667	-3.30000e+01	
0.26685   	3.36473e+00		         0.06833	-3.30000e+01	
0.27323   	3.23448e+00		         0.07000	-3.20000e+01	
0.27960   	3.22712e+00		         0.07167	-3.20000e+01	
0.28598   	3.16690e+00		         0.07333	-3.20000e+01	
0.29236   	3.08404e+00		         0.07500	-3.20000e+01	
0.29874   	2.93114e+00		         0.07667	-3.20000e+01	
0.30511   	2.84129e+00		         0.07833	-3.20000e+01	
0.31149   	2.78226e+00		         0.08000	-3.10000e+01	
0.31787   	2.67702e+00		         0.08167	-3.00000e+01	
0.32424   	2.52355e+00		         0.08333	-2.90000e+01	
0.33062   	2.32939e+00		         0.08500	-2.70000e+01	
0.33700   	2.19654e+00		         0.08667	-2.60000e+01	
0.34337   	1.97866e+00		         0.08833	-2.50000e+01	
0.34975   	1.79042e+00		         0.09000	-2.40000e+01	
0.35613   	1.56961e+00		         0.09167	-2.40000e+01	
0.36250   	1.34890e+00		         0.09333	-2.30000e+01	
0.36888   	1.06046e+00		         0.09500	-2.30000e+01	
0.37526   	6.58212e-01		         0.09667	-2.30000e+01	
0.38163   	1.17320e-01		         0.09833	-2.30000e+01	
0.38801   	-6.32628e-01		         0.10000	-2.30000e+01	
0.39439   	-1.39770e+00		         0.10167	-2.30000e+01	
0.40076   	-1.44428e+00		         0.10333	-2.40000e+01	
0.40714   	-6.96802e-01		         0.10500	-2.40000e+01	
0.41352   	5.39685e-01		         0.10667	-2.50000e+01	
0.41990   	1.21987e+00		         0.10833	-2.50000e+01	
0.42641   	1.48407e+00		         0.11000	-2.50000e+01	
0.43265   	1.49213e+00		         0.11167	-2.40000e+01	
0.43903   	1.70203e+00		         0.11333	-2.30000e+01	
0.44540   	1.89299e+00		         0.11500	-2.20000e+01	
0.45178   	2.02574e+00		         0.11667	-2.10000e+01	
0.45815   	1.94906e+00		         0.11833	-1.90000e+01	
0.46454   	1.82840e+00		         0.12000	-1.80000e+01	
0.47091   	1.55816e+00		         0.12167	-1.70000e+01	
0.47728   	9.63966e-01		         0.12333	-1.60000e+01	
0.48366   	1.11181e-01		         0.12500	-1.50000e+01	
0.49004   	-1.33475e+00		         0.12667	-1.40000e+01	
0.49641   	-2.90189e+00		         0.12833	-1.30000e+01	
0.50279   	-4.41735e+00		         0.13000	-1.30000e+01	
0.50952   	-5.40319e+00		         0.13167	-1.30000e+01	
0.51555   	-5.89487e+00		         0.13333	-1.30000e+01	
0.52192   	-6.27802e+00		         0.13500	-1.30000e+01	
0.52830   	-6.46355e+00		         0.13667	-1.30000e+01	
0.53468   	-6.56495e+00		         0.13833	-1.30000e+01	
0.54105   	-6.37471e+00		         0.14000	-1.40000e+01	
0.54743   	-5.90599e+00		         0.14167	-1.30000e+01	
0.55381   	-5.31640e+00		         0.14333	-1.30000e+01	
0.56018   	-4.71050e+00		         0.14500	-1.30000e+01	
0.56656   	-4.10935e+00		         0.14667	-1.30000e+01	
0.57293   	-3.53579e+00		         0.14833	-1.30000e+01	
0.57931   	-3.10740e+00		         0.15000	-1.30000e+01	
0.58569   	-2.88828e+00		         0.15167	-1.20000e+01	
0.59229   	-2.65401e+00		         0.15333	-1.20000e+01	
0.59844   	-2.43301e+00		         0.15500	-1.20000e+01	
0.60482   	-2.30135e+00		         0.15667	-1.10000e+01	
0.61120   	-2.31238e+00		         0.15833	-1.10000e+01	
0.61757   	-2.37847e+00		         0.16000	-1.10000e+01	
0.62395   	-2.47218e+00		         0.16167	-1.00000e+01	
0.63033   	-2.61688e+00		         0.16333	-1.00000e+01	
0.63670   	-2.74441e+00		         0.16500	-9.00000e+00	
0.64308   	-2.81753e+00		         0.16667	-9.00000e+00	
0.64946   	-2.86001e+00		         0.16833	-8.00000e+00	
0.65583   	-2.66596e+00		         0.17000	-7.00000e+00	
0.66221   	-2.13617e+00		         0.17167	-7.00000e+00	
0.66859   	-1.43445e+00		         0.17333	-6.00000e+00	
0.67496   	-1.17666e+00		         0.17500	-5.00000e+00	
0.68134   	-1.05543e+00		         0.17667	-4.00000e+00	
0.68772   	-1.03520e+00		         0.17833	-4.00000e+00	
0.69410   	-7.83044e-01		         0.18000	-3.00000e+00	
0.70047   	-7.27945e-01		         0.18167	-2.00000e+00	
0.70685   	-6.94433e-01		         0.18333	-1.00000e+00	
0.71323   	-7.04681e-01		         0.18500	0.00000e+00	
0.71960   	-6.86221e-01		         0.18667	1.00000e+00	
0.72598   	-6.52031e-01		         0.18833	2.00000e+00	
0.73236   	-5.89344e-01		         0.19000	3.00000e+00	
0.73873   	-5.25855e-01		         0.19167	3.00000e+00	
0.74511   	-5.30631e-01		         0.19333	4.00000e+00	
0.75148   	-5.16836e-01		         0.19500	5.00000e+00	
0.75786   	-4.94729e-01		         0.19667	5.00000e+00	
0.76424   	-4.66356e-01		         0.19833	6.00000e+00	
0.77062   	-4.70311e-01		         0.20000	6.00000e+00	
0.77699   	-5.05613e-01		         0.20167	7.00000e+00	
0.78337   	-5.17367e-01		         0.20333	7.00000e+00	
0.78974   	-5.16924e-01		         0.20500	7.00000e+00	
0.79613   	-4.97894e-01		         0.20667	8.00000e+00	
0.80250   	-5.26280e-01		         0.20833	9.00000e+00	
0.80887   	-5.58717e-01		         0.21000	9.00000e+00	
0.81525   	-4.72769e-01		         0.21167	1.00000e+01	
0.82164   	-7.35857e-01		         0.21333	1.10000e+01	
0.82801   	-1.40737e+00		         0.21500	1.20000e+01	
0.83438   	-2.75513e+00		         0.21667	1.30000e+01	
0.84076   	-4.18651e+00		         0.21833	1.50000e+01	
0.84714   	-5.54508e+00		         0.22000	1.60000e+01	
0.85351   	-6.21743e+00		         0.22167	1.70000e+01	
0.85989   	-6.56384e+00		         0.22333	1.90000e+01	
0.86627   	-6.43000e+00		         0.22500	2.00000e+01	
0.87264   	-6.27399e+00		         0.22667	2.10000e+01	
0.87902   	-5.58731e+00		         0.22833	2.20000e+01	
0.88540   	-4.84166e+00		         0.23000	2.30000e+01	
0.89177   	-4.09057e+00		         0.23167	2.50000e+01	
0.89815   	-3.37211e+00		         0.23333	2.60000e+01	
0.90453   	-2.89041e+00		         0.23500	2.70000e+01	
0.91090   	-2.37112e+00		         0.23667	2.70000e+01	
0.91728   	-1.72296e+00		         0.23833	2.80000e+01	
0.92366   	-1.01334e+00		         0.24000	2.90000e+01	
0.93004   	-9.38574e-02		         0.24167	2.90000e+01	
0.93641   	8.52412e-01		         0.24333	3.00000e+01	
0.94279   	1.44922e+00		         0.24500	3.10000e+01	
0.94917   	4.10665e-01		         0.24667	3.20000e+01	
0.95554   	-1.07976e+00		         0.24833	3.20000e+01	
0.96192   	-1.87247e+00		         0.25000	3.30000e+01	
0.96830   	-1.52398e+00		         0.25167	3.40000e+01	
0.97467   	-1.22010e+00		         0.25333	3.50000e+01	
0.98105   	-6.27747e-01		         0.25500	3.60000e+01	
0.98743   	7.03271e-01		         0.25667	3.60000e+01	
0.99380   	2.56591e+00		         0.25833	3.70000e+01	
1.00018   	3.90777e+00		         0.26000	3.80000e+01	
1.00655   	4.63696e+00		         0.26167	3.90000e+01	
1.01293   	4.76398e+00		         0.26333	4.00000e+01	
1.01931   	4.70831e+00		         0.26500	4.10000e+01	
1.02569   	4.54693e+00		         0.26667	4.20000e+01	
1.03206   	4.45258e+00		         0.26833	4.20000e+01	
1.03844   	4.31928e+00		         0.27000	4.20000e+01	
1.04481   	4.24721e+00		         0.27167	4.20000e+01	
1.05119   	4.20144e+00		         0.27333	4.20000e+01	
1.05764   	4.20992e+00		         0.27500	4.20000e+01	
1.06395   	4.14641e+00		         0.27667	4.10000e+01	
1.07032   	4.12661e+00		         0.27833	4.10000e+01	
1.07670   	4.19549e+00		         0.28000	4.00000e+01	
1.08307   	4.38212e+00		         0.28167	3.90000e+01	
1.08945   	4.45100e+00		         0.28333	3.80000e+01	
1.09583   	4.46134e+00		         0.28500	3.80000e+01	
1.10221   	4.46022e+00		         0.28667	3.60000e+01	
1.10858   	4.45337e+00		         0.28833	3.50000e+01	
1.11496   	4.40075e+00		         0.29000	3.40000e+01	
1.12134   	4.29735e+00		         0.29167	3.30000e+01	
1.12771   	4.21232e+00		         0.29333	3.20000e+01	
1.13409   	4.12484e+00		         0.29500	3.10000e+01	
1.14047   	3.95676e+00		         0.29667	3.00000e+01	
1.14684   	3.84708e+00		         0.29833	2.90000e+01	
1.15323   	3.66446e+00		         0.30000	2.80000e+01	
1.15960   	3.61628e+00		         0.30167	2.60000e+01	
1.16597   	3.50915e+00		         0.30333	2.50000e+01	
1.17235   	3.52269e+00		         0.30500	2.30000e+01	
1.17873   	3.42294e+00		         0.30667	2.10000e+01	
1.18510   	3.36538e+00		         0.30833	2.00000e+01	
1.19148   	3.25124e+00		         0.31000	1.80000e+01	
1.19786   	3.11233e+00		         0.31167	1.60000e+01	
1.20423   	2.97068e+00		         0.31333	1.40000e+01	
1.21061   	2.82066e+00		         0.31500	1.20000e+01	
1.21699   	2.69315e+00		         0.31667	1.00000e+01	
1.22336   	2.54771e+00		         0.31833	7.00000e+00	
1.22974   	2.38104e+00		         0.32000	4.00000e+00	
1.23612   	2.23949e+00		         0.32167	1.00000e+00	
1.24249   	2.04124e+00		         0.32333	-2.00000e+00	
1.24887   	1.86120e+00		         0.32500	-5.00000e+00	
1.25525   	1.68837e+00		         0.32667	-8.00000e+00	
1.26163   	1.50242e+00		         0.32833	-1.10000e+01	
1.26800   	1.27675e+00		         0.33000	-1.50000e+01	
1.27438   	9.36515e-01		         0.33167	-1.80000e+01	
1.28076   	4.85013e-01		         0.33333	-2.10000e+01	
1.28713   	-1.13085e-01		         0.33500	-2.40000e+01	
1.29351   	-9.18602e-01		         0.33667	-2.70000e+01	
1.29989   	-1.94301e+00		         0.33833	-3.00000e+01	
1.30629   	-2.93923e+00		         0.34000	-3.20000e+01	
1.31264   	-3.19358e+00		         0.34167	-3.40000e+01	
1.31902   	-2.36656e+00		         0.34333	-3.50000e+01	
1.32539   	-8.12371e-01		         0.34500	-3.60000e+01	
1.33177   	3.42187e-01		         0.34667	-3.70000e+01	
1.33814   	1.03036e+00		         0.34833	-3.80000e+01	
1.34453   	1.41275e+00		         0.35000	-3.80000e+01	
1.35090   	1.98050e+00		         0.35167	-3.80000e+01	
1.35728   	2.48353e+00		         0.35333	-3.80000e+01	
1.36365   	2.87438e+00		         0.35500	-3.80000e+01	
1.37003   	3.05954e+00		         0.35667	-3.80000e+01	
1.37641   	3.01212e+00		         0.35833	-3.80000e+01	
1.38278   	3.64193e+00		         0.36000	-3.70000e+01	
1.38938   	3.30809e+00		         0.36167	-3.70000e+01	
1.39554   	2.13949e+00		         0.36333	-3.70000e+01	
1.40191   	-2.40020e-01		         0.36500	-3.60000e+01	
1.40829   	-1.93184e+00		         0.36667	-3.60000e+01	
1.41467   	-3.06600e+00		         0.36833	-3.60000e+01	
1.42104   	-4.19914e+00		         0.37000	-3.60000e+01	
1.42742   	-4.99194e+00		         0.37167	-3.60000e+01	
1.43380   	-5.56534e+00		         0.37333	-3.60000e+01	
1.44017   	-5.66961e+00		         0.37500	-3.60000e+01	
1.44655   	-5.79396e+00		         0.37667	-3.60000e+01	
1.45293   	-5.46265e+00		         0.37833	-3.50000e+01	
1.45930   	-5.20118e+00		         0.38000	-3.50000e+01	
1.46568   	-4.68083e+00		         0.38167	-3.50000e+01	
1.47243   	-4.38155e+00		         0.38333	-3.50000e+01	
1.47844   	-3.97154e+00		         0.38500	-3.50000e+01	
1.48481   	-3.60944e+00		         0.38667	-3.50000e+01	
1.49119   	-3.32111e+00		         0.38833	-3.40000e+01	
1.49756   	-3.03604e+00		         0.39000	-3.40000e+01	
1.50394   	-2.77928e+00		         0.39167	-3.30000e+01	
1.51032   	-2.39056e+00		         0.39333	-3.30000e+01	
1.51670   	-2.05124e+00		         0.39500	-3.20000e+01	
1.52307   	-1.94308e+00		         0.39667	-3.10000e+01	
1.52945   	-1.81044e+00		         0.39833	-3.00000e+01	
1.53583   	-1.73686e+00		         0.40000	-2.90000e+01	
1.54220   	-1.58861e+00		         0.40167	-2.80000e+01	
1.54858   	-1.60757e+00		         0.40333	-2.80000e+01	
1.55495   	-1.58778e+00		         0.40500	-2.70000e+01	
1.56133   	-1.42257e+00		         0.40667	-2.70000e+01	
1.56771   	-1.33068e+00		         0.40833	-2.60000e+01	
1.57408   	-1.22631e+00		         0.41000	-2.60000e+01	
1.58046   	-1.35186e+00		         0.41167	-2.60000e+01	
1.58684   	-1.32242e+00		         0.41333	-2.60000e+01	
1.59322   	-1.21069e+00		         0.41500	-2.50000e+01	
1.59959   	-9.32477e-01		         0.41667	-2.50000e+01	
1.60597   	-7.28932e-01		         0.41833	-2.40000e+01	
1.61235   	-6.38184e-01		         0.42000	-2.40000e+01	
1.61872   	-6.15048e-01		         0.42167	-2.30000e+01	
1.62510   	-6.01786e-01		         0.42333	-2.20000e+01	
1.63148   	-5.30717e-01		         0.42500	-2.10000e+01	
1.63785   	-4.80882e-01		         0.42667	-2.00000e+01	
1.64423   	-4.59972e-01		         0.42833	-1.90000e+01	
1.65061   	-4.46085e-01		         0.43000	-1.80000e+01	
1.65698   	-4.62886e-01		         0.43167	-1.60000e+01	
1.66336   	-4.39896e-01		         0.43333	-1.50000e+01	
1.66973   	-4.75981e-01		         0.43500	-1.40000e+01	
1.67611   	-5.01677e-01		         0.43667	-1.30000e+01	
1.68249   	-5.28446e-01		         0.43833	-1.20000e+01	
1.68887   	-5.22888e-01		         0.44000	-1.10000e+01	
1.69524   	-5.09639e-01		         0.44167	-1.10000e+01	
1.70162   	-5.45594e-01		         0.44333	-1.00000e+01	
1.70800   	-6.21499e-01		         0.44500	-9.00000e+00	
1.71438   	-7.08600e-01		         0.44667	-9.00000e+00	
1.72075   	-1.20189e+00		         0.44833	-9.00000e+00	
1.72713   	-2.04340e+00		         0.45000	-8.00000e+00	
1.73350   	-3.20948e+00		         0.45167	-7.00000e+00	
1.73988   	-4.16573e+00		         0.45333	-6.00000e+00	
1.74626   	-5.27297e+00		         0.45500	-6.00000e+00	
1.75263   	-6.24559e+00		         0.45667	-5.00000e+00	
1.75901   	-6.96075e+00		         0.45833	-4.00000e+00	
1.76539   	-7.09220e+00		         0.46000	-3.00000e+00	
1.77176   	-6.80852e+00		         0.46167	-2.00000e+00	
1.77814   	-6.24870e+00		         0.46333	-1.00000e+00	
1.78452   	-5.40690e+00		         0.46500	0.00000e+00	
1.79090   	-4.55660e+00		         0.46667	0.00000e+00	
1.79727   	-3.78532e+00		         0.46833	1.00000e+00	
1.80365   	-3.18822e+00		         0.47000	1.00000e+00	
1.81003   	-2.51734e+00		         0.47167	2.00000e+00	
1.81640   	-1.89538e+00		         0.47333	2.00000e+00	
1.82278   	-1.13483e+00		         0.47500	3.00000e+00	
1.82916   	-3.07030e-01		         0.47667	3.00000e+00	
1.83553   	7.40181e-01		         0.47833	3.00000e+00	
1.84191   	1.46143e+00		         0.48000	4.00000e+00	
1.84829   	6.75740e-01		         0.48167	4.00000e+00	
1.85466   	-6.36359e-01		         0.48333	4.00000e+00	
1.86104   	-1.62091e+00		         0.48500	4.00000e+00	
1.86742   	-1.33730e+00		         0.48667	5.00000e+00	
1.87379   	-1.32388e+00		         0.48833	5.00000e+00	
1.88017   	-1.16836e+00		         0.49000	6.00000e+00	
1.88654   	-2.36818e-01		         0.49167	6.00000e+00	
1.89293   	1.63538e+00		         0.49333	6.00000e+00	
1.89930   	3.35176e+00		         0.49500	6.00000e+00	
1.90567   	4.25298e+00		         0.49667	6.00000e+00	
1.91205   	4.61762e+00		         0.49833	5.00000e+00	
1.91843   	4.68756e+00		         0.50000	5.00000e+00	
1.92481   	4.61051e+00		         0.50167	4.00000e+00	
1.93118   	4.45198e+00		         0.50333	4.00000e+00	
1.93756   	4.29891e+00		         0.50500	3.00000e+00	
1.94394   	4.19000e+00		         0.50667	3.00000e+00	
1.95031   	4.07970e+00		         0.50833	2.00000e+00	
1.95669   	3.96934e+00		         0.51000	2.00000e+00	
1.96307   	3.95579e+00		         0.51167	2.00000e+00	
1.96944   	4.04142e+00		         0.51333	1.00000e+00	
1.97582   	4.18153e+00		         0.51500	1.00000e+00	
1.98220   	4.26055e+00		         0.51667	1.00000e+00	
1.98857   	4.39190e+00		         0.51833	2.00000e+00	
1.99495   	4.44243e+00		         0.52000	2.00000e+00	
2.00133   	4.45823e+00		         0.52167	2.00000e+00	
2.00771   	4.38753e+00		         0.52333	2.00000e+00	
2.01408   	4.32494e+00		         0.52500	3.00000e+00	
2.02046   	4.24000e+00		         0.52667	3.00000e+00	
2.02684   	4.17045e+00		         0.52833	3.00000e+00	
2.03321   	4.14667e+00		         0.53000	2.00000e+00	
2.03959   	4.08615e+00		         0.53167	2.00000e+00	
2.04597   	3.96441e+00		         0.53333	2.00000e+00	
2.05234   	3.78157e+00		         0.53500	2.00000e+00	
2.05872   	3.64024e+00		         0.53667	1.00000e+00	
2.06509   	3.53172e+00		         0.53833	0.00000e+00	
2.07147   	3.48703e+00		         0.54000	0.00000e+00	
2.07785   	3.43811e+00		         0.54167	-1.00000e+00	
2.08422   	3.38358e+00		         0.54333	-1.00000e+00	
2.09060   	3.22547e+00		         0.54500	-1.00000e+00	
2.09698   	3.09555e+00		         0.54667	-2.00000e+00	
2.10336   	2.99527e+00		         0.54833	-2.00000e+00	
2.10973   	2.96093e+00		         0.55000	-2.00000e+00	
2.11611   	2.85679e+00		         0.55167	-2.00000e+00	
2.12249   	2.73433e+00		         0.55333	-2.00000e+00	
2.12886   	2.54937e+00		         0.55500	-2.00000e+00	
2.13524   	2.37223e+00		         0.55667	-2.00000e+00	
2.14162   	2.16014e+00		         0.55833	-3.00000e+00	
2.14799   	1.97620e+00		         0.56000	-3.00000e+00	
2.15437   	1.81952e+00		         0.56167	-3.00000e+00	
2.16075   	1.65959e+00		         0.56333	-3.00000e+00	
2.16712   	1.44928e+00		         0.56500	-2.00000e+00	
2.17350   	1.15354e+00		         0.56667	-2.00000e+00	
2.17988   	7.48712e-01		         0.56833	-2.00000e+00	
2.18635   	1.03002e-01		         0.57000	-2.00000e+00	
2.19263   	-8.06639e-01		         0.57167	-3.00000e+00	
2.19901   	-1.93296e+00		         0.57333	-3.00000e+00	
2.20538   	-2.75201e+00		         0.57500	-3.00000e+00	
2.21176   	-2.56674e+00		         0.57667	-3.00000e+00	
2.21814   	-1.39538e+00		         0.57833	-3.00000e+00	
2.22451   	1.40545e-01		         0.58000	-3.00000e+00	
2.23089   	9.53342e-01		         0.58167	-4.00000e+00	
2.23727   	1.37724e+00		         0.58333	-4.00000e+00	
2.24364   	1.55384e+00		         0.58500	-4.00000e+00	
2.25002   	1.88821e+00		         0.58667	-4.00000e+00	
2.25640   	2.11950e+00		         0.58833	-4.00000e+00	
2.26277   	2.53435e+00		         0.59000	-4.00000e+00	
2.26933   	2.77298e+00		         0.59167	-4.00000e+00	
2.27553   	3.18738e+00		         0.59333	-4.00000e+00	
2.28190   	3.02724e+00		         0.59500	-3.00000e+00	
2.28828   	1.96782e+00		         0.59667	-3.00000e+00	
2.29466   	9.68897e-02		         0.59833	-3.00000e+00	
2.30103   	-2.13908e+00		         0.60000	-3.00000e+00	
2.30741   	-3.68738e+00		         0.60167	-3.00000e+00	
2.31379   	-4.90648e+00		         0.60333	-3.00000e+00	
2.32016   	-5.63216e+00		         0.60500	-3.00000e+00	
2.32654   	-6.11360e+00		         0.60667	-3.00000e+00	
2.33292   	-6.44082e+00		         0.60833	-4.00000e+00	
2.33929   	-6.64754e+00		         0.61000	-4.00000e+00	
2.34567   	-6.59364e+00		         0.61167	-4.00000e+00	
2.35211   	-6.48309e+00		         0.61333	-5.00000e+00	
2.35843   	-6.15400e+00		         0.61500	-5.00000e+00	
2.36480   	-5.88019e+00		         0.61667	-6.00000e+00	
2.37118   	-5.46619e+00		         0.61833	-6.00000e+00	
2.37756   	-4.98155e+00		         0.62000	-7.00000e+00	
2.38393   	-4.43459e+00		         0.62167	-7.00000e+00	
2.39031   	-3.85839e+00		         0.62333	-7.00000e+00	
2.39669   	-3.29293e+00		         0.62500	-8.00000e+00	
2.40306   	-2.82606e+00		         0.62667	-8.00000e+00	
2.40944   	-2.45176e+00		         0.62833	-9.00000e+00	
2.41582   	-2.21098e+00		         0.63000	-9.00000e+00	
2.42219   	-2.03265e+00		         0.63167	-9.00000e+00	
2.42857   	-1.94004e+00		         0.63333	-9.00000e+00	
2.43513   	-1.83057e+00		         0.63500	-9.00000e+00	
2.44132   	-1.80652e+00		         0.63667	-9.00000e+00	
2.44770   	-1.79609e+00		         0.63833	-9.00000e+00	
2.45408   	-1.91772e+00		         0.64000	-9.00000e+00	
2.46045   	-1.90788e+00		         0.64167	-9.00000e+00	
2.46683   	-1.96238e+00		         0.64333	-8.00000e+00	
2.47321   	-2.01102e+00		         0.64500	-8.00000e+00	
2.47958   	-2.07831e+00		         0.64667	-8.00000e+00	
2.48602   	-2.02649e+00		         0.64833	-7.00000e+00	
2.49234   	-1.77791e+00		         0.65000	-7.00000e+00	
2.49871   	-1.40836e+00		         0.65167	-6.00000e+00	
2.50509   	-1.01269e+00		         0.65333	-6.00000e+00	
2.51147   	-7.91624e-01		         0.65500	-6.00000e+00	
2.51784   	-6.47832e-01		         0.65667	-6.00000e+00	
2.52422   	-6.06551e-01		         0.65833	-7.00000e+00	
2.53060   	-5.37465e-01		         0.66000	-7.00000e+00	
2.53697   	-5.21440e-01		         0.66167	-7.00000e+00	
2.54336   	-4.78601e-01		         0.66333	-7.00000e+00	
2.54973   	-5.04634e-01		         0.66500	-8.00000e+00	
2.55611   	-5.38119e-01		         0.66667	-8.00000e+00	
2.56248   	-5.45085e-01		         0.66833	-8.00000e+00	
2.56886   	-5.47864e-01		         0.67000	-8.00000e+00	
2.57524   	-5.66317e-01		         0.67167	-8.00000e+00	
2.58161   	-6.10993e-01		         0.67333	-8.00000e+00	
2.58799   	-6.28225e-01		         0.67500	-7.00000e+00	
2.59436   	-6.54030e-01		         0.67667	-7.00000e+00	
2.60074   	-6.19633e-01		         0.67833	-7.00000e+00	
2.60712   	-5.61251e-01		         0.68000	-7.00000e+00	
2.61349   	-4.75893e-01		         0.68167	-7.00000e+00	
2.61987   	-8.81090e-01		         0.68333	-7.00000e+00	
2.62625   	-1.79158e+00		         0.68500	-7.00000e+00	
2.63262   	-3.22008e+00		         0.68667	-7.00000e+00	
2.63901   	-3.94532e+00		         0.68833	-6.00000e+00	
2.64538   	-4.94146e+00		         0.69000	-6.00000e+00	
2.65176   	-5.55453e+00		         0.69167	-6.00000e+00	
2.65813   	-6.49391e+00		         0.69333	-6.00000e+00	
2.66451   	-6.57103e+00		         0.69500	-6.00000e+00	
2.67089   	-6.31222e+00		         0.69667	-5.00000e+00	
2.67726   	-5.60182e+00		         0.69833	-5.00000e+00	
2.68364   	-4.69693e+00		         0.70000	-4.00000e+00	
2.69002   	-3.89663e+00		         0.70167	-3.00000e+00	
2.69639   	-3.22881e+00		         0.70333	-3.00000e+00	
2.70277   	-2.83782e+00		         0.70500	-2.00000e+00	
2.70915   	-2.20179e+00		         0.70667	-2.00000e+00	
2.71552   	-1.66374e+00		         0.70833	-2.00000e+00	
2.72190   	-8.97724e-01		         0.71000	-1.00000e+00	
2.72827   	-9.61982e-03		         0.71167	-1.00000e+00	
2.73465   	1.14585e+00		         0.71333	-1.00000e+00	
2.74103   	1.83845e+00		         0.71500	-1.00000e+00	
			         0.71667	-1.00000e+00	
			         0.71833	-1.00000e+00	
			         0.72000	-1.00000e+00	
			         0.72167	-2.00000e+00	
			         0.72333	-2.00000e+00	
			         0.72500	-3.00000e+00	
			         0.72667	-3.00000e+00	
			         0.72833	-4.00000e+00	
			         0.73000	-4.00000e+00	
			         0.73167	-4.00000e+00	
			         0.73333	-5.00000e+00	
			         0.73500	-5.00000e+00	
			         0.73667	-6.00000e+00	
			         0.73833	-6.00000e+00	
			         0.74000	-6.00000e+00	
			         0.74167	-6.00000e+00	
			         0.74333	-5.00000e+00	
			         0.74500	-5.00000e+00	
			         0.74667	-4.00000e+00	
			         0.74833	-4.00000e+00	
			         0.75000	-3.00000e+00	
			         0.75167	-3.00000e+00	
			         0.75333	-2.00000e+00	
			         0.75500	-1.00000e+00	
			         0.75667	-1.00000e+00	
			         0.75833	0.00000e+00	
			         0.76000	1.00000e+00	
			         0.76167	2.00000e+00	
			         0.76333	3.00000e+00	
			         0.76500	4.00000e+00	
			         0.76667	6.00000e+00	
			         0.76833	7.00000e+00	
			         0.77000	8.00000e+00	
			         0.77167	1.00000e+01	
			         0.77333	1.10000e+01	
			         0.77500	1.30000e+01	
			         0.77667	1.40000e+01	
			         0.77833	1.50000e+01	
			         0.78000	1.50000e+01	
			         0.78167	1.60000e+01	
			         0.78333	1.60000e+01	
			         0.78500	1.60000e+01	
			         0.78667	1.60000e+01	
			         0.78833	1.60000e+01	
			         0.79000	1.60000e+01	
			         0.79167	1.60000e+01	
			         0.79333	1.60000e+01	
			         0.79500	1.50000e+01	
			         0.79667	1.50000e+01	
			         0.79833	1.40000e+01	
			         0.80000	1.30000e+01	
			         0.80167	1.20000e+01	
			         0.80333	1.10000e+01	
			         0.80500	1.00000e+01	
			         0.80667	9.00000e+00	
			         0.80833	7.00000e+00	
			         0.81000	6.00000e+00	
			         0.81167	4.00000e+00	
			         0.81333	3.00000e+00	
			         0.81500	2.00000e+00	
			         0.81667	1.00000e+00	
			         0.81833	0.00000e+00	
			         0.82000	-1.00000e+00	
			         0.82167	-2.00000e+00	
			         0.82333	-3.00000e+00	
			         0.82500	-3.00000e+00	
			         0.82667	-4.00000e+00	
			         0.82833	-4.00000e+00	
			         0.83000	-5.00000e+00	
			         0.83167	-5.00000e+00	
			         0.83333	-6.00000e+00	
			         0.83500	-7.00000e+00	
			         0.83667	-7.00000e+00	
			         0.83833	-8.00000e+00	
			         0.84000	-9.00000e+00	
			         0.84167	-1.00000e+01	
			         0.84333	-1.00000e+01	
			         0.84500	-1.10000e+01	
			         0.84667	-1.20000e+01	
			         0.84833	-1.20000e+01	
			         0.85000	-1.30000e+01	
			         0.85167	-1.30000e+01	
			         0.85333	-1.30000e+01	
			         0.85500	-1.30000e+01	
			         0.85667	-1.20000e+01	
			         0.85833	-1.20000e+01	
			         0.86000	-1.10000e+01	
			         0.86167	-1.00000e+01	
			         0.86333	-1.00000e+01	
			         0.86500	-9.00000e+00	
			         0.86667	-8.00000e+00	
			         0.86833	-8.00000e+00	
			         0.87000	-7.00000e+00	
			         0.87167	-6.00000e+00	
			         0.87333	-5.00000e+00	
			         0.87500	-4.00000e+00	
			         0.87667	-4.00000e+00	
			         0.87833	-3.00000e+00	
			         0.88000	-2.00000e+00	
			         0.88167	-2.00000e+00	
			         0.88333	-1.00000e+00	
			         0.88500	0.00000e+00	
			         0.88667	1.00000e+00	
			         0.88833	2.00000e+00	
			         0.89000	4.00000e+00	
			         0.89167	5.00000e+00	
			         0.89333	8.00000e+00	
			         0.89500	1.10000e+01	
			         0.89667	1.40000e+01	
			         0.89833	1.90000e+01	
			         0.90000	2.50000e+01	
			         0.90167	3.20000e+01	
			         0.90333	4.00000e+01	
			         0.90500	5.00000e+01	
			         0.90667	6.20000e+01	
			         0.90833	7.50000e+01	
			         0.91000	8.80000e+01	
			         0.91167	1.02000e+02	
			         0.91333	1.15000e+02	
			         0.91500	1.27000e+02	
			         0.91667	1.38000e+02	
			         0.91833	1.46000e+02	
			         0.92000	1.52000e+02	
			         0.92167	1.55000e+02	
			         0.92333	1.55000e+02	
			         0.92500	1.52000e+02	
			         0.92667	1.45000e+02	
			         0.92833	1.34000e+02	
			         0.93000	1.21000e+02	
			         0.93167	1.06000e+02	
			         0.93333	8.90000e+01	
			         0.93500	7.10000e+01	
			         0.93667	5.30000e+01	
			         0.93833	3.60000e+01	
			         0.94000	2.00000e+01	
			         0.94167	5.00000e+00	
			         0.94333	-8.00000e+00	
			         0.94500	-1.90000e+01	
			         0.94667	-2.80000e+01	
			         0.94833	-3.50000e+01	
			         0.95000	-4.00000e+01	
			         0.95167	-4.30000e+01	
			         0.95333	-4.50000e+01	
			         0.95500	-4.50000e+01	
			         0.95667	-4.50000e+01	
			         0.95833	-4.40000e+01	
			         0.96000	-4.20000e+01	
			         0.96167	-4.10000e+01	
			         0.96333	-4.00000e+01	
			         0.96500	-3.80000e+01	
			         0.96667	-3.70000e+01	
			         0.96833	-3.60000e+01	
			         0.97000	-3.60000e+01	
			         0.97167	-3.50000e+01	
			         0.97333	-3.50000e+01	
			         0.97500	-3.40000e+01	
			         0.97667	-3.30000e+01	
			         0.97833	-3.30000e+01	
			         0.98000	-3.20000e+01	
			         0.98167	-3.10000e+01	
			         0.98333	-3.00000e+01	
			         0.98500	-2.90000e+01	
			         0.98667	-2.80000e+01	
			         0.98833	-2.80000e+01	
			         0.99000	-2.70000e+01	
			         0.99167	-2.60000e+01	
			         0.99333	-2.50000e+01	
			         0.99500	-2.40000e+01	
			         0.99667	-2.30000e+01	
			         0.99833	-2.20000e+01	
			         1.00000	-2.10000e+01	
			         1.00167	-2.00000e+01	
			         1.00333	-2.00000e+01	
			         1.00500	-1.90000e+01	
			         1.00667	-1.90000e+01	
			         1.00833	-1.80000e+01	
			         1.01000	-1.80000e+01	
			         1.01167	-1.80000e+01	
			         1.01333	-1.70000e+01	
			         1.01500	-1.70000e+01	
			         1.01667	-1.70000e+01	
			         1.01833	-1.70000e+01	
			         1.02000	-1.60000e+01	
			         1.02167	-1.60000e+01	
			         1.02333	-1.60000e+01	
			         1.02500	-1.60000e+01	
			         1.02667	-1.50000e+01	
			         1.02833	-1.50000e+01	
			         1.03000	-1.50000e+01	
			         1.03167	-1.40000e+01	
			         1.03333	-1.40000e+01	
			         1.03500	-1.40000e+01	
			         1.03667	-1.30000e+01	
			         1.03833	-1.30000e+01	
			         1.04000	-1.30000e+01	
			         1.04167	-1.20000e+01	
			         1.04333	-1.20000e+01	
			         1.04500	-1.10000e+01	
			         1.04667	-1.00000e+01	
			         1.04833	-1.00000e+01	
			         1.05000	-9.00000e+00	
			         1.05167	-8.00000e+00	
			         1.05333	-8.00000e+00	
			         1.05500	-7.00000e+00	
			         1.05667	-7.00000e+00	
			         1.05833	-6.00000e+00	
			         1.06000	-6.00000e+00	
			         1.06167	-6.00000e+00	
			         1.06333	-5.00000e+00	
			         1.06500	-5.00000e+00	
			         1.06667	-4.00000e+00	
			         1.06833	-4.00000e+00	
			         1.07000	-3.00000e+00	
			         1.07167	-3.00000e+00	
			         1.07333	-3.00000e+00	
			         1.07500	-2.00000e+00	
			         1.07667	-2.00000e+00	
			         1.07833	-1.00000e+00	
			         1.08000	-1.00000e+00	
			         1.08167	0.00000e+00	
			         1.08333	1.00000e+00	
			         1.08500	1.00000e+00	
			         1.08667	2.00000e+00	
			         1.08833	2.00000e+00	
			         1.09000	3.00000e+00	
			         1.09167	3.00000e+00	
			         1.09333	4.00000e+00	
			         1.09500	4.00000e+00	
			         1.09667	5.00000e+00	
			         1.09833	5.00000e+00	
			         1.10000	6.00000e+00	
			         1.10167	6.00000e+00	
			         1.10333	7.00000e+00	
			         1.10500	8.00000e+00	
			         1.10667	8.00000e+00	
			         1.10833	9.00000e+00	
			         1.11000	1.00000e+01	
			         1.11167	1.10000e+01	
			         1.11333	1.10000e+01	
			         1.11500	1.20000e+01	
			         1.11667	1.30000e+01	
			         1.11833	1.40000e+01	
			         1.12000	1.50000e+01	
			         1.12167	1.50000e+01	
			         1.12333	1.60000e+01	
			         1.12500	1.60000e+01	
			         1.12667	1.70000e+01	
			         1.12833	1.70000e+01	
			         1.13000	1.80000e+01	
			         1.13167	1.90000e+01	
			         1.13333	2.00000e+01	
			         1.13500	2.10000e+01	
			         1.13667	2.20000e+01	
			         1.13833	2.40000e+01	
			         1.14000	2.50000e+01	
			         1.14167	2.70000e+01	
			         1.14333	2.90000e+01	
			         1.14500	3.00000e+01	
			         1.14667	3.20000e+01	
			         1.14833	3.40000e+01	
			         1.15000	3.60000e+01	
			         1.15167	3.70000e+01	
			         1.15333	3.90000e+01	
			         1.15500	4.00000e+01	
			         1.15667	4.10000e+01	
			         1.15833	4.20000e+01	
			         1.16000	4.30000e+01	
			         1.16167	4.30000e+01	
			         1.16333	4.40000e+01	
			         1.16500	4.40000e+01	
			         1.16667	4.40000e+01	
			         1.16833	4.40000e+01	
			         1.17000	4.40000e+01	
			         1.17167	4.40000e+01	
			         1.17333	4.40000e+01	
			         1.17500	4.50000e+01	
			         1.17667	4.50000e+01	
			         1.17833	4.50000e+01	
			         1.18000	4.60000e+01	
			         1.18167	4.60000e+01	
			         1.18333	4.60000e+01	
			         1.18500	4.50000e+01	
			         1.18667	4.50000e+01	
			         1.18833	4.40000e+01	
			         1.19000	4.40000e+01	
			         1.19167	4.30000e+01	
			         1.19333	4.10000e+01	
			         1.19500	4.00000e+01	
			         1.19667	3.80000e+01	
			         1.19833	3.60000e+01	
			         1.20000	3.30000e+01	
			         1.20167	3.10000e+01	
			         1.20333	2.90000e+01	
			         1.20500	2.70000e+01	
			         1.20667	2.40000e+01	
			         1.20833	2.20000e+01	
			         1.21000	2.00000e+01	
			         1.21167	1.70000e+01	
			         1.21333	1.40000e+01	
			         1.21500	1.10000e+01	
			         1.21667	8.00000e+00	
			         1.21833	5.00000e+00	
			         1.22000	2.00000e+00	
			         1.22167	-1.00000e+00	
			         1.22333	-4.00000e+00	
			         1.22500	-8.00000e+00	
			         1.22667	-1.10000e+01	
			         1.22833	-1.40000e+01	
			         1.23000	-1.60000e+01	
			         1.23167	-1.90000e+01	
			         1.23333	-2.10000e+01	
			         1.23500	-2.30000e+01	
			         1.23667	-2.50000e+01	
			         1.23833	-2.60000e+01	
			         1.24000	-2.80000e+01	
			         1.24167	-2.90000e+01	
			         1.24333	-3.00000e+01	
			         1.24500	-3.10000e+01	
			         1.24667	-3.20000e+01	
			         1.24833	-3.30000e+01	
			         1.25000	-3.30000e+01	
			         1.25167	-3.40000e+01	
			         1.25333	-3.50000e+01	
			         1.25500	-3.50000e+01	
			         1.25667	-3.50000e+01	
			         1.25833	-3.60000e+01	
			         1.26000	-3.60000e+01	
			         1.26167	-3.70000e+01	
			         1.26333	-3.70000e+01	
			         1.26500	-3.70000e+01	
			         1.26667	-3.70000e+01	
			         1.26833	-3.70000e+01	
			         1.27000	-3.70000e+01	
			         1.27167	-3.70000e+01	
			         1.27333	-3.70000e+01	
			         1.27500	-3.70000e+01	
			         1.27667	-3.80000e+01	
			         1.27833	-3.80000e+01	
			         1.28000	-3.80000e+01	
			         1.28167	-3.80000e+01	
			         1.28333	-3.70000e+01	
			         1.28500	-3.70000e+01	
			         1.28667	-3.70000e+01	
			         1.28833	-3.70000e+01	
			         1.29000	-3.70000e+01	
			         1.29167	-3.60000e+01	
			         1.29333	-3.60000e+01	
			         1.29500	-3.60000e+01	
			         1.29667	-3.60000e+01	
			         1.29833	-3.50000e+01	
			         1.30000	-3.50000e+01	
			         1.30167	-3.40000e+01	
			         1.30333	-3.40000e+01	
			         1.30500	-3.30000e+01	
			         1.30667	-3.30000e+01	
			         1.30833	-3.20000e+01	
			         1.31000	-3.20000e+01	
			         1.31167	-3.20000e+01	
			         1.31333	-3.10000e+01	
			         1.31500	-3.00000e+01	
			         1.31667	-2.90000e+01	
			         1.31833	-2.90000e+01	
			         1.32000	-2.80000e+01	
			         1.32167	-2.70000e+01	
			         1.32333	-2.70000e+01	
			         1.32500	-2.60000e+01	
			         1.32667	-2.60000e+01	
			         1.32833	-2.50000e+01	
			         1.33000	-2.40000e+01	
			         1.33167	-2.30000e+01	
			         1.33333	-2.20000e+01	
			         1.33500	-2.20000e+01	
			         1.33667	-2.10000e+01	
			         1.33833	-2.00000e+01	
			         1.34000	-1.90000e+01	
			         1.34167	-1.80000e+01	
			         1.34333	-1.70000e+01	
			         1.34500	-1.60000e+01	
			         1.34667	-1.60000e+01	
			         1.34833	-1.50000e+01	
			         1.35000	-1.50000e+01	
			         1.35167	-1.40000e+01	
			         1.35333	-1.40000e+01	
			         1.35500	-1.30000e+01	
			         1.35667	-1.30000e+01	
			         1.35833	-1.20000e+01	
			         1.36000	-1.20000e+01	
			         1.36167	-1.10000e+01	
			         1.36333	-1.10000e+01	
			         1.36500	-1.00000e+01	
			         1.36667	-9.00000e+00	
			         1.36833	-8.00000e+00	
			         1.37000	-7.00000e+00	
			         1.37167	-6.00000e+00	
			         1.37333	-5.00000e+00	
			         1.37500	-4.00000e+00	
			         1.37667	-3.00000e+00	
			         1.37833	-2.00000e+00	
			         1.38000	-2.00000e+00	
			         1.38167	-1.00000e+00	
			         1.38333	0.00000e+00	
			         1.38500	1.00000e+00	
			         1.38667	1.00000e+00	
			         1.38833	2.00000e+00	
			         1.39000	3.00000e+00	
			         1.39167	3.00000e+00	
			         1.39333	3.00000e+00	
			         1.39500	4.00000e+00	
			         1.39667	4.00000e+00	
			         1.39833	4.00000e+00	
			         1.40000	4.00000e+00	
			         1.40167	5.00000e+00	
			         1.40333	5.00000e+00	
			         1.40500	5.00000e+00	
			         1.40667	5.00000e+00	
			         1.40833	5.00000e+00	
			         1.41000	5.00000e+00	
			         1.41167	5.00000e+00	
			         1.41333	5.00000e+00	
			         1.41500	5.00000e+00	
			         1.41667	5.00000e+00	
			         1.41833	5.00000e+00	
			         1.42000	5.00000e+00	
			         1.42167	5.00000e+00	
			         1.42333	5.00000e+00	
			         1.42500	4.00000e+00	
			         1.42667	4.00000e+00	
			         1.42833	4.00000e+00	
			         1.43000	3.00000e+00	
			         1.43167	3.00000e+00	
			         1.43333	2.00000e+00	
			         1.43500	2.00000e+00	
			         1.43667	1.00000e+00	
			         1.43833	0.00000e+00	
			         1.44000	0.00000e+00	
			         1.44167	-1.00000e+00	
			         1.44333	-2.00000e+00	
			         1.44500	-2.00000e+00	
			         1.44667	-2.00000e+00	
			         1.44833	-2.00000e+00	
			         1.45000	-2.00000e+00	
			         1.45167	-2.00000e+00	
			         1.45333	-2.00000e+00	
			         1.45500	-1.00000e+00	
			         1.45667	-1.00000e+00	
			         1.45833	-1.00000e+00	
			         1.46000	-1.00000e+00	
			         1.46167	0.00000e+00	
			         1.46333	0.00000e+00	
			         1.46500	0.00000e+00	
			         1.46667	0.00000e+00	
			         1.46833	-1.00000e+00	
			         1.47000	-1.00000e+00	
			         1.47167	-1.00000e+00	
			         1.47333	-2.00000e+00	
			         1.47500	-2.00000e+00	
			         1.47667	-2.00000e+00	
			         1.47833	-3.00000e+00	
			         1.48000	-3.00000e+00	
			         1.48167	-3.00000e+00	
			         1.48333	-4.00000e+00	
			         1.48500	-4.00000e+00	
			         1.48667	-4.00000e+00	
			         1.48833	-4.00000e+00	
			         1.49000	-4.00000e+00	
			         1.49167	-4.00000e+00	
			         1.49333	-4.00000e+00	
			         1.49500	-4.00000e+00	
			         1.49667	-5.00000e+00	
			         1.49833	-5.00000e+00	
			         1.50000	-5.00000e+00	
			         1.50167	-5.00000e+00	
			         1.50333	-5.00000e+00	
			         1.50500	-6.00000e+00	
			         1.50667	-6.00000e+00	
			         1.50833	-6.00000e+00	
			         1.51000	-6.00000e+00	
			         1.51167	-6.00000e+00	
			         1.51333	-6.00000e+00	
			         1.51500	-6.00000e+00	
			         1.51667	-6.00000e+00	
			         1.51833	-6.00000e+00	
			         1.52000	-5.00000e+00	
			         1.52167	-5.00000e+00	
			         1.52333	-5.00000e+00	
			         1.52500	-4.00000e+00	
			         1.52667	-4.00000e+00	
			         1.52833	-4.00000e+00	
			         1.53000	-3.00000e+00	
			         1.53167	-3.00000e+00	
			         1.53333	-3.00000e+00	
			         1.53500	-3.00000e+00	
			         1.53667	-3.00000e+00	
			         1.53833	-3.00000e+00	
			         1.54000	-3.00000e+00	
			         1.54167	-3.00000e+00	
			         1.54333	-3.00000e+00	
			         1.54500	-3.00000e+00	
			         1.54667	-3.00000e+00	
			         1.54833	-3.00000e+00	
			         1.55000	-3.00000e+00	
			         1.55167	-4.00000e+00	
			         1.55333	-4.00000e+00	
			         1.55500	-4.00000e+00	
			         1.55667	-4.00000e+00	
			         1.55833	-4.00000e+00	
			         1.56000	-4.00000e+00	
			         1.56167	-4.00000e+00	
			         1.56333	-4.00000e+00	
			         1.56500	-4.00000e+00	
			         1.56667	-4.00000e+00	
			         1.56833	-4.00000e+00	
			         1.57000	-4.00000e+00	
			         1.57167	-5.00000e+00	
			         1.57333	-6.00000e+00	
			         1.57500	-6.00000e+00	
			         1.57667	-7.00000e+00	
			         1.57833	-8.00000e+00	
			         1.58000	-8.00000e+00	
			         1.58167	-9.00000e+00	
			         1.58333	-9.00000e+00	
			         1.58500	-1.00000e+01	
			         1.58667	-1.00000e+01	
			         1.58833	-1.00000e+01	
			         1.59000	-9.00000e+00	
			         1.59167	-9.00000e+00	
			         1.59333	-8.00000e+00	
			         1.59500	-7.00000e+00	
			         1.59667	-6.00000e+00	
			         1.59833	-5.00000e+00	
			         1.60000	-4.00000e+00	
			         1.60167	-3.00000e+00	
			         1.60333	-2.00000e+00	
			         1.60500	-1.00000e+00	
			         1.60667	0.00000e+00	
			         1.60833	0.00000e+00	
			         1.61000	1.00000e+00	
			         1.61167	1.00000e+00	
			         1.61333	1.00000e+00	
			         1.61500	1.00000e+00	
			         1.61667	1.00000e+00	
			         1.61833	1.00000e+00	
			         1.62000	0.00000e+00	
			         1.62167	0.00000e+00	
			         1.62333	-1.00000e+00	
			         1.62500	-1.00000e+00	
			         1.62667	-1.00000e+00	
			         1.62833	-2.00000e+00	
			         1.63000	-2.00000e+00	
			         1.63167	-2.00000e+00	
			         1.63333	-2.00000e+00	
			         1.63500	-2.00000e+00	
			         1.63667	-2.00000e+00	
			         1.63833	-2.00000e+00	
			         1.64000	-2.00000e+00	
			         1.64167	-2.00000e+00	
			         1.64333	-3.00000e+00	
			         1.64500	-3.00000e+00	
			         1.64667	-3.00000e+00	
			         1.64833	-3.00000e+00	
			         1.65000	-3.00000e+00	
			         1.65167	-3.00000e+00	
			         1.65333	-3.00000e+00	
			         1.65500	-3.00000e+00	
			         1.65667	-3.00000e+00	
			         1.65833	-3.00000e+00	
			         1.66000	-3.00000e+00	
			         1.66167	-2.00000e+00	
			         1.66333	-1.00000e+00	
			         1.66500	1.00000e+00	
			         1.66667	2.00000e+00	
			         1.66833	4.00000e+00	
			         1.67000	5.00000e+00	
			         1.67167	7.00000e+00	
			         1.67333	8.00000e+00	
			         1.67500	9.00000e+00	
			         1.67667	1.00000e+01	
			         1.67833	1.10000e+01	
			         1.68000	1.20000e+01	
			         1.68167	1.30000e+01	
			         1.68333	1.30000e+01	
			         1.68500	1.30000e+01	
			         1.68667	1.30000e+01	
			         1.68833	1.30000e+01	
			         1.69000	1.30000e+01	
			         1.69167	1.30000e+01	
			         1.69333	1.30000e+01	
			         1.69500	1.30000e+01	
			         1.69667	1.30000e+01	
			         1.69833	1.40000e+01	
			         1.70000	1.40000e+01	
			         1.70167	1.40000e+01	
			         1.70333	1.50000e+01	
			         1.70500	1.40000e+01	
			         1.70667	1.40000e+01	
			         1.70833	1.40000e+01	
			         1.71000	1.30000e+01	
			         1.71167	1.20000e+01	
			         1.71333	1.10000e+01	
			         1.71500	9.00000e+00	
			         1.71667	8.00000e+00	
			         1.71833	6.00000e+00	
			         1.72000	4.00000e+00	
			         1.72167	3.00000e+00	
			         1.72333	1.00000e+00	
			         1.72500	0.00000e+00	
			         1.72667	-2.00000e+00	
			         1.72833	-3.00000e+00	
			         1.73000	-3.00000e+00	
			         1.73167	-4.00000e+00	
			         1.73333	-4.00000e+00	
			         1.73500	-5.00000e+00	
			         1.73667	-5.00000e+00	
			         1.73833	-6.00000e+00	
			         1.74000	-6.00000e+00	
			         1.74167	-7.00000e+00	
			         1.74333	-8.00000e+00	
			         1.74500	-8.00000e+00	
			         1.74667	-9.00000e+00	
			         1.74833	-1.00000e+01	
			         1.75000	-1.10000e+01	
			         1.75167	-1.20000e+01	
			         1.75333	-1.20000e+01	
			         1.75500	-1.30000e+01	
			         1.75667	-1.30000e+01	
			         1.75833	-1.30000e+01	
			         1.76000	-1.30000e+01	
			         1.76167	-1.30000e+01	
			         1.76333	-1.30000e+01	
			         1.76500	-1.30000e+01	
			         1.76667	-1.20000e+01	
			         1.76833	-1.20000e+01	
			         1.77000	-1.10000e+01	
			         1.77167	-1.10000e+01	
			         1.77333	-1.00000e+01	
			         1.77500	-9.00000e+00	
			         1.77667	-8.00000e+00	
			         1.77833	-7.00000e+00	
			         1.78000	-7.00000e+00	
			         1.78167	-6.00000e+00	
			         1.78333	-6.00000e+00	
			         1.78500	-5.00000e+00	
			         1.78667	-5.00000e+00	
			         1.78833	-4.00000e+00	
			         1.79000	-3.00000e+00	
			         1.79167	-2.00000e+00	
			         1.79333	0.00000e+00	
			         1.79500	3.00000e+00	
			         1.79667	6.00000e+00	
			         1.79833	1.10000e+01	
			         1.80000	1.70000e+01	
			         1.80167	2.40000e+01	
			         1.80333	3.20000e+01	
			         1.80500	4.20000e+01	
			         1.80667	5.40000e+01	
			         1.80833	6.60000e+01	
			         1.81000	8.00000e+01	
			         1.81167	9.40000e+01	
			         1.81333	1.08000e+02	
			         1.81500	1.21000e+02	
			         1.81667	1.33000e+02	
			         1.81833	1.43000e+02	
			         1.82000	1.50000e+02	
			         1.82167	1.55000e+02	
			         1.82333	1.57000e+02	
			         1.82500	1.56000e+02	
			         1.82667	1.51000e+02	
			         1.82833	1.43000e+02	
			         1.83000	1.32000e+02	
			         1.83167	1.18000e+02	
			         1.83333	1.02000e+02	
			         1.83500	8.50000e+01	
			         1.83667	6.70000e+01	
			         1.83833	5.00000e+01	
			         1.84000	3.30000e+01	
			         1.84167	1.70000e+01	
			         1.84333	3.00000e+00	
			         1.84500	-9.00000e+00	
			         1.84667	-1.90000e+01	
			         1.84833	-2.70000e+01	
			         1.85000	-3.30000e+01	
			         1.85167	-3.70000e+01	
			         1.85333	-4.00000e+01	
			         1.85500	-4.10000e+01	
			         1.85667	-4.10000e+01	
			         1.85833	-4.00000e+01	
			         1.86000	-3.80000e+01	
			         1.86167	-3.60000e+01	
			         1.86333	-3.40000e+01	
			         1.86500	-3.20000e+01	
			         1.86667	-3.10000e+01	
			         1.86833	-3.00000e+01	
			         1.87000	-2.90000e+01	
			         1.87167	-2.80000e+01	
			         1.87333	-2.70000e+01	
			         1.87500	-2.70000e+01	
			         1.87667	-2.70000e+01	
			         1.87833	-2.70000e+01	
			         1.88000	-2.60000e+01	
			         1.88167	-2.60000e+01	
			         1.88333	-2.60000e+01	
			         1.88500	-2.60000e+01	
			         1.88667	-2.50000e+01	
			         1.88833	-2.50000e+01	
			         1.89000	-2.40000e+01	
			         1.89167	-2.40000e+01	
			         1.89333	-2.30000e+01	
			         1.89500	-2.30000e+01	
			         1.89667	-2.30000e+01	
			         1.89833	-2.30000e+01	
			         1.90000	-2.20000e+01	
			         1.90167	-2.20000e+01	
			         1.90333	-2.20000e+01	
			         1.90500	-2.20000e+01	
			         1.90667	-2.20000e+01	
			         1.90833	-2.10000e+01	
			         1.91000	-2.00000e+01	
			         1.91167	-2.00000e+01	
			         1.91333	-1.90000e+01	
			         1.91500	-1.90000e+01	
			         1.91667	-1.80000e+01	
			         1.91833	-1.70000e+01	
			         1.92000	-1.60000e+01	
			         1.92167	-1.50000e+01	
			         1.92333	-1.50000e+01	
			         1.92500	-1.40000e+01	
			         1.92667	-1.40000e+01	
			         1.92833	-1.30000e+01	
			         1.93000	-1.30000e+01	
			         1.93167	-1.30000e+01	
			         1.93333	-1.30000e+01	
			         1.93500	-1.30000e+01	
			         1.93667	-1.30000e+01	
			         1.93833	-1.30000e+01	
			         1.94000	-1.30000e+01	
			         1.94167	-1.30000e+01	
			         1.94333	-1.30000e+01	
			         1.94500	-1.30000e+01	
			         1.94667	-1.20000e+01	
			         1.94833	-1.20000e+01	
			         1.95000	-1.20000e+01	
			         1.95167	-1.10000e+01	
			         1.95333	-1.10000e+01	
			         1.95500	-1.00000e+01	
			         1.95667	-1.00000e+01	
			         1.95833	-9.00000e+00	
			         1.96000	-9.00000e+00	
			         1.96167	-8.00000e+00	
			         1.96333	-8.00000e+00	
			         1.96500	-7.00000e+00	
			         1.96667	-7.00000e+00	
			         1.96833	-6.00000e+00	
			         1.97000	-6.00000e+00	
			         1.97167	-5.00000e+00	
			         1.97333	-4.00000e+00	
			         1.97500	-4.00000e+00	
			         1.97667	-3.00000e+00	
			         1.97833	-3.00000e+00	
			         1.98000	-2.00000e+00	
			         1.98167	-2.00000e+00	
			         1.98333	-2.00000e+00	
			         1.98500	-1.00000e+00	
			         1.98667	-1.00000e+00	
			         1.98833	-1.00000e+00	
			         1.99000	-1.00000e+00	
			         1.99167	-1.00000e+00	
			         1.99333	0.00000e+00	
			         1.99500	0.00000e+00	
			         1.99667	0.00000e+00	
			         1.99833	1.00000e+00	
			         2.00000	2.00000e+00	
			         2.00167	2.00000e+00	
			         2.00333	3.00000e+00	
			         2.00500	4.00000e+00	
			         2.00667	5.00000e+00	
			         2.00833	6.00000e+00	
			         2.01000	8.00000e+00	
			         2.01167	9.00000e+00	
			         2.01333	1.00000e+01	
			         2.01500	1.20000e+01	
			         2.01667	1.30000e+01	
			         2.01833	1.40000e+01	
			         2.02000	1.50000e+01	
			         2.02167	1.60000e+01	
			         2.02333	1.70000e+01	
			         2.02500	1.80000e+01	
			         2.02667	1.90000e+01	
			         2.02833	1.90000e+01	
			         2.03000	2.00000e+01	
			         2.03167	2.10000e+01	
			         2.03333	2.20000e+01	
			         2.03500	2.20000e+01	
			         2.03667	2.30000e+01	
			         2.03833	2.30000e+01	
			         2.04000	2.40000e+01	
			         2.04167	2.50000e+01	
			         2.04333	2.60000e+01	
			         2.04500	2.70000e+01	
			         2.04667	2.80000e+01	
			         2.04833	2.90000e+01	
			         2.05000	3.00000e+01	
			         2.05167	3.10000e+01	
			         2.05333	3.20000e+01	
			         2.05500	3.30000e+01	
			         2.05667	3.40000e+01	
			         2.05833	3.50000e+01	
			         2.06000	3.60000e+01	
			         2.06167	3.70000e+01	
			         2.06333	3.80000e+01	
			         2.06500	4.00000e+01	
			         2.06667	4.10000e+01	
			         2.06833	4.20000e+01	
			         2.07000	4.40000e+01	
			         2.07167	4.50000e+01	
			         2.07333	4.60000e+01	
			         2.07500	4.70000e+01	
			         2.07667	4.70000e+01	
			         2.07833	4.80000e+01	
			         2.08000	4.70000e+01	
			         2.08167	4.70000e+01	
			         2.08333	4.60000e+01	
			         2.08500	4.50000e+01	
			         2.08667	4.40000e+01	
			         2.08833	4.30000e+01	
			         2.09000	4.20000e+01	
			         2.09167	4.00000e+01	
			         2.09333	3.90000e+01	
			         2.09500	3.80000e+01	
			         2.09667	3.60000e+01	
			         2.09833	3.40000e+01	
			         2.10000	3.30000e+01	
			         2.10167	3.10000e+01	
			         2.10333	3.00000e+01	
			         2.10500	2.80000e+01	
			         2.10667	2.70000e+01	
			         2.10833	2.50000e+01	
			         2.11000	2.30000e+01	
			         2.11167	2.10000e+01	
			         2.11333	1.90000e+01	
			         2.11500	1.60000e+01	
			         2.11667	1.40000e+01	
			         2.11833	1.10000e+01	
			         2.12000	8.00000e+00	
			         2.12167	5.00000e+00	
			         2.12333	2.00000e+00	
			         2.12500	-2.00000e+00	
			         2.12667	-5.00000e+00	
			         2.12833	-9.00000e+00	
			         2.13000	-1.20000e+01	
			         2.13167	-1.50000e+01	
			         2.13333	-1.90000e+01	
			         2.13500	-2.20000e+01	
			         2.13667	-2.40000e+01	
			         2.13833	-2.70000e+01	
			         2.14000	-2.90000e+01	
			         2.14167	-3.10000e+01	
			         2.14333	-3.20000e+01	
			         2.14500	-3.40000e+01	
			         2.14667	-3.50000e+01	
			         2.14833	-3.60000e+01	
			         2.15000	-3.70000e+01	
			         2.15167	-3.80000e+01	
			         2.15333	-3.80000e+01	
			         2.15500	-3.90000e+01	
			         2.15667	-4.00000e+01	
			         2.15833	-4.00000e+01	
			         2.16000	-4.10000e+01	
			         2.16167	-4.10000e+01	
			         2.16333	-4.20000e+01	
			         2.16500	-4.20000e+01	
			         2.16667	-4.20000e+01	
			         2.16833	-4.20000e+01	
			         2.17000	-4.10000e+01	
			         2.17167	-4.10000e+01	
			         2.17333	-4.00000e+01	
			         2.17500	-4.00000e+01	
			         2.17667	-3.90000e+01	
			         2.17833	-3.80000e+01	
			         2.18000	-3.70000e+01	
			         2.18167	-3.60000e+01	
			         2.18333	-3.50000e+01	
			         2.18500	-3.40000e+01	
			         2.18667	-3.30000e+01	
			         2.18833	-3.20000e+01	
			         2.19000	-3.20000e+01	
			         2.19167	-3.20000e+01	
			         2.19333	-3.10000e+01	
			         2.19500	-3.10000e+01	
			         2.19667	-3.10000e+01	
			         2.19833	-3.00000e+01	
			         2.20000	-3.00000e+01	
			         2.20167	-3.00000e+01	
			         2.20333	-3.00000e+01	
			         2.20500	-3.00000e+01	
			         2.20667	-3.00000e+01	
			         2.20833	-2.90000e+01	
			         2.21000	-2.90000e+01	
			         2.21167	-2.80000e+01	
			         2.21333	-2.70000e+01	
			         2.21500	-2.60000e+01	
			         2.21667	-2.60000e+01	
			         2.21833	-2.50000e+01	
			         2.22000	-2.40000e+01	
			         2.22167	-2.40000e+01	
			         2.22333	-2.30000e+01	
			         2.22500	-2.30000e+01	
			         2.22667	-2.30000e+01	
			         2.22833	-2.30000e+01	
			         2.23000	-2.20000e+01	
			         2.23167	-2.20000e+01	
			         2.23333	-2.20000e+01	
			         2.23500	-2.20000e+01	
			         2.23667	-2.10000e+01	
			         2.23833	-2.00000e+01	
			         2.24000	-1.90000e+01	
			         2.24167	-1.90000e+01	
			         2.24333	-1.80000e+01	
			         2.24500	-1.70000e+01	
			         2.24667	-1.60000e+01	
			         2.24833	-1.50000e+01	
			         2.25000	-1.40000e+01	
			         2.25167	-1.30000e+01	
			         2.25333	-1.20000e+01	
			         2.25500	-1.10000e+01	
			         2.25667	-1.00000e+01	
			         2.25833	-9.00000e+00	
			         2.26000	-8.00000e+00	
			         2.26167	-7.00000e+00	
			         2.26333	-5.00000e+00	
			         2.26500	-4.00000e+00	
			         2.26667	-3.00000e+00	
			         2.26833	-2.00000e+00	
			         2.27000	-1.00000e+00	
			         2.27167	0.00000e+00	
			         2.27333	1.00000e+00	
			         2.27500	1.00000e+00	
			         2.27667	2.00000e+00	
			         2.27833	2.00000e+00	
			         2.28000	2.00000e+00	
			         2.28167	2.00000e+00	
			         2.28333	2.00000e+00	
			         2.28500	2.00000e+00	
			         2.28667	2.00000e+00	
			         2.28833	2.00000e+00	
			         2.29000	2.00000e+00	
			         2.29167	2.00000e+00	
			         2.29333	2.00000e+00	
			         2.29500	2.00000e+00	
			         2.29667	2.00000e+00	
			         2.29833	3.00000e+00	
			         2.30000	3.00000e+00	
			         2.30167	3.00000e+00	
			         2.30333	3.00000e+00	
			         2.30500	4.00000e+00	
			         2.30667	4.00000e+00	
			         2.30833	4.00000e+00	
			         2.31000	4.00000e+00	
			         2.31167	4.00000e+00	
			         2.31333	4.00000e+00	
			         2.31500	4.00000e+00	
			         2.31667	4.00000e+00	
			         2.31833	4.00000e+00	
			         2.32000	4.00000e+00	
			         2.32167	4.00000e+00	
			         2.32333	3.00000e+00	
			         2.32500	3.00000e+00	
			         2.32667	3.00000e+00	
			         2.32833	3.00000e+00	
			         2.33000	3.00000e+00	
			         2.33167	2.00000e+00	
			         2.33333	2.00000e+00	
			         2.33500	3.00000e+00	
			         2.33667	3.00000e+00	
			         2.33833	3.00000e+00	
			         2.34000	4.00000e+00	
			         2.34167	4.00000e+00	
			         2.34333	5.00000e+00	
			         2.34500	5.00000e+00	
			         2.34667	6.00000e+00	
			         2.34833	6.00000e+00	
			         2.35000	6.00000e+00	
			         2.35167	6.00000e+00	
			         2.35333	5.00000e+00	
			         2.35500	5.00000e+00	
			         2.35667	4.00000e+00	
			         2.35833	3.00000e+00	
			         2.36000	3.00000e+00	
			         2.36167	2.00000e+00	
			         2.36333	1.00000e+00	
			         2.36500	1.00000e+00	
			         2.36667	0.00000e+00	
			         2.36833	-1.00000e+00	
			         2.37000	-1.00000e+00	
			         2.37167	-2.00000e+00	
			         2.37333	-2.00000e+00	
			         2.37500	-2.00000e+00	
			         2.37667	-2.00000e+00	
			         2.37833	-2.00000e+00	
			         2.38000	-2.00000e+00	
			         2.38167	-2.00000e+00	
			         2.38333	-2.00000e+00	
			         2.38500	-2.00000e+00	
			         2.38667	-2.00000e+00	
			         2.38833	-2.00000e+00	
			         2.39000	-2.00000e+00	
			         2.39167	-2.00000e+00	
			         2.39333	-2.00000e+00	
			         2.39500	-2.00000e+00	
			         2.39667	-2.00000e+00	
			         2.39833	-3.00000e+00	
			         2.40000	-3.00000e+00	
			         2.40167	-3.00000e+00	
			         2.40333	-3.00000e+00	
			         2.40500	-3.00000e+00	
			         2.40667	-3.00000e+00	
			         2.40833	-4.00000e+00	
			         2.41000	-4.00000e+00	
			         2.41167	-4.00000e+00	
			         2.41333	-5.00000e+00	
			         2.41500	-5.00000e+00	
			         2.41667	-6.00000e+00	
			         2.41833	-6.00000e+00	
			         2.42000	-7.00000e+00	
			         2.42167	-7.00000e+00	
			         2.42333	-8.00000e+00	
			         2.42500	-8.00000e+00	
			         2.42667	-8.00000e+00	
			         2.42833	-8.00000e+00	
			         2.43000	-8.00000e+00	
			         2.43167	-7.00000e+00	
			         2.43333	-7.00000e+00	
			         2.43500	-6.00000e+00	
			         2.43667	-5.00000e+00	
			         2.43833	-4.00000e+00	
			         2.44000	-3.00000e+00	
			         2.44167	-2.00000e+00	
			         2.44333	-1.00000e+00	
			         2.44500	-1.00000e+00	
			         2.44667	0.00000e+00	
			         2.44833	0.00000e+00	
			         2.45000	0.00000e+00	
			         2.45167	0.00000e+00	
			         2.45333	0.00000e+00	
			         2.45500	0.00000e+00	
			         2.45667	-1.00000e+00	
			         2.45833	-1.00000e+00	
			         2.46000	-2.00000e+00	
			         2.46167	-2.00000e+00	
			         2.46333	-3.00000e+00	
			         2.46500	-4.00000e+00	
			         2.46667	-4.00000e+00	
			         2.46833	-5.00000e+00	
			         2.47000	-5.00000e+00	
			         2.47167	-5.00000e+00	
			         2.47333	-5.00000e+00	
			         2.47500	-4.00000e+00	
			         2.47667	-4.00000e+00	
			         2.47833	-4.00000e+00	
			         2.48000	-3.00000e+00	
			         2.48167	-3.00000e+00	
			         2.48333	-2.00000e+00	
			         2.48500	-1.00000e+00	
			         2.48667	-1.00000e+00	
			         2.48833	0.00000e+00	
			         2.49000	0.00000e+00	
			         2.49167	0.00000e+00	
			         2.49333	0.00000e+00	
			         2.49500	0.00000e+00	
			         2.49667	0.00000e+00	
			         2.49833	-1.00000e+00	
			         2.50000	-1.00000e+00	
			         2.50167	-2.00000e+00	
			         2.50333	-2.00000e+00	
			         2.50500	-2.00000e+00	
			         2.50667	-2.00000e+00	
			         2.50833	-2.00000e+00	
			         2.51000	-2.00000e+00	
			         2.51167	-1.00000e+00	
			         2.51333	-1.00000e+00	
			         2.51500	-1.00000e+00	
			         2.51667	0.00000e+00	
			         2.51833	0.00000e+00	
			         2.52000	0.00000e+00	
			         2.52167	0.00000e+00	
			         2.52333	1.00000e+00	
			         2.52500	0.00000e+00	
			         2.52667	0.00000e+00	
			         2.52833	0.00000e+00	
			         2.53000	-1.00000e+00	
			         2.53167	-1.00000e+00	
			         2.53333	-2.00000e+00	
			         2.53500	-2.00000e+00	
			         2.53667	-3.00000e+00	
			         2.53833	-3.00000e+00	
			         2.54000	-3.00000e+00	
			         2.54167	-3.00000e+00	
			         2.54333	-3.00000e+00	
			         2.54500	-3.00000e+00	
			         2.54667	-3.00000e+00	
			         2.54833	-3.00000e+00	
			         2.55000	-2.00000e+00	
			         2.55167	-2.00000e+00	
			         2.55333	-1.00000e+00	
			         2.55500	0.00000e+00	
			         2.55667	1.00000e+00	
			         2.55833	2.00000e+00	
			         2.56000	4.00000e+00	
			         2.56167	5.00000e+00	
			         2.56333	6.00000e+00	
			         2.56500	8.00000e+00	
			         2.56667	1.00000e+01	
			         2.56833	1.10000e+01	
			         2.57000	1.30000e+01	
			         2.57167	1.40000e+01	
			         2.57333	1.50000e+01	
			         2.57500	1.70000e+01	
			         2.57667	1.70000e+01	
			         2.57833	1.80000e+01	
			         2.58000	1.90000e+01	
			         2.58167	1.90000e+01	
			         2.58333	2.00000e+01	
			         2.58500	2.00000e+01	
			         2.58667	2.00000e+01	
			         2.58833	2.00000e+01	
			         2.59000	2.00000e+01	
			         2.59167	1.90000e+01	
			         2.59333	1.90000e+01	
			         2.59500	1.80000e+01	
			         2.59667	1.70000e+01	
			         2.59833	1.60000e+01	
			         2.60000	1.60000e+01	
			         2.60167	1.50000e+01	
			         2.60333	1.30000e+01	
			         2.60500	1.20000e+01	
			         2.60667	1.00000e+01	
			         2.60833	8.00000e+00	
			         2.61000	7.00000e+00	
			         2.61167	5.00000e+00	
			         2.61333	4.00000e+00	
			         2.61500	2.00000e+00	
			         2.61667	0.00000e+00	
			         2.61833	-1.00000e+00	
			         2.62000	-2.00000e+00	
			         2.62167	-4.00000e+00	
			         2.62333	-4.00000e+00	
			         2.62500	-5.00000e+00	
			         2.62667	-5.00000e+00	
			         2.62833	-5.00000e+00	
			         2.63000	-5.00000e+00	
			         2.63167	-5.00000e+00	
			         2.63333	-5.00000e+00	
			         2.63500	-4.00000e+00	
			         2.63667	-4.00000e+00	
			         2.63833	-4.00000e+00	
			         2.64000	-4.00000e+00	
			         2.64167	-4.00000e+00	
			         2.64333	-5.00000e+00	
			         2.64500	-5.00000e+00	
			         2.64667	-6.00000e+00	
			         2.64833	-6.00000e+00	
			         2.65000	-7.00000e+00	
			         2.65167	-7.00000e+00	
			         2.65333	-8.00000e+00	
			         2.65500	-9.00000e+00	
			         2.65667	-9.00000e+00	
			         2.65833	-1.00000e+01	
			         2.66000	-1.00000e+01	
			         2.66167	-1.00000e+01	
			         2.66333	-1.00000e+01	
			         2.66500	-9.00000e+00	
			         2.66667	-9.00000e+00	
			         2.66833	-9.00000e+00	
			         2.67000	-8.00000e+00	
			         2.67167	-7.00000e+00	
			         2.67333	-7.00000e+00	
			         2.67500	-6.00000e+00	
			         2.67667	-5.00000e+00	
			         2.67833	-4.00000e+00	
			         2.68000	-4.00000e+00	
			         2.68167	-3.00000e+00	
			         2.68333	-3.00000e+00	
			         2.68500	-3.00000e+00	
			         2.68667	-2.00000e+00	
			         2.68833	-1.00000e+00	
			         2.69000	0.00000e+00	
			         2.69167	2.00000e+00	
			         2.69333	5.00000e+00	
			         2.69500	9.00000e+00	
			         2.69667	1.40000e+01	
			         2.69833	2.00000e+01	
			         2.70000	2.70000e+01	
			         2.70167	3.50000e+01	
			         2.70333	4.50000e+01	
			         2.70500	5.50000e+01	
			         2.70667	6.70000e+01	
			         2.70833	8.00000e+01	
			         2.71000	9.30000e+01	
			         2.71167	1.07000e+02	
			         2.71333	1.19000e+02	
			         2.71500	1.30000e+02	
			         2.71667	1.39000e+02	
			         2.71833	1.47000e+02	
			         2.72000	1.52000e+02	
			         2.72167	1.54000e+02	
			         2.72333	1.54000e+02	
			         2.72500	1.50000e+02	
			         2.72667	1.43000e+02	
			         2.72833	1.33000e+02	
			         2.73000	1.21000e+02	
			         2.73167	1.06000e+02	
			         2.73333	8.90000e+01	
			         2.73500	7.20000e+01	
			         2.73667	5.50000e+01	
			         2.73833	3.80000e+01	
			         2.74000	2.10000e+01	
			         2.74167	6.00000e+00	
			         2.74333	-7.00000e+00	
			         2.74500	-1.90000e+01	
			         2.74667	-2.80000e+01	
			         2.74833	-3.50000e+01	
			         2.75000	-4.00000e+01	
			         2.75167	-4.30000e+01	
			         2.75333	-4.40000e+01	
			         2.75500	-4.40000e+01	
			         2.75667	-4.40000e+01	
			         2.75833	-4.20000e+01	
			         2.76000	-4.00000e+01	
			         2.76167	-3.80000e+01	
			         2.76333	-3.60000e+01	
			         2.76500	-3.50000e+01	
			         2.76667	-3.40000e+01	
			         2.76833	-3.30000e+01	
			         2.77000	-3.20000e+01	
			         2.77167	-3.20000e+01	
			         2.77333	-3.20000e+01	
			         2.77500	-3.20000e+01	
			         2.77667	-3.20000e+01	
			         2.77833	-3.20000e+01	
			         2.78000	-3.20000e+01	
			         2.78167	-3.20000e+01	
