Velocity (TVI), in cm/s

Time (s) :	Trace 1 : 		Ecg : 		
0.00515   	-2.12085e+00		         0.00000	-2.60000e+01	
0.01113   	-1.90178e+00		         0.00167	-1.00000e+01	
0.01723   	-1.41436e+00		         0.00333	1.10000e+01	
0.02333   	-6.46700e-01		         0.00500	3.60000e+01	
0.02971   	2.84319e-01		         0.00667	6.40000e+01	
0.03581   	4.47211e-01		         0.00833	9.60000e+01	
0.04192   	2.10314e-01		         0.01000	1.29000e+02	
0.04803   	-4.71311e-01		         0.01167	1.64000e+02	
0.05440   	-1.23508e+00		         0.01333	1.97000e+02	
0.06051   	-2.22569e+00		         0.01500	2.30000e+02	
0.06661   	-2.03697e+00		         0.01667	2.59000e+02	
0.07271   	-1.33420e+00		         0.01833	2.84000e+02	
0.07909   	-2.55573e-01		         0.02000	3.05000e+02	
0.08519   	7.11810e-01		         0.02167	3.19000e+02	
0.09130   	1.71892e+00		         0.02333	3.28000e+02	
0.09741   	2.35129e+00		         0.02500	3.31000e+02	
0.10378   	2.81933e+00		         0.02667	3.27000e+02	
0.10989   	3.01895e+00		         0.02833	3.17000e+02	
0.11599   	3.34583e+00		         0.03000	3.01000e+02	
0.12209   	3.55447e+00		         0.03167	2.82000e+02	
0.12848   	3.47249e+00		         0.03333	2.58000e+02	
0.13458   	3.52146e+00		         0.03500	2.32000e+02	
0.14068   	3.48414e+00		         0.03667	2.04000e+02	
0.14679   	3.34776e+00		         0.03833	1.75000e+02	
0.15316   	3.17666e+00		         0.04000	1.45000e+02	
0.15927   	3.13623e+00		         0.04167	1.16000e+02	
0.16537   	3.03965e+00		         0.04333	8.80000e+01	
0.17147   	2.96085e+00		         0.04500	6.20000e+01	
0.17785   	2.93947e+00		         0.04667	3.70000e+01	
0.18396   	2.90464e+00		         0.04833	1.30000e+01	
0.19006   	2.81316e+00		         0.05000	-8.00000e+00	
0.19617   	2.67877e+00		         0.05167	-2.60000e+01	
0.20254   	2.68688e+00		         0.05333	-4.30000e+01	
0.20865   	2.65112e+00		         0.05500	-5.70000e+01	
0.21475   	2.73538e+00		         0.05667	-6.80000e+01	
0.22113   	2.78690e+00		         0.05833	-7.80000e+01	
0.22723   	2.91424e+00		         0.06000	-8.50000e+01	
0.23334   	2.85377e+00		         0.06167	-9.10000e+01	
0.23944   	2.88066e+00		         0.06333	-9.50000e+01	
0.24555   	2.76925e+00		         0.06500	-9.70000e+01	
0.25192   	2.80463e+00		         0.06667	-9.80000e+01	
0.25802   	2.71921e+00		         0.06833	-9.90000e+01	
0.26413   	2.62767e+00		         0.07000	-9.80000e+01	
0.27023   	2.59392e+00		         0.07167	-9.70000e+01	
0.27661   	2.58273e+00		         0.07333	-9.50000e+01	
0.28272   	2.40363e+00		         0.07500	-9.40000e+01	
0.28882   	2.33409e+00		         0.07667	-9.20000e+01	
0.29493   	2.35762e+00		         0.07833	-8.90000e+01	
0.30130   	2.26451e+00		         0.08000	-8.70000e+01	
0.30741   	2.27990e+00		         0.08167	-8.50000e+01	
0.31351   	2.26978e+00		         0.08333	-8.30000e+01	
0.31962   	2.25924e+00		         0.08500	-8.10000e+01	
0.32600   	2.09425e+00		         0.08667	-7.80000e+01	
0.33210   	2.14091e+00		         0.08833	-7.60000e+01	
0.33820   	2.06677e+00		         0.09000	-7.40000e+01	
0.34430   	1.85650e+00		         0.09167	-7.20000e+01	
0.35068   	1.60106e+00		         0.09333	-6.90000e+01	
0.35679   	1.50542e+00		         0.09500	-6.70000e+01	
0.36289   	1.15138e+00		         0.09667	-6.60000e+01	
0.36900   	8.04474e-01		         0.09833	-6.40000e+01	
0.37537   	5.82813e-01		         0.10000	-6.20000e+01	
0.38148   	2.49821e-01		         0.10167	-6.10000e+01	
0.38758   	-3.36337e-01		         0.10333	-6.00000e+01	
0.39369   	-7.81746e-01		         0.10500	-5.90000e+01	
0.40006   	-1.19302e+00		         0.10667	-5.80000e+01	
0.40617   	-1.52001e+00		         0.10833	-5.70000e+01	
0.41227   	-1.32680e+00		         0.11000	-5.60000e+01	
0.41838   	-1.06191e+00		         0.11167	-5.50000e+01	
0.42476   	-6.49075e-01		         0.11333	-5.40000e+01	
0.43086   	-2.01415e-01		         0.11500	-5.20000e+01	
0.43696   	1.01186e-01		         0.11667	-5.10000e+01	
0.44307   	-9.28987e-02		         0.11833	-5.00000e+01	
0.44944   	-2.17314e-01		         0.12000	-4.80000e+01	
0.45555   	-3.92930e-01		         0.12167	-4.70000e+01	
0.46165   	-8.25629e-01		         0.12333	-4.60000e+01	
0.46776   	-1.24608e+00		         0.12500	-4.40000e+01	
0.47414   	-2.03151e+00		         0.12667	-4.30000e+01	
0.48024   	-1.83769e+00		         0.12833	-4.20000e+01	
0.48634   	-2.19493e+00		         0.13000	-4.10000e+01	
0.49245   	-2.62297e+00		         0.13167	-4.00000e+01	
0.49882   	-2.59373e+00		         0.13333	-3.90000e+01	
0.50493   	-1.97200e+00		         0.13500	-3.80000e+01	
0.51103   	-2.41893e+00		         0.13667	-3.80000e+01	
0.51714   	-2.12037e+00		         0.13833	-3.70000e+01	
0.52351   	-1.68755e+00		         0.14000	-3.60000e+01	
0.52962   	-1.73053e+00		         0.14167	-3.50000e+01	
0.53572   	-1.91748e+00		         0.14333	-3.40000e+01	
0.54183   	-1.90845e+00		         0.14500	-3.30000e+01	
0.54821   	-2.17626e+00		         0.14667	-3.20000e+01	
0.55431   	-2.31307e+00		         0.14833	-3.10000e+01	
0.56041   	-2.31170e+00		         0.15000	-3.00000e+01	
0.56652   	-2.25449e+00		         0.15167	-2.90000e+01	
0.57289   	-2.10463e+00		         0.15333	-2.80000e+01	
0.57900   	-2.01978e+00		         0.15500	-2.60000e+01	
0.58510   	-1.87316e+00		         0.15667	-2.50000e+01	
0.59121   	-1.68655e+00		         0.15833	-2.40000e+01	
0.59758   	-1.55561e+00		         0.16000	-2.40000e+01	
0.60368   	-1.53392e+00		         0.16167	-2.30000e+01	
0.60979   	-1.48391e+00		         0.16333	-2.20000e+01	
0.61590   	-1.44144e+00		         0.16500	-2.20000e+01	
0.62227   	-1.50334e+00		         0.16667	-2.10000e+01	
0.62838   	-1.54658e+00		         0.16833	-2.00000e+01	
0.63448   	-1.55059e+00		         0.17000	-1.90000e+01	
0.64059   	-1.54379e+00		         0.17167	-1.80000e+01	
0.64696   	-1.50812e+00		         0.17333	-1.70000e+01	
0.65320   	-1.43882e+00		         0.17500	-1.60000e+01	
0.65917   	-1.35461e+00		         0.17667	-1.60000e+01	
0.66528   	-1.26372e+00		         0.17833	-1.50000e+01	
0.67165   	-1.15528e+00		         0.18000	-1.40000e+01	
0.67776   	-1.05150e+00		         0.18167	-1.30000e+01	
0.68386   	-9.19899e-01		         0.18333	-1.20000e+01	
0.68997   	-7.98113e-01		         0.18500	-1.10000e+01	
0.69634   	-7.06554e-01		         0.18667	-1.00000e+01	
0.70245   	-6.61176e-01		         0.18833	-9.00000e+00	
0.70855   	-7.73742e-01		         0.19000	-8.00000e+00	
0.71466   	-9.92050e-01		         0.19167	-8.00000e+00	
0.72103   	-1.60556e+00		         0.19333	-7.00000e+00	
0.72714   	-2.56220e+00		         0.19500	-7.00000e+00	
0.73324   	-3.91659e+00		         0.19667	-6.00000e+00	
0.73935   	-5.21343e+00		         0.19833	-6.00000e+00	
0.74573   	-6.52004e+00		         0.20000	-6.00000e+00	
0.75215   	-7.51751e+00		         0.20167	-6.00000e+00	
0.75793   	-8.16907e+00		         0.20333	-6.00000e+00	
0.76404   	-8.22083e+00		         0.20500	-6.00000e+00	
0.77041   	-8.25599e+00		         0.20667	-6.00000e+00	
0.77652   	-7.95134e+00		         0.20833	-6.00000e+00	
0.78262   	-7.36940e+00		         0.21000	-6.00000e+00	
0.78873   	-6.44628e+00		         0.21167	-6.00000e+00	
0.79511   	-5.71646e+00		         0.21333	-5.00000e+00	
0.80121   	-4.72864e+00		         0.21500	-4.00000e+00	
0.80731   	-4.08522e+00		         0.21667	-4.00000e+00	
0.81342   	-3.45328e+00		         0.21833	-3.00000e+00	
0.81979   	-2.97161e+00		         0.22000	-2.00000e+00	
0.82590   	-2.43516e+00		         0.22167	-1.00000e+00	
0.83200   	-2.01995e+00		         0.22333	1.00000e+00	
0.83811   	-1.37538e+00		         0.22500	2.00000e+00	
0.84449   	-7.33302e-01		         0.22667	3.00000e+00	
0.85059   	-1.48925e-01		         0.22833	5.00000e+00	
0.85669   	5.21571e-01		         0.23000	7.00000e+00	
0.86280   	1.05627e+00		         0.23167	8.00000e+00	
0.86918   	7.76950e-01		         0.23333	9.00000e+00	
0.87528   	1.37155e-01		         0.23500	1.10000e+01	
0.88138   	-6.44845e-01		         0.23667	1.10000e+01	
0.88749   	-1.44944e+00		         0.23833	1.20000e+01	
0.89386   	-2.09665e+00		         0.24000	1.30000e+01	
0.89997   	-1.87080e+00		         0.24167	1.30000e+01	
0.90608   	-1.33414e+00		         0.24333	1.30000e+01	
0.91218   	-2.12380e-01		         0.24500	1.30000e+01	
0.91855   	6.94006e-01		         0.24667	1.30000e+01	
0.92466   	1.66488e+00		         0.24833	1.30000e+01	
0.93076   	2.67375e+00		         0.25000	1.30000e+01	
0.93687   	3.49528e+00		         0.25167	1.40000e+01	
0.94325   	3.67389e+00		         0.25333	1.40000e+01	
0.94935   	3.87830e+00		         0.25500	1.40000e+01	
0.95546   	3.95601e+00		         0.25667	1.50000e+01	
0.96156   	3.64070e+00		         0.25833	1.50000e+01	
0.96803   	3.44509e+00		         0.26000	1.60000e+01	
0.97404   	3.25641e+00		         0.26167	1.70000e+01	
0.98014   	3.14621e+00		         0.26333	1.70000e+01	
0.98625   	3.02786e+00		         0.26500	1.80000e+01	
0.99263   	3.05574e+00		         0.26667	1.90000e+01	
0.99873   	2.95720e+00		         0.26833	1.90000e+01	
1.00483   	2.95162e+00		         0.27000	1.90000e+01	
1.01094   	2.90070e+00		         0.27167	2.00000e+01	
1.01731   	3.04263e+00		         0.27333	2.00000e+01	
1.02342   	3.11125e+00		         0.27500	2.00000e+01	
1.02952   	3.27066e+00		         0.27667	2.00000e+01	
1.03563   	3.45918e+00		         0.27833	2.00000e+01	
1.04201   	3.71092e+00		         0.28000	2.00000e+01	
1.04811   	3.57900e+00		         0.28167	2.00000e+01	
1.05421   	3.61373e+00		         0.28333	2.00000e+01	
1.06032   	3.53997e+00		         0.28500	2.00000e+01	
1.06669   	3.38906e+00		         0.28667	2.00000e+01	
1.07280   	3.26254e+00		         0.28833	2.10000e+01	
1.07891   	3.21264e+00		         0.29000	2.10000e+01	
1.08501   	2.99544e+00		         0.29167	2.20000e+01	
1.09139   	2.92482e+00		         0.29333	2.20000e+01	
1.09749   	2.87299e+00		         0.29500	2.30000e+01	
1.10359   	2.67589e+00		         0.29667	2.40000e+01	
1.10970   	2.69026e+00		         0.29833	2.40000e+01	
1.11607   	2.72247e+00		         0.30000	2.50000e+01	
1.12218   	2.67340e+00		         0.30167	2.60000e+01	
1.12828   	2.59029e+00		         0.30333	2.60000e+01	
1.13439   	2.66944e+00		         0.30500	2.60000e+01	
1.14077   	2.46988e+00		         0.30667	2.60000e+01	
1.14687   	2.48753e+00		         0.30833	2.60000e+01	
1.15297   	2.39353e+00		         0.31000	2.60000e+01	
1.15908   	2.31685e+00		         0.31167	2.50000e+01	
1.16545   	2.12427e+00		         0.31333	2.50000e+01	
1.17156   	2.00663e+00		         0.31500	2.40000e+01	
1.17767   	1.76254e+00		         0.31667	2.30000e+01	
1.18391   	1.47875e+00		         0.31833	2.20000e+01	
1.19015   	1.18989e+00		         0.32000	2.10000e+01	
1.19625   	9.23833e-01		         0.32167	2.00000e+01	
1.20235   	5.59954e-01		         0.32333	1.80000e+01	
1.20846   	-1.30214e-02		         0.32500	1.60000e+01	
1.21483   	-5.80827e-01		         0.32667	1.50000e+01	
1.22104   	-1.36722e+00		         0.32833	1.30000e+01	
1.22705   	-2.17011e+00		         0.33000	1.20000e+01	
1.23315   	-2.45748e+00		         0.33167	1.00000e+01	
1.23953   	-2.32818e+00		         0.33333	8.00000e+00	
1.24563   	-1.82519e+00		         0.33500	6.00000e+00	
1.25173   	-1.11421e+00		         0.33667	5.00000e+00	
1.25784   	-1.09043e-01		         0.33833	3.00000e+00	
1.26421   	5.12123e-01		         0.34000	1.00000e+00	
1.27032   	8.15038e-01		         0.34167	0.00000e+00	
1.27642   	9.02030e-01		         0.34333	-1.00000e+00	
1.28253   	1.03778e+00		         0.34500	-3.00000e+00	
1.28891   	1.05419e+00		         0.34667	-4.00000e+00	
1.29501   	6.40550e-01		         0.34833	-5.00000e+00	
1.30111   	8.67005e-01		         0.35000	-6.00000e+00	
1.30722   	1.01697e+00		         0.35167	-8.00000e+00	
1.31360   	5.01422e-01		         0.35333	-9.00000e+00	
1.31970   	2.61407e-01		         0.35500	-1.00000e+01	
1.32580   	3.42507e-01		         0.35667	-1.20000e+01	
1.33191   	-3.17561e-01		         0.35833	-1.30000e+01	
1.33829   	-7.53043e-01		         0.36000	-1.40000e+01	
1.34439   	-6.10442e-01		         0.36167	-1.50000e+01	
1.35049   	-1.01175e+00		         0.36333	-1.50000e+01	
1.35660   	-1.33865e+00		         0.36500	-1.60000e+01	
1.36298   	-1.43901e+00		         0.36667	-1.60000e+01	
1.36908   	-1.52630e+00		         0.36833	-1.70000e+01	
1.37518   	-1.69766e+00		         0.37000	-1.70000e+01	
1.38129   	-1.79274e+00		         0.37167	-1.70000e+01	
1.38767   	-1.86183e+00		         0.37333	-1.80000e+01	
1.39377   	-1.90513e+00		         0.37500	-1.80000e+01	
1.39987   	-2.03349e+00		         0.37667	-1.80000e+01	
1.40598   	-1.99916e+00		         0.37833	-1.80000e+01	
1.41236   	-1.90759e+00		         0.38000	-1.80000e+01	
1.41846   	-1.78478e+00		         0.38167	-1.80000e+01	
1.42457   	-1.65324e+00		         0.38333	-1.90000e+01	
1.43067   	-1.64572e+00		         0.38500	-1.90000e+01	
1.43705   	-1.58512e+00		         0.38667	-1.90000e+01	
1.44315   	-1.56949e+00		         0.38833	-1.90000e+01	
1.44959   	-1.49601e+00		         0.39000	-1.90000e+01	
1.45536   	-1.50328e+00		         0.39167	-1.90000e+01	
1.46174   	-1.38555e+00		         0.39333	-1.90000e+01	
1.46784   	-1.36743e+00		         0.39500	-1.80000e+01	
1.47394   	-1.27242e+00		         0.39667	-1.80000e+01	
1.48005   	-1.21856e+00		         0.39833	-1.80000e+01	
1.48643   	-1.09700e+00		         0.40000	-1.70000e+01	
1.49253   	-1.02208e+00		         0.40167	-1.70000e+01	
1.49863   	-9.04376e-01		         0.40333	-1.60000e+01	
1.50474   	-8.25566e-01		         0.40500	-1.50000e+01	
1.51111   	-7.43668e-01		         0.40667	-1.50000e+01	
1.51722   	-6.81135e-01		         0.40833	-1.40000e+01	
1.52333   	-6.66809e-01		         0.41000	-1.40000e+01	
1.52943   	-6.63467e-01		         0.41167	-1.40000e+01	
1.53581   	-6.64290e-01		         0.41333	-1.30000e+01	
1.54191   	-6.87139e-01		         0.41500	-1.30000e+01	
1.54801   	-7.23053e-01		         0.41667	-1.30000e+01	
1.55412   	-1.09587e+00		         0.41833	-1.20000e+01	
1.56050   	-1.84876e+00		         0.42000	-1.20000e+01	
1.56660   	-2.75511e+00		         0.42167	-1.20000e+01	
1.57271   	-4.05127e+00		         0.42333	-1.10000e+01	
1.57881   	-5.51614e+00		         0.42500	-1.10000e+01	
1.58519   	-6.79708e+00		         0.42667	-1.00000e+01	
1.59129   	-7.70859e+00		         0.42833	-9.00000e+00	
1.59740   	-8.46313e+00		         0.43000	-9.00000e+00	
1.60350   	-8.76093e+00		         0.43167	-8.00000e+00	
1.60988   	-8.76323e+00		         0.43333	-8.00000e+00	
1.61598   	-8.44576e+00		         0.43500	-7.00000e+00	
1.62209   	-7.85803e+00		         0.43667	-7.00000e+00	
1.62819   	-6.91307e+00		         0.43833	-6.00000e+00	
1.63457   	-5.85734e+00		         0.44000	-6.00000e+00	
1.64067   	-4.84575e+00		         0.44167	-6.00000e+00	
1.64677   	-4.05762e+00		         0.44333	-7.00000e+00	
1.65288   	-3.36185e+00		         0.44500	-7.00000e+00	
1.65926   	-2.92766e+00		         0.44667	-8.00000e+00	
1.66536   	-2.54099e+00		         0.44833	-8.00000e+00	
1.67147   	-2.06968e+00		         0.45000	-9.00000e+00	
1.67757   	-1.54570e+00		         0.45167	-1.00000e+01	
1.68395   	-1.05502e+00		         0.45333	-1.10000e+01	
1.69005   	-4.34277e-01		         0.45500	-1.10000e+01	
1.69616   	1.94933e-01		         0.45667	-1.20000e+01	
1.70226   	4.29991e-01		         0.45833	-1.20000e+01	
1.70864   	2.55507e-01		         0.46000	-1.20000e+01	
1.71474   	-3.14788e-01		         0.46167	-1.20000e+01	
1.72085   	-1.02998e+00		         0.46333	-1.20000e+01	
1.72695   	-2.01217e+00		         0.46500	-1.10000e+01	
1.73333   	-2.31532e+00		         0.46667	-1.10000e+01	
1.73943   	-1.93912e+00		         0.46833	-1.00000e+01	
1.74553   	-1.12853e+00		         0.47000	-1.00000e+01	
1.75164   	8.98027e-03		         0.47167	-9.00000e+00	
1.75802   	1.39964e+00		         0.47333	-8.00000e+00	
1.76412   	2.35485e+00		         0.47500	-8.00000e+00	
1.77023   	3.17189e+00		         0.47667	-8.00000e+00	
1.77633   	3.81856e+00		         0.47833	-7.00000e+00	
1.78271   	3.98727e+00		         0.48000	-7.00000e+00	
1.78881   	4.16832e+00		         0.48167	-7.00000e+00	
1.79492   	4.12374e+00		         0.48333	-7.00000e+00	
1.80102   	4.05405e+00		         0.48500	-7.00000e+00	
1.80740   	3.86179e+00		         0.48667	-8.00000e+00	
1.81350   	3.72605e+00		         0.48833	-8.00000e+00	
1.81961   	3.40199e+00		         0.49000	-8.00000e+00	
1.82571   	3.29592e+00		         0.49167	-8.00000e+00	
1.83209   	3.13150e+00		         0.49333	-8.00000e+00	
1.83819   	3.01202e+00		         0.49500	-8.00000e+00	
1.84430   	2.99592e+00		         0.49667	-8.00000e+00	
1.85040   	3.00902e+00		         0.49833	-8.00000e+00	
1.85678   	3.07774e+00		         0.50000	-8.00000e+00	
1.86288   	3.10646e+00		         0.50167	-9.00000e+00	
1.86899   	3.26490e+00		         0.50333	-9.00000e+00	
1.87509   	3.37118e+00		         0.50500	-9.00000e+00	
1.88147   	3.56114e+00		         0.50667	-9.00000e+00	
1.88757   	3.62738e+00		         0.50833	-1.00000e+01	
1.89368   	3.62533e+00		         0.51000	-1.00000e+01	
1.89978   	3.64300e+00		         0.51167	-1.00000e+01	
1.90616   	3.62340e+00		         0.51333	-1.00000e+01	
1.91226   	3.48528e+00		         0.51500	-1.00000e+01	
1.91837   	3.36529e+00		         0.51667	-9.00000e+00	
1.92447   	3.31361e+00		         0.51833	-9.00000e+00	
1.93091   	3.23110e+00		         0.52000	-9.00000e+00	
1.93695   	3.15388e+00		         0.52167	-8.00000e+00	
1.94306   	3.07892e+00		         0.52333	-8.00000e+00	
1.94917   	3.00697e+00		         0.52500	-7.00000e+00	
1.95554   	2.92448e+00		         0.52667	-7.00000e+00	
1.96164   	2.79636e+00		         0.52833	-6.00000e+00	
1.96775   	2.64209e+00		         0.53000	-5.00000e+00	
1.97385   	2.50212e+00		         0.53167	-5.00000e+00	
1.98023   	2.45561e+00		         0.53333	-4.00000e+00	
1.98633   	2.39819e+00		         0.53500	-4.00000e+00	
1.99244   	2.31889e+00		         0.53667	-3.00000e+00	
1.99854   	2.26417e+00		         0.53833	-3.00000e+00	
2.00492   	2.19476e+00		         0.54000	-3.00000e+00	
2.01102   	2.04135e+00		         0.54167	-2.00000e+00	
2.01713   	1.82381e+00		         0.54333	-2.00000e+00	
2.02323   	1.59864e+00		         0.54500	-1.00000e+00	
2.02961   	1.26409e+00		         0.54667	-1.00000e+00	
2.03571   	8.99739e-01		         0.54833	-1.00000e+00	
2.04182   	3.41195e-01		         0.55000	-1.00000e+00	
2.04792   	-2.65247e-01		         0.55167	0.00000e+00	
2.05430   	-1.07765e+00		         0.55333	0.00000e+00	
2.06040   	-1.95469e+00		         0.55500	0.00000e+00	
2.06651   	-2.80561e+00		         0.55667	0.00000e+00	
2.07261   	-2.91925e+00		         0.55833	0.00000e+00	
2.07899   	-2.62590e+00		         0.56000	1.00000e+00	
2.08510   	-1.80379e+00		         0.56167	1.00000e+00	
2.09120   	-9.67390e-01		         0.56333	1.00000e+00	
2.09730   	6.76339e-02		         0.56500	1.00000e+00	
2.10368   	8.16260e-01		         0.56667	1.00000e+00	
2.10978   	1.16117e+00		         0.56833	1.00000e+00	
2.11589   	1.16468e+00		         0.57000	1.00000e+00	
2.12199   	1.49631e+00		         0.57167	0.00000e+00	
2.12837   	1.44809e+00		         0.57333	0.00000e+00	
2.13447   	9.26018e-01		         0.57500	0.00000e+00	
2.14058   	6.72717e-01		         0.57667	-1.00000e+00	
2.14703   	5.83871e-01		         0.57833	-1.00000e+00	
2.15306   	1.78809e-01		         0.58000	-1.00000e+00	
2.15916   	-1.61095e-01		         0.58167	-1.00000e+00	
2.16527   	-2.24464e-01		         0.58333	-1.00000e+00	
2.17137   	-3.62589e-01		         0.58500	0.00000e+00	
2.17775   	-7.14962e-01		         0.58667	0.00000e+00	
2.18385   	-1.23514e+00		         0.58833	0.00000e+00	
2.18996   	-1.41571e+00		         0.59000	1.00000e+00	
2.19606   	-1.59511e+00		         0.59167	1.00000e+00	
2.20244   	-1.81155e+00		         0.59333	2.00000e+00	
2.20854   	-1.99863e+00		         0.59500	2.00000e+00	
2.21465   	-1.92902e+00		         0.59667	2.00000e+00	
2.22075   	-2.01233e+00		         0.59833	3.00000e+00	
2.22713   	-2.19286e+00		         0.60000	4.00000e+00	
2.23323   	-2.31845e+00		         0.60167	4.00000e+00	
2.23934   	-2.26260e+00		         0.60333	5.00000e+00	
2.24544   	-2.21048e+00		         0.60500	6.00000e+00	
2.25182   	-2.10792e+00		         0.60667	6.00000e+00	
2.25793   	-1.83063e+00		         0.60833	7.00000e+00	
2.26403   	-1.62018e+00		         0.61000	7.00000e+00	
2.27013   	-1.53268e+00		         0.61167	6.00000e+00	
2.27651   	-1.38425e+00		         0.61333	6.00000e+00	
2.28261   	-1.24996e+00		         0.61500	6.00000e+00	
2.28872   	-1.27350e+00		         0.61667	5.00000e+00	
2.29482   	-1.30337e+00		         0.61833	4.00000e+00	
2.30120   	-1.31943e+00		         0.62000	3.00000e+00	
2.30730   	-1.33656e+00		         0.62167	2.00000e+00	
2.31341   	-1.40637e+00		         0.62333	2.00000e+00	
2.31952   	-1.40610e+00		         0.62500	1.00000e+00	
2.32589   	-1.35560e+00		         0.62667	0.00000e+00	
2.33199   	-1.27090e+00		         0.62833	0.00000e+00	
2.33810   	-1.17769e+00		         0.63000	0.00000e+00	
2.34420   	-1.03771e+00		         0.63167	1.00000e+00	
2.35058   	-9.15501e-01		         0.63333	1.00000e+00	
2.35668   	-8.43805e-01		         0.63500	2.00000e+00	
2.36282   	-8.03986e-01		         0.63667	3.00000e+00	
2.36889   	-7.30695e-01		         0.63833	3.00000e+00	
2.37527   	-6.94044e-01		         0.64000	4.00000e+00	
2.38137   	-6.24569e-01		         0.64167	5.00000e+00	
2.38748   	-5.87396e-01		         0.64333	5.00000e+00	
2.39359   	-6.11427e-01		         0.64500	5.00000e+00	
2.39996   	-8.01703e-01		         0.64667	5.00000e+00	
2.40606   	-1.24162e+00		         0.64833	5.00000e+00	
2.41254   	-2.02349e+00		         0.65000	5.00000e+00	
2.41827   	-3.11148e+00		         0.65167	5.00000e+00	
2.42465   	-4.30298e+00		         0.65333	4.00000e+00	
2.43075   	-5.78796e+00		         0.65500	4.00000e+00	
2.43686   	-7.02948e+00		         0.65667	3.00000e+00	
2.44296   	-8.01583e+00		         0.65833	3.00000e+00	
2.44934   	-8.52647e+00		         0.66000	3.00000e+00	
2.45544   	-8.79425e+00		         0.66167	3.00000e+00	
2.46155   	-8.52362e+00		         0.66333	3.00000e+00	
2.46765   	-7.99978e+00		         0.66500	3.00000e+00	
2.47403   	-7.24316e+00		         0.66667	3.00000e+00	
2.48013   	-6.55574e+00		         0.66833	4.00000e+00	
2.48624   	-5.58455e+00		         0.67000	4.00000e+00	
2.49234   	-4.63370e+00		         0.67167	5.00000e+00	
2.49872   	-3.91166e+00		         0.67333	6.00000e+00	
2.50483   	-3.33932e+00		         0.67500	6.00000e+00	
2.51093   	-2.68876e+00		         0.67667	7.00000e+00	
2.51703   	-2.23965e+00		         0.67833	8.00000e+00	
2.52341   	-1.77248e+00		         0.68000	8.00000e+00	
2.52951   	-1.33546e+00		         0.68167	9.00000e+00	
2.53562   	-7.06526e-01		         0.68333	9.00000e+00	
2.54172   	-1.48803e-01		         0.68500	1.00000e+01	
2.54810   	2.90458e-01		         0.68667	1.00000e+01	
2.55420   	4.89760e-01		         0.68833	1.10000e+01	
2.56031   	8.45534e-01		         0.69000	1.20000e+01	
			         0.69167	1.30000e+01	
			         0.69333	1.30000e+01	
			         0.69500	1.40000e+01	
			         0.69667	1.50000e+01	
			         0.69833	1.60000e+01	
			         0.70000	1.70000e+01	
			         0.70167	1.80000e+01	
			         0.70333	1.80000e+01	
			         0.70500	1.90000e+01	
			         0.70667	1.90000e+01	
			         0.70833	1.80000e+01	
			         0.71000	1.80000e+01	
			         0.71167	1.80000e+01	
			         0.71333	1.70000e+01	
			         0.71500	1.60000e+01	
			         0.71667	1.50000e+01	
			         0.71833	1.40000e+01	
			         0.72000	1.30000e+01	
			         0.72167	1.20000e+01	
			         0.72333	1.10000e+01	
			         0.72500	1.00000e+01	
			         0.72667	9.00000e+00	
			         0.72833	8.00000e+00	
			         0.73000	6.00000e+00	
			         0.73167	5.00000e+00	
			         0.73333	3.00000e+00	
			         0.73500	1.00000e+00	
			         0.73667	-1.00000e+00	
			         0.73833	-3.00000e+00	
			         0.74000	-5.00000e+00	
			         0.74167	-7.00000e+00	
			         0.74333	-9.00000e+00	
			         0.74500	-1.10000e+01	
			         0.74667	-1.30000e+01	
			         0.74833	-1.50000e+01	
			         0.75000	-1.70000e+01	
			         0.75167	-1.80000e+01	
			         0.75333	-1.90000e+01	
			         0.75500	-1.90000e+01	
			         0.75667	-2.00000e+01	
			         0.75833	-2.00000e+01	
			         0.76000	-2.00000e+01	
			         0.76167	-2.00000e+01	
			         0.76333	-2.00000e+01	
			         0.76500	-2.00000e+01	
			         0.76667	-2.00000e+01	
			         0.76833	-1.90000e+01	
			         0.77000	-1.90000e+01	
			         0.77167	-1.90000e+01	
			         0.77333	-1.80000e+01	
			         0.77500	-1.80000e+01	
			         0.77667	-1.80000e+01	
			         0.77833	-1.80000e+01	
			         0.78000	-1.80000e+01	
			         0.78167	-1.70000e+01	
			         0.78333	-1.70000e+01	
			         0.78500	-1.60000e+01	
			         0.78667	-1.60000e+01	
			         0.78833	-1.50000e+01	
			         0.79000	-1.50000e+01	
			         0.79167	-1.40000e+01	
			         0.79333	-1.40000e+01	
			         0.79500	-1.40000e+01	
			         0.79667	-1.30000e+01	
			         0.79833	-1.30000e+01	
			         0.80000	-1.30000e+01	
			         0.80167	-1.30000e+01	
			         0.80333	-1.40000e+01	
			         0.80500	-1.50000e+01	
			         0.80667	-1.70000e+01	
			         0.80833	-1.90000e+01	
			         0.81000	-2.20000e+01	
			         0.81167	-2.60000e+01	
			         0.81333	-3.10000e+01	
			         0.81500	-3.50000e+01	
			         0.81667	-4.00000e+01	
			         0.81833	-4.50000e+01	
			         0.82000	-4.90000e+01	
			         0.82167	-5.20000e+01	
			         0.82333	-5.30000e+01	
			         0.82500	-5.10000e+01	
			         0.82667	-4.70000e+01	
			         0.82833	-4.00000e+01	
			         0.83000	-2.80000e+01	
			         0.83167	-1.30000e+01	
			         0.83333	7.00000e+00	
			         0.83500	3.00000e+01	
			         0.83667	5.80000e+01	
			         0.83833	8.80000e+01	
			         0.84000	1.21000e+02	
			         0.84167	1.54000e+02	
			         0.84333	1.88000e+02	
			         0.84500	2.20000e+02	
			         0.84667	2.49000e+02	
			         0.84833	2.74000e+02	
			         0.85000	2.95000e+02	
			         0.85167	3.10000e+02	
			         0.85333	3.20000e+02	
			         0.85500	3.23000e+02	
			         0.85667	3.20000e+02	
			         0.85833	3.10000e+02	
			         0.86000	2.96000e+02	
			         0.86167	2.76000e+02	
			         0.86333	2.53000e+02	
			         0.86500	2.27000e+02	
			         0.86667	1.99000e+02	
			         0.86833	1.70000e+02	
			         0.87000	1.40000e+02	
			         0.87167	1.12000e+02	
			         0.87333	8.40000e+01	
			         0.87500	5.80000e+01	
			         0.87667	3.30000e+01	
			         0.87833	1.10000e+01	
			         0.88000	-1.00000e+01	
			         0.88167	-2.80000e+01	
			         0.88333	-4.30000e+01	
			         0.88500	-5.70000e+01	
			         0.88667	-6.80000e+01	
			         0.88833	-7.70000e+01	
			         0.89000	-8.40000e+01	
			         0.89167	-9.00000e+01	
			         0.89333	-9.50000e+01	
			         0.89500	-9.80000e+01	
			         0.89667	-1.00000e+02	
			         0.89833	-1.02000e+02	
			         0.90000	-1.02000e+02	
			         0.90167	-1.02000e+02	
			         0.90333	-1.02000e+02	
			         0.90500	-1.01000e+02	
			         0.90667	-9.90000e+01	
			         0.90833	-9.70000e+01	
			         0.91000	-9.50000e+01	
			         0.91167	-9.20000e+01	
			         0.91333	-9.00000e+01	
			         0.91500	-8.70000e+01	
			         0.91667	-8.40000e+01	
			         0.91833	-8.10000e+01	
			         0.92000	-7.80000e+01	
			         0.92167	-7.50000e+01	
			         0.92333	-7.30000e+01	
			         0.92500	-7.10000e+01	
			         0.92667	-6.90000e+01	
			         0.92833	-6.70000e+01	
			         0.93000	-6.50000e+01	
			         0.93167	-6.40000e+01	
			         0.93333	-6.20000e+01	
			         0.93500	-6.10000e+01	
			         0.93667	-6.00000e+01	
			         0.93833	-5.90000e+01	
			         0.94000	-5.80000e+01	
			         0.94167	-5.70000e+01	
			         0.94333	-5.60000e+01	
			         0.94500	-5.50000e+01	
			         0.94667	-5.40000e+01	
			         0.94833	-5.30000e+01	
			         0.95000	-5.20000e+01	
			         0.95167	-5.00000e+01	
			         0.95333	-4.90000e+01	
			         0.95500	-4.80000e+01	
			         0.95667	-4.80000e+01	
			         0.95833	-4.70000e+01	
			         0.96000	-4.60000e+01	
			         0.96167	-4.50000e+01	
			         0.96333	-4.40000e+01	
			         0.96500	-4.30000e+01	
			         0.96667	-4.20000e+01	
			         0.96833	-4.10000e+01	
			         0.97000	-4.00000e+01	
			         0.97167	-3.90000e+01	
			         0.97333	-3.80000e+01	
			         0.97500	-3.70000e+01	
			         0.97667	-3.60000e+01	
			         0.97833	-3.50000e+01	
			         0.98000	-3.40000e+01	
			         0.98167	-3.20000e+01	
			         0.98333	-3.10000e+01	
			         0.98500	-3.00000e+01	
			         0.98667	-2.90000e+01	
			         0.98833	-2.80000e+01	
			         0.99000	-2.70000e+01	
			         0.99167	-2.60000e+01	
			         0.99333	-2.50000e+01	
			         0.99500	-2.40000e+01	
			         0.99667	-2.40000e+01	
			         0.99833	-2.30000e+01	
			         1.00000	-2.20000e+01	
			         1.00167	-2.20000e+01	
			         1.00333	-2.20000e+01	
			         1.00500	-2.10000e+01	
			         1.00667	-2.00000e+01	
			         1.00833	-2.00000e+01	
			         1.01000	-1.90000e+01	
			         1.01167	-1.80000e+01	
			         1.01333	-1.70000e+01	
			         1.01500	-1.60000e+01	
			         1.01667	-1.40000e+01	
			         1.01833	-1.30000e+01	
			         1.02000	-1.20000e+01	
			         1.02167	-1.10000e+01	
			         1.02333	-1.00000e+01	
			         1.02500	-9.00000e+00	
			         1.02667	-9.00000e+00	
			         1.02833	-8.00000e+00	
			         1.03000	-8.00000e+00	
			         1.03167	-7.00000e+00	
			         1.03333	-7.00000e+00	
			         1.03500	-7.00000e+00	
			         1.03667	-7.00000e+00	
			         1.03833	-7.00000e+00	
			         1.04000	-6.00000e+00	
			         1.04167	-6.00000e+00	
			         1.04333	-6.00000e+00	
			         1.04500	-6.00000e+00	
			         1.04667	-5.00000e+00	
			         1.04833	-5.00000e+00	
			         1.05000	-4.00000e+00	
			         1.05167	-3.00000e+00	
			         1.05333	-2.00000e+00	
			         1.05500	-1.00000e+00	
			         1.05667	0.00000e+00	
			         1.05833	1.00000e+00	
			         1.06000	3.00000e+00	
			         1.06167	4.00000e+00	
			         1.06333	5.00000e+00	
			         1.06500	7.00000e+00	
			         1.06667	8.00000e+00	
			         1.06833	9.00000e+00	
			         1.07000	9.00000e+00	
			         1.07167	1.00000e+01	
			         1.07333	1.10000e+01	
			         1.07500	1.10000e+01	
			         1.07667	1.20000e+01	
			         1.07833	1.20000e+01	
			         1.08000	1.30000e+01	
			         1.08167	1.30000e+01	
			         1.08333	1.30000e+01	
			         1.08500	1.30000e+01	
			         1.08667	1.40000e+01	
			         1.08833	1.40000e+01	
			         1.09000	1.50000e+01	
			         1.09167	1.50000e+01	
			         1.09333	1.60000e+01	
			         1.09500	1.60000e+01	
			         1.09667	1.70000e+01	
			         1.09833	1.70000e+01	
			         1.10000	1.70000e+01	
			         1.10167	1.80000e+01	
			         1.10333	1.80000e+01	
			         1.10500	1.90000e+01	
			         1.10667	1.90000e+01	
			         1.10833	2.00000e+01	
			         1.11000	2.00000e+01	
			         1.11167	2.10000e+01	
			         1.11333	2.20000e+01	
			         1.11500	2.30000e+01	
			         1.11667	2.30000e+01	
			         1.11833	2.40000e+01	
			         1.12000	2.50000e+01	
			         1.12167	2.50000e+01	
			         1.12333	2.50000e+01	
			         1.12500	2.60000e+01	
			         1.12667	2.60000e+01	
			         1.12833	2.60000e+01	
			         1.13000	2.50000e+01	
			         1.13167	2.50000e+01	
			         1.13333	2.40000e+01	
			         1.13500	2.30000e+01	
			         1.13667	2.30000e+01	
			         1.13833	2.20000e+01	
			         1.14000	2.20000e+01	
			         1.14167	2.20000e+01	
			         1.14333	2.10000e+01	
			         1.14500	2.10000e+01	
			         1.14667	2.00000e+01	
			         1.14833	2.00000e+01	
			         1.15000	1.90000e+01	
			         1.15167	1.80000e+01	
			         1.15333	1.70000e+01	
			         1.15500	1.50000e+01	
			         1.15667	1.40000e+01	
			         1.15833	1.20000e+01	
			         1.16000	1.00000e+01	
			         1.16167	7.00000e+00	
			         1.16333	5.00000e+00	
			         1.16500	3.00000e+00	
			         1.16667	1.00000e+00	
			         1.16833	-1.00000e+00	
			         1.17000	-3.00000e+00	
			         1.17167	-5.00000e+00	
			         1.17333	-6.00000e+00	
			         1.17500	-8.00000e+00	
			         1.17667	-1.00000e+01	
			         1.17833	-1.10000e+01	
			         1.18000	-1.20000e+01	
			         1.18167	-1.30000e+01	
			         1.18333	-1.30000e+01	
			         1.18500	-1.30000e+01	
			         1.18667	-1.40000e+01	
			         1.18833	-1.40000e+01	
			         1.19000	-1.40000e+01	
			         1.19167	-1.40000e+01	
			         1.19333	-1.40000e+01	
			         1.19500	-1.30000e+01	
			         1.19667	-1.30000e+01	
			         1.19833	-1.30000e+01	
			         1.20000	-1.30000e+01	
			         1.20167	-1.30000e+01	
			         1.20333	-1.30000e+01	
			         1.20500	-1.30000e+01	
			         1.20667	-1.30000e+01	
			         1.20833	-1.30000e+01	
			         1.21000	-1.30000e+01	
			         1.21167	-1.40000e+01	
			         1.21333	-1.40000e+01	
			         1.21500	-1.40000e+01	
			         1.21667	-1.40000e+01	
			         1.21833	-1.50000e+01	
			         1.22000	-1.50000e+01	
			         1.22167	-1.60000e+01	
			         1.22333	-1.70000e+01	
			         1.22500	-1.70000e+01	
			         1.22667	-1.70000e+01	
			         1.22833	-1.80000e+01	
			         1.23000	-1.70000e+01	
			         1.23167	-1.70000e+01	
			         1.23333	-1.60000e+01	
			         1.23500	-1.50000e+01	
			         1.23667	-1.40000e+01	
			         1.23833	-1.30000e+01	
			         1.24000	-1.10000e+01	
			         1.24167	-1.00000e+01	
			         1.24333	-8.00000e+00	
			         1.24500	-7.00000e+00	
			         1.24667	-6.00000e+00	
			         1.24833	-5.00000e+00	
			         1.25000	-5.00000e+00	
			         1.25167	-4.00000e+00	
			         1.25333	-4.00000e+00	
			         1.25500	-4.00000e+00	
			         1.25667	-4.00000e+00	
			         1.25833	-5.00000e+00	
			         1.26000	-6.00000e+00	
			         1.26167	-6.00000e+00	
			         1.26333	-7.00000e+00	
			         1.26500	-8.00000e+00	
			         1.26667	-8.00000e+00	
			         1.26833	-9.00000e+00	
			         1.27000	-9.00000e+00	
			         1.27167	-1.00000e+01	
			         1.27333	-1.00000e+01	
			         1.27500	-1.00000e+01	
			         1.27667	-1.10000e+01	
			         1.27833	-1.10000e+01	
			         1.28000	-1.10000e+01	
			         1.28167	-1.10000e+01	
			         1.28333	-1.10000e+01	
			         1.28500	-1.10000e+01	
			         1.28667	-1.00000e+01	
			         1.28833	-1.00000e+01	
			         1.29000	-1.00000e+01	
			         1.29167	-9.00000e+00	
			         1.29333	-9.00000e+00	
			         1.29500	-9.00000e+00	
			         1.29667	-8.00000e+00	
			         1.29833	-8.00000e+00	
			         1.30000	-8.00000e+00	
			         1.30167	-8.00000e+00	
			         1.30333	-8.00000e+00	
			         1.30500	-8.00000e+00	
			         1.30667	-8.00000e+00	
			         1.30833	-9.00000e+00	
			         1.31000	-9.00000e+00	
			         1.31167	-9.00000e+00	
			         1.31333	-1.00000e+01	
			         1.31500	-1.00000e+01	
			         1.31667	-1.10000e+01	
			         1.31833	-1.10000e+01	
			         1.32000	-1.20000e+01	
			         1.32167	-1.20000e+01	
			         1.32333	-1.20000e+01	
			         1.32500	-1.20000e+01	
			         1.32667	-1.20000e+01	
			         1.32833	-1.20000e+01	
			         1.33000	-1.10000e+01	
			         1.33167	-1.10000e+01	
			         1.33333	-1.10000e+01	
			         1.33500	-1.10000e+01	
			         1.33667	-1.00000e+01	
			         1.33833	-1.00000e+01	
			         1.34000	-1.00000e+01	
			         1.34167	-1.00000e+01	
			         1.34333	-9.00000e+00	
			         1.34500	-9.00000e+00	
			         1.34667	-9.00000e+00	
			         1.34833	-8.00000e+00	
			         1.35000	-8.00000e+00	
			         1.35167	-8.00000e+00	
			         1.35333	-8.00000e+00	
			         1.35500	-8.00000e+00	
			         1.35667	-8.00000e+00	
			         1.35833	-7.00000e+00	
			         1.36000	-7.00000e+00	
			         1.36167	-7.00000e+00	
			         1.36333	-7.00000e+00	
			         1.36500	-7.00000e+00	
			         1.36667	-6.00000e+00	
			         1.36833	-6.00000e+00	
			         1.37000	-5.00000e+00	
			         1.37167	-5.00000e+00	
			         1.37333	-4.00000e+00	
			         1.37500	-4.00000e+00	
			         1.37667	-3.00000e+00	
			         1.37833	-2.00000e+00	
			         1.38000	-2.00000e+00	
			         1.38167	-1.00000e+00	
			         1.38333	-1.00000e+00	
			         1.38500	0.00000e+00	
			         1.38667	0.00000e+00	
			         1.38833	0.00000e+00	
			         1.39000	0.00000e+00	
			         1.39167	-1.00000e+00	
			         1.39333	-1.00000e+00	
			         1.39500	-1.00000e+00	
			         1.39667	-2.00000e+00	
			         1.39833	-2.00000e+00	
			         1.40000	-3.00000e+00	
			         1.40167	-3.00000e+00	
			         1.40333	-4.00000e+00	
			         1.40500	-4.00000e+00	
			         1.40667	-4.00000e+00	
			         1.40833	-4.00000e+00	
			         1.41000	-4.00000e+00	
			         1.41167	-3.00000e+00	
			         1.41333	-3.00000e+00	
			         1.41500	-2.00000e+00	
			         1.41667	-1.00000e+00	
			         1.41833	-1.00000e+00	
			         1.42000	0.00000e+00	
			         1.42167	0.00000e+00	
			         1.42333	0.00000e+00	
			         1.42500	1.00000e+00	
			         1.42667	1.00000e+00	
			         1.42833	2.00000e+00	
			         1.43000	2.00000e+00	
			         1.43167	2.00000e+00	
			         1.43333	2.00000e+00	
			         1.43500	2.00000e+00	
			         1.43667	2.00000e+00	
			         1.43833	2.00000e+00	
			         1.44000	2.00000e+00	
			         1.44167	2.00000e+00	
			         1.44333	2.00000e+00	
			         1.44500	1.00000e+00	
			         1.44667	1.00000e+00	
			         1.44833	0.00000e+00	
			         1.45000	0.00000e+00	
			         1.45167	-1.00000e+00	
			         1.45333	-1.00000e+00	
			         1.45500	-2.00000e+00	
			         1.45667	-3.00000e+00	
			         1.45833	-4.00000e+00	
			         1.46000	-4.00000e+00	
			         1.46167	-5.00000e+00	
			         1.46333	-5.00000e+00	
			         1.46500	-6.00000e+00	
			         1.46667	-6.00000e+00	
			         1.46833	-7.00000e+00	
			         1.47000	-7.00000e+00	
			         1.47167	-7.00000e+00	
			         1.47333	-8.00000e+00	
			         1.47500	-8.00000e+00	
			         1.47667	-7.00000e+00	
			         1.47833	-7.00000e+00	
			         1.48000	-6.00000e+00	
			         1.48167	-6.00000e+00	
			         1.48333	-5.00000e+00	
			         1.48500	-4.00000e+00	
			         1.48667	-3.00000e+00	
			         1.48833	-2.00000e+00	
			         1.49000	-2.00000e+00	
			         1.49167	-1.00000e+00	
			         1.49333	-1.00000e+00	
			         1.49500	-1.00000e+00	
			         1.49667	-1.00000e+00	
			         1.49833	-1.00000e+00	
			         1.50000	-1.00000e+00	
			         1.50167	-1.00000e+00	
			         1.50333	-2.00000e+00	
			         1.50500	-2.00000e+00	
			         1.50667	-2.00000e+00	
			         1.50833	-2.00000e+00	
			         1.51000	-1.00000e+00	
			         1.51167	0.00000e+00	
			         1.51333	0.00000e+00	
			         1.51500	2.00000e+00	
			         1.51667	3.00000e+00	
			         1.51833	4.00000e+00	
			         1.52000	6.00000e+00	
			         1.52167	8.00000e+00	
			         1.52333	9.00000e+00	
			         1.52500	1.10000e+01	
			         1.52667	1.20000e+01	
			         1.52833	1.40000e+01	
			         1.53000	1.50000e+01	
			         1.53167	1.60000e+01	
			         1.53333	1.70000e+01	
			         1.53500	1.80000e+01	
			         1.53667	1.80000e+01	
			         1.53833	1.90000e+01	
			         1.54000	1.90000e+01	
			         1.54167	1.90000e+01	
			         1.54333	1.80000e+01	
			         1.54500	1.80000e+01	
			         1.54667	1.70000e+01	
			         1.54833	1.70000e+01	
			         1.55000	1.70000e+01	
			         1.55167	1.60000e+01	
			         1.55333	1.60000e+01	
			         1.55500	1.50000e+01	
			         1.55667	1.40000e+01	
			         1.55833	1.30000e+01	
			         1.56000	1.20000e+01	
			         1.56167	1.10000e+01	
			         1.56333	1.00000e+01	
			         1.56500	8.00000e+00	
			         1.56667	7.00000e+00	
			         1.56833	5.00000e+00	
			         1.57000	3.00000e+00	
			         1.57167	1.00000e+00	
			         1.57333	-1.00000e+00	
			         1.57500	-4.00000e+00	
			         1.57667	-6.00000e+00	
			         1.57833	-9.00000e+00	
			         1.58000	-1.10000e+01	
			         1.58167	-1.30000e+01	
			         1.58333	-1.50000e+01	
			         1.58500	-1.70000e+01	
			         1.58667	-1.80000e+01	
			         1.58833	-1.90000e+01	
			         1.59000	-2.00000e+01	
			         1.59167	-2.00000e+01	
			         1.59333	-2.10000e+01	
			         1.59500	-2.10000e+01	
			         1.59667	-2.10000e+01	
			         1.59833	-2.10000e+01	
			         1.60000	-2.00000e+01	
			         1.60167	-2.00000e+01	
			         1.60333	-1.90000e+01	
			         1.60500	-1.90000e+01	
			         1.60667	-1.80000e+01	
			         1.60833	-1.70000e+01	
			         1.61000	-1.60000e+01	
			         1.61167	-1.50000e+01	
			         1.61333	-1.50000e+01	
			         1.61500	-1.40000e+01	
			         1.61667	-1.40000e+01	
			         1.61833	-1.30000e+01	
			         1.62000	-1.30000e+01	
			         1.62167	-1.30000e+01	
			         1.62333	-1.30000e+01	
			         1.62500	-1.40000e+01	
			         1.62667	-1.40000e+01	
			         1.62833	-1.40000e+01	
			         1.63000	-1.50000e+01	
			         1.63167	-1.50000e+01	
			         1.63333	-1.50000e+01	
			         1.63500	-1.50000e+01	
			         1.63667	-1.40000e+01	
			         1.63833	-1.40000e+01	
			         1.64000	-1.40000e+01	
			         1.64167	-1.40000e+01	
			         1.64333	-1.50000e+01	
			         1.64500	-1.70000e+01	
			         1.64667	-1.90000e+01	
			         1.64833	-2.20000e+01	
			         1.65000	-2.60000e+01	
			         1.65167	-3.00000e+01	
			         1.65333	-3.60000e+01	
			         1.65500	-4.10000e+01	
			         1.65667	-4.70000e+01	
			         1.65833	-5.10000e+01	
			         1.66000	-5.50000e+01	
			         1.66167	-5.70000e+01	
			         1.66333	-5.70000e+01	
			         1.66500	-5.30000e+01	
			         1.66667	-4.60000e+01	
			         1.66833	-3.50000e+01	
			         1.67000	-1.90000e+01	
			         1.67167	1.00000e+00	
			         1.67333	2.50000e+01	
			         1.67500	5.30000e+01	
			         1.67667	8.50000e+01	
			         1.67833	1.19000e+02	
			         1.68000	1.53000e+02	
			         1.68167	1.88000e+02	
			         1.68333	2.21000e+02	
			         1.68500	2.52000e+02	
			         1.68667	2.78000e+02	
			         1.68833	2.99000e+02	
			         1.69000	3.15000e+02	
			         1.69167	3.24000e+02	
			         1.69333	3.27000e+02	
			         1.69500	3.23000e+02	
			         1.69667	3.14000e+02	
			         1.69833	2.99000e+02	
			         1.70000	2.79000e+02	
			         1.70167	2.56000e+02	
			         1.70333	2.30000e+02	
			         1.70500	2.02000e+02	
			         1.70667	1.73000e+02	
			         1.70833	1.45000e+02	
			         1.71000	1.17000e+02	
			         1.71167	9.00000e+01	
			         1.71333	6.40000e+01	
			         1.71500	4.00000e+01	
			         1.71667	1.80000e+01	
			         1.71833	-2.00000e+00	
			         1.72000	-2.00000e+01	
			         1.72167	-3.60000e+01	
			         1.72333	-4.90000e+01	
			         1.72500	-6.10000e+01	
			         1.72667	-7.10000e+01	
			         1.72833	-8.00000e+01	
			         1.73000	-8.60000e+01	
			         1.73167	-9.10000e+01	
			         1.73333	-9.50000e+01	
			         1.73500	-9.80000e+01	
			         1.73667	-9.90000e+01	
			         1.73833	-1.00000e+02	
			         1.74000	-1.00000e+02	
			         1.74167	-9.90000e+01	
			         1.74333	-9.80000e+01	
			         1.74500	-9.60000e+01	
			         1.74667	-9.40000e+01	
			         1.74833	-9.20000e+01	
			         1.75000	-9.00000e+01	
			         1.75167	-8.80000e+01	
			         1.75333	-8.60000e+01	
			         1.75500	-8.40000e+01	
			         1.75667	-8.20000e+01	
			         1.75833	-8.00000e+01	
			         1.76000	-7.80000e+01	
			         1.76167	-7.70000e+01	
			         1.76333	-7.50000e+01	
			         1.76500	-7.40000e+01	
			         1.76667	-7.20000e+01	
			         1.76833	-7.10000e+01	
			         1.77000	-6.90000e+01	
			         1.77167	-6.80000e+01	
			         1.77333	-6.60000e+01	
			         1.77500	-6.40000e+01	
			         1.77667	-6.20000e+01	
			         1.77833	-6.00000e+01	
			         1.78000	-5.80000e+01	
			         1.78167	-5.50000e+01	
			         1.78333	-5.30000e+01	
			         1.78500	-5.10000e+01	
			         1.78667	-4.90000e+01	
			         1.78833	-4.70000e+01	
			         1.79000	-4.50000e+01	
			         1.79167	-4.40000e+01	
			         1.79333	-4.20000e+01	
			         1.79500	-4.10000e+01	
			         1.79667	-4.00000e+01	
			         1.79833	-3.90000e+01	
			         1.80000	-3.80000e+01	
			         1.80167	-3.80000e+01	
			         1.80333	-3.70000e+01	
			         1.80500	-3.70000e+01	
			         1.80667	-3.60000e+01	
			         1.80833	-3.60000e+01	
			         1.81000	-3.60000e+01	
			         1.81167	-3.60000e+01	
			         1.81333	-3.50000e+01	
			         1.81500	-3.50000e+01	
			         1.81667	-3.40000e+01	
			         1.81833	-3.30000e+01	
			         1.82000	-3.30000e+01	
			         1.82167	-3.20000e+01	
			         1.82333	-3.10000e+01	
			         1.82500	-3.00000e+01	
			         1.82667	-2.90000e+01	
			         1.82833	-2.80000e+01	
			         1.83000	-2.70000e+01	
			         1.83167	-2.60000e+01	
			         1.83333	-2.60000e+01	
			         1.83500	-2.50000e+01	
			         1.83667	-2.40000e+01	
			         1.83833	-2.30000e+01	
			         1.84000	-2.30000e+01	
			         1.84167	-2.20000e+01	
			         1.84333	-2.20000e+01	
			         1.84500	-2.10000e+01	
			         1.84667	-2.10000e+01	
			         1.84833	-2.00000e+01	
			         1.85000	-1.90000e+01	
			         1.85167	-1.80000e+01	
			         1.85333	-1.70000e+01	
			         1.85500	-1.60000e+01	
			         1.85667	-1.50000e+01	
			         1.85833	-1.40000e+01	
			         1.86000	-1.30000e+01	
			         1.86167	-1.20000e+01	
			         1.86333	-1.00000e+01	
			         1.86500	-9.00000e+00	
			         1.86667	-9.00000e+00	
			         1.86833	-8.00000e+00	
			         1.87000	-7.00000e+00	
			         1.87167	-7.00000e+00	
			         1.87333	-6.00000e+00	
			         1.87500	-6.00000e+00	
			         1.87667	-5.00000e+00	
			         1.87833	-4.00000e+00	
			         1.88000	-4.00000e+00	
			         1.88167	-3.00000e+00	
			         1.88333	-2.00000e+00	
			         1.88500	-1.00000e+00	
			         1.88667	0.00000e+00	
			         1.88833	1.00000e+00	
			         1.89000	1.00000e+00	
			         1.89167	2.00000e+00	
			         1.89333	3.00000e+00	
			         1.89500	4.00000e+00	
			         1.89667	5.00000e+00	
			         1.89833	5.00000e+00	
			         1.90000	6.00000e+00	
			         1.90167	6.00000e+00	
			         1.90333	7.00000e+00	
			         1.90500	7.00000e+00	
			         1.90667	8.00000e+00	
			         1.90833	9.00000e+00	
			         1.91000	9.00000e+00	
			         1.91167	1.00000e+01	
			         1.91333	1.10000e+01	
			         1.91500	1.20000e+01	
			         1.91667	1.30000e+01	
			         1.91833	1.40000e+01	
			         1.92000	1.50000e+01	
			         1.92167	1.60000e+01	
			         1.92333	1.70000e+01	
			         1.92500	1.80000e+01	
			         1.92667	1.90000e+01	
			         1.92833	2.00000e+01	
			         1.93000	2.00000e+01	
			         1.93167	2.10000e+01	
			         1.93333	2.10000e+01	
			         1.93500	2.20000e+01	
			         1.93667	2.20000e+01	
			         1.93833	2.30000e+01	
			         1.94000	2.30000e+01	
			         1.94167	2.40000e+01	
			         1.94333	2.40000e+01	
			         1.94500	2.50000e+01	
			         1.94667	2.50000e+01	
			         1.94833	2.60000e+01	
			         1.95000	2.60000e+01	
			         1.95167	2.70000e+01	
			         1.95333	2.70000e+01	
			         1.95500	2.70000e+01	
			         1.95667	2.70000e+01	
			         1.95833	2.70000e+01	
			         1.96000	2.70000e+01	
			         1.96167	2.70000e+01	
			         1.96333	2.70000e+01	
			         1.96500	2.70000e+01	
			         1.96667	2.70000e+01	
			         1.96833	2.70000e+01	
			         1.97000	2.60000e+01	
			         1.97167	2.60000e+01	
			         1.97333	2.50000e+01	
			         1.97500	2.50000e+01	
			         1.97667	2.40000e+01	
			         1.97833	2.40000e+01	
			         1.98000	2.30000e+01	
			         1.98167	2.30000e+01	
			         1.98333	2.20000e+01	
			         1.98500	2.20000e+01	
			         1.98667	2.10000e+01	
			         1.98833	2.00000e+01	
			         1.99000	1.90000e+01	
			         1.99167	1.70000e+01	
			         1.99333	1.60000e+01	
			         1.99500	1.40000e+01	
			         1.99667	1.20000e+01	
			         1.99833	1.10000e+01	
			         2.00000	9.00000e+00	
			         2.00167	7.00000e+00	
			         2.00333	4.00000e+00	
			         2.00500	2.00000e+00	
			         2.00667	0.00000e+00	
			         2.00833	-2.00000e+00	
			         2.01000	-4.00000e+00	
			         2.01167	-6.00000e+00	
			         2.01333	-7.00000e+00	
			         2.01500	-9.00000e+00	
			         2.01667	-1.10000e+01	
			         2.01833	-1.30000e+01	
			         2.02000	-1.40000e+01	
			         2.02167	-1.60000e+01	
			         2.02333	-1.70000e+01	
			         2.02500	-1.80000e+01	
			         2.02667	-1.90000e+01	
			         2.02833	-1.90000e+01	
			         2.03000	-2.00000e+01	
			         2.03167	-2.10000e+01	
			         2.03333	-2.10000e+01	
			         2.03500	-2.10000e+01	
			         2.03667	-2.20000e+01	
			         2.03833	-2.20000e+01	
			         2.04000	-2.20000e+01	
			         2.04167	-2.20000e+01	
			         2.04333	-2.20000e+01	
			         2.04500	-2.30000e+01	
			         2.04667	-2.30000e+01	
			         2.04833	-2.40000e+01	
			         2.05000	-2.40000e+01	
			         2.05167	-2.40000e+01	
			         2.05333	-2.40000e+01	
			         2.05500	-2.40000e+01	
			         2.05667	-2.40000e+01	
			         2.05833	-2.30000e+01	
			         2.06000	-2.30000e+01	
			         2.06167	-2.30000e+01	
			         2.06333	-2.20000e+01	
			         2.06500	-2.20000e+01	
			         2.06667	-2.10000e+01	
			         2.06833	-2.00000e+01	
			         2.07000	-1.90000e+01	
			         2.07167	-1.80000e+01	
			         2.07333	-1.70000e+01	
			         2.07500	-1.60000e+01	
			         2.07667	-1.50000e+01	
			         2.07833	-1.50000e+01	
			         2.08000	-1.40000e+01	
			         2.08167	-1.40000e+01	
			         2.08333	-1.40000e+01	
			         2.08500	-1.40000e+01	
			         2.08667	-1.40000e+01	
			         2.08833	-1.40000e+01	
			         2.09000	-1.40000e+01	
			         2.09167	-1.40000e+01	
			         2.09333	-1.50000e+01	
			         2.09500	-1.50000e+01	
			         2.09667	-1.50000e+01	
			         2.09833	-1.50000e+01	
			         2.10000	-1.50000e+01	
			         2.10167	-1.50000e+01	
			         2.10333	-1.50000e+01	
			         2.10500	-1.50000e+01	
			         2.10667	-1.40000e+01	
			         2.10833	-1.40000e+01	
			         2.11000	-1.40000e+01	
			         2.11167	-1.40000e+01	
			         2.11333	-1.40000e+01	
			         2.11500	-1.40000e+01	
			         2.11667	-1.40000e+01	
			         2.11833	-1.40000e+01	
			         2.12000	-1.40000e+01	
			         2.12167	-1.40000e+01	
			         2.12333	-1.30000e+01	
			         2.12500	-1.30000e+01	
			         2.12667	-1.30000e+01	
			         2.12833	-1.30000e+01	
			         2.13000	-1.30000e+01	
			         2.13167	-1.20000e+01	
			         2.13333	-1.20000e+01	
			         2.13500	-1.20000e+01	
			         2.13667	-1.20000e+01	
			         2.13833	-1.20000e+01	
			         2.14000	-1.20000e+01	
			         2.14167	-1.20000e+01	
			         2.14333	-1.20000e+01	
			         2.14500	-1.20000e+01	
			         2.14667	-1.20000e+01	
			         2.14833	-1.20000e+01	
			         2.15000	-1.20000e+01	
			         2.15167	-1.20000e+01	
			         2.15333	-1.20000e+01	
			         2.15500	-1.20000e+01	
			         2.15667	-1.30000e+01	
			         2.15833	-1.30000e+01	
			         2.16000	-1.40000e+01	
			         2.16167	-1.40000e+01	
			         2.16333	-1.50000e+01	
			         2.16500	-1.50000e+01	
			         2.16667	-1.60000e+01	
			         2.16833	-1.60000e+01	
			         2.17000	-1.60000e+01	
			         2.17167	-1.60000e+01	
			         2.17333	-1.50000e+01	
			         2.17500	-1.50000e+01	
			         2.17667	-1.40000e+01	
			         2.17833	-1.30000e+01	
			         2.18000	-1.20000e+01	
			         2.18167	-1.10000e+01	
			         2.18333	-1.00000e+01	
			         2.18500	-9.00000e+00	
			         2.18667	-9.00000e+00	
			         2.18833	-8.00000e+00	
			         2.19000	-8.00000e+00	
			         2.19167	-7.00000e+00	
			         2.19333	-7.00000e+00	
			         2.19500	-7.00000e+00	
			         2.19667	-7.00000e+00	
			         2.19833	-7.00000e+00	
			         2.20000	-6.00000e+00	
			         2.20167	-6.00000e+00	
			         2.20333	-6.00000e+00	
			         2.20500	-6.00000e+00	
			         2.20667	-5.00000e+00	
			         2.20833	-5.00000e+00	
			         2.21000	-4.00000e+00	
			         2.21167	-4.00000e+00	
			         2.21333	-3.00000e+00	
			         2.21500	-2.00000e+00	
			         2.21667	-2.00000e+00	
			         2.21833	-1.00000e+00	
			         2.22000	-1.00000e+00	
			         2.22167	0.00000e+00	
			         2.22333	0.00000e+00	
			         2.22500	0.00000e+00	
			         2.22667	0.00000e+00	
			         2.22833	0.00000e+00	
			         2.23000	0.00000e+00	
			         2.23167	0.00000e+00	
			         2.23333	-1.00000e+00	
			         2.23500	-1.00000e+00	
			         2.23667	-2.00000e+00	
			         2.23833	-2.00000e+00	
			         2.24000	-2.00000e+00	
			         2.24167	-2.00000e+00	
			         2.24333	-2.00000e+00	
			         2.24500	-2.00000e+00	
			         2.24667	-2.00000e+00	
			         2.24833	-1.00000e+00	
			         2.25000	-1.00000e+00	
			         2.25167	-1.00000e+00	
			         2.25333	-1.00000e+00	
			         2.25500	-1.00000e+00	
			         2.25667	-1.00000e+00	
			         2.25833	-1.00000e+00	
			         2.26000	-1.00000e+00	
			         2.26167	-1.00000e+00	
			         2.26333	-1.00000e+00	
			         2.26500	-1.00000e+00	
			         2.26667	-1.00000e+00	
			         2.26833	-1.00000e+00	
			         2.27000	0.00000e+00	
			         2.27167	0.00000e+00	
			         2.27333	0.00000e+00	
			         2.27500	1.00000e+00	
			         2.27667	1.00000e+00	
			         2.27833	2.00000e+00	
			         2.28000	2.00000e+00	
			         2.28167	3.00000e+00	
			         2.28333	3.00000e+00	
			         2.28500	4.00000e+00	
			         2.28667	4.00000e+00	
			         2.28833	4.00000e+00	
			         2.29000	4.00000e+00	
			         2.29167	4.00000e+00	
			         2.29333	4.00000e+00	
			         2.29500	3.00000e+00	
			         2.29667	3.00000e+00	
			         2.29833	3.00000e+00	
			         2.30000	3.00000e+00	
			         2.30167	2.00000e+00	
			         2.30333	1.00000e+00	
			         2.30500	1.00000e+00	
			         2.30667	0.00000e+00	
			         2.30833	-1.00000e+00	
			         2.31000	-2.00000e+00	
			         2.31167	-2.00000e+00	
			         2.31333	-3.00000e+00	
			         2.31500	-3.00000e+00	
			         2.31667	-3.00000e+00	
			         2.31833	-4.00000e+00	
			         2.32000	-4.00000e+00	
			         2.32167	-3.00000e+00	
			         2.32333	-3.00000e+00	
			         2.32500	-3.00000e+00	
			         2.32667	-2.00000e+00	
			         2.32833	-2.00000e+00	
			         2.33000	-1.00000e+00	
			         2.33167	-1.00000e+00	
			         2.33333	-1.00000e+00	
			         2.33500	-1.00000e+00	
			         2.33667	-1.00000e+00	
			         2.33833	-1.00000e+00	
			         2.34000	-1.00000e+00	
			         2.34167	-1.00000e+00	
			         2.34333	-1.00000e+00	
			         2.34500	-1.00000e+00	
			         2.34667	-1.00000e+00	
			         2.34833	-1.00000e+00	
			         2.35000	-1.00000e+00	
			         2.35167	0.00000e+00	
			         2.35333	0.00000e+00	
			         2.35500	0.00000e+00	
			         2.35667	1.00000e+00	
			         2.35833	2.00000e+00	
			         2.36000	3.00000e+00	
			         2.36167	4.00000e+00	
			         2.36333	5.00000e+00	
			         2.36500	6.00000e+00	
			         2.36667	7.00000e+00	
			         2.36833	9.00000e+00	
			         2.37000	1.00000e+01	
			         2.37167	1.20000e+01	
			         2.37333	1.30000e+01	
			         2.37500	1.50000e+01	
			         2.37667	1.60000e+01	
			         2.37833	1.60000e+01	
			         2.38000	1.70000e+01	
			         2.38167	1.80000e+01	
			         2.38333	1.90000e+01	
			         2.38500	1.90000e+01	
			         2.38667	2.00000e+01	
			         2.38833	2.10000e+01	
			         2.39000	2.10000e+01	
			         2.39167	2.20000e+01	
			         2.39333	2.20000e+01	
			         2.39500	2.20000e+01	
			         2.39667	2.20000e+01	
			         2.39833	2.20000e+01	
			         2.40000	2.10000e+01	
			         2.40167	2.00000e+01	
			         2.40333	1.90000e+01	
			         2.40500	1.80000e+01	
			         2.40667	1.60000e+01	
			         2.40833	1.40000e+01	
			         2.41000	1.10000e+01	
			         2.41167	9.00000e+00	
			         2.41333	7.00000e+00	
			         2.41500	6.00000e+00	
			         2.41667	4.00000e+00	
			         2.41833	3.00000e+00	
			         2.42000	2.00000e+00	
			         2.42167	0.00000e+00	
			         2.42333	-1.00000e+00	
			         2.42500	-2.00000e+00	
			         2.42667	-3.00000e+00	
			         2.42833	-4.00000e+00	
			         2.43000	-5.00000e+00	
			         2.43167	-6.00000e+00	
			         2.43333	-7.00000e+00	
			         2.43500	-9.00000e+00	
			         2.43667	-9.00000e+00	
			         2.43833	-1.00000e+01	
			         2.44000	-1.10000e+01	
			         2.44167	-1.10000e+01	
			         2.44333	-1.10000e+01	
			         2.44500	-1.10000e+01	
			         2.44667	-1.10000e+01	
			         2.44833	-1.10000e+01	
			         2.45000	-1.10000e+01	
			         2.45167	-1.10000e+01	
			         2.45333	-1.10000e+01	
			         2.45500	-1.10000e+01	
			         2.45667	-1.10000e+01	
			         2.45833	-1.20000e+01	
			         2.46000	-1.30000e+01	
			         2.46167	-1.40000e+01	
			         2.46333	-1.50000e+01	
			         2.46500	-1.60000e+01	
			         2.46667	-1.60000e+01	
			         2.46833	-1.70000e+01	
			         2.47000	-1.70000e+01	
			         2.47167	-1.70000e+01	
			         2.47333	-1.70000e+01	
			         2.47500	-1.60000e+01	
			         2.47667	-1.50000e+01	
			         2.47833	-1.50000e+01	
			         2.48000	-1.40000e+01	
			         2.48167	-1.30000e+01	
			         2.48333	-1.30000e+01	
			         2.48500	-1.20000e+01	
			         2.48667	-1.20000e+01	
			         2.48833	-1.10000e+01	
			         2.49000	-1.10000e+01	
			         2.49167	-1.20000e+01	
			         2.49333	-1.30000e+01	
			         2.49500	-1.40000e+01	
			         2.49667	-1.70000e+01	
			         2.49833	-2.00000e+01	
			         2.50000	-2.40000e+01	
			         2.50167	-2.90000e+01	
			         2.50333	-3.40000e+01	
			         2.50500	-4.00000e+01	
			         2.50667	-4.50000e+01	
			         2.50833	-5.00000e+01	
			         2.51000	-5.40000e+01	
			         2.51167	-5.70000e+01	
			         2.51333	-5.70000e+01	
			         2.51500	-5.50000e+01	
			         2.51667	-5.00000e+01	
			         2.51833	-4.00000e+01	
			         2.52000	-2.70000e+01	
			         2.52167	-1.00000e+01	
			         2.52333	1.20000e+01	
			         2.52500	3.80000e+01	
			         2.52667	6.70000e+01	
			         2.52833	9.90000e+01	
			         2.53000	1.33000e+02	
			         2.53167	1.67000e+02	
			         2.53333	2.01000e+02	
			         2.53500	2.32000e+02	
			         2.53667	2.61000e+02	
			         2.53833	2.85000e+02	
			         2.54000	3.03000e+02	
			         2.54167	3.17000e+02	
			         2.54333	3.23000e+02	
			         2.54500	3.24000e+02	
			         2.54667	3.19000e+02	
			         2.54833	3.07000e+02	
			         2.55000	2.91000e+02	
			         2.55167	2.70000e+02	
			         2.55333	2.46000e+02	
			         2.55500	2.20000e+02	
			         2.55667	1.92000e+02	
			         2.55833	1.64000e+02	
			         2.56000	1.35000e+02	
			         2.56167	1.07000e+02	
			         2.56333	8.00000e+01	
			         2.56500	5.50000e+01	
			         2.56667	3.10000e+01	
			         2.56833	9.00000e+00	
			         2.57000	-1.10000e+01	
			         2.57167	-2.90000e+01	
			         2.57333	-4.50000e+01	
			         2.57500	-5.90000e+01	
			         2.57667	-7.10000e+01	
			         2.57833	-8.00000e+01	
			         2.58000	-8.80000e+01	
			         2.58167	-9.40000e+01	
			         2.58333	-9.90000e+01	
			         2.58500	-1.02000e+02	
			         2.58667	-1.04000e+02	
			         2.58833	-1.04000e+02	
			         2.59000	-1.04000e+02	
			         2.59167	-1.03000e+02	
			         2.59333	-1.02000e+02	
