Velocity (TVI), in cm/s

Time (s) :	Trace 1 : 		Ecg : 		
0.01777   	3.72889e-01		         0.00000	-1.70000e+01	
0.02387   	5.48169e-01		         0.00167	-1.80000e+01	
0.03024   	7.63744e-01		         0.00333	-1.90000e+01	
0.03635   	8.32420e-01		         0.00500	-1.90000e+01	
0.04245   	1.03305e+00		         0.00667	-1.90000e+01	
0.04856   	1.61802e+00		         0.00833	-1.90000e+01	
0.05493   	2.27766e+00		         0.01000	-1.70000e+01	
0.06103   	2.21259e+00		         0.01167	-1.40000e+01	
0.06714   	1.30272e+00		         0.01333	-1.10000e+01	
0.07324   	3.89069e-01		         0.01500	-7.00000e+00	
0.07962   	2.14177e-01		         0.01667	-1.00000e+00	
0.08572   	6.48124e-01		         0.01833	5.00000e+00	
0.09182   	9.71360e-01		         0.02000	1.30000e+01	
0.09793   	1.40752e+00		         0.02167	2.20000e+01	
0.10431   	2.15504e+00		         0.02333	3.10000e+01	
0.11041   	2.98309e+00		         0.02500	4.20000e+01	
0.11651   	3.67235e+00		         0.02667	5.40000e+01	
0.12262   	4.13578e+00		         0.02833	6.60000e+01	
0.12899   	4.42761e+00		         0.03000	7.80000e+01	
0.13509   	4.52960e+00		         0.03167	8.90000e+01	
0.14120   	4.58405e+00		         0.03333	9.90000e+01	
0.14731   	4.72690e+00		         0.03500	1.08000e+02	
0.15368   	4.89120e+00		         0.03667	1.14000e+02	
0.16001   	5.02159e+00		         0.03833	1.19000e+02	
0.16589   	5.06521e+00		         0.04000	1.21000e+02	
0.17200   	5.08708e+00		         0.04167	1.21000e+02	
0.17837   	5.02252e+00		         0.04333	1.18000e+02	
0.18447   	5.01736e+00		         0.04500	1.12000e+02	
0.19058   	5.07421e+00		         0.04667	1.05000e+02	
0.19668   	5.19274e+00		         0.04833	9.50000e+01	
0.20306   	5.26749e+00		         0.05000	8.40000e+01	
0.20954   	5.35313e+00		         0.05167	7.30000e+01	
0.21526   	5.48914e+00		         0.05333	6.10000e+01	
0.22137   	5.52763e+00		         0.05500	4.90000e+01	
0.22774   	5.49195e+00		         0.05667	3.70000e+01	
0.23385   	5.38138e+00		         0.05833	2.60000e+01	
0.23995   	5.38140e+00		         0.06000	1.60000e+01	
0.24605   	5.39470e+00		         0.06167	7.00000e+00	
0.25243   	5.31684e+00		         0.06333	-2.00000e+00	
0.25853   	5.22711e+00		         0.06500	-9.00000e+00	
0.26464   	5.10759e+00		         0.06667	-1.60000e+01	
0.27074   	4.98084e+00		         0.06833	-2.10000e+01	
0.27712   	4.80764e+00		         0.07000	-2.50000e+01	
0.28322   	4.66945e+00		         0.07167	-2.90000e+01	
0.28933   	4.65313e+00		         0.07333	-3.20000e+01	
0.29543   	4.75348e+00		         0.07500	-3.40000e+01	
0.30181   	4.72076e+00		         0.07667	-3.60000e+01	
0.30791   	4.62951e+00		         0.07833	-3.70000e+01	
0.31402   	4.49574e+00		         0.08000	-3.80000e+01	
0.32012   	4.34017e+00		         0.08167	-3.80000e+01	
0.32649   	4.22340e+00		         0.08333	-3.90000e+01	
0.33259   	3.98996e+00		         0.08500	-3.90000e+01	
0.33870   	3.84163e+00		         0.08667	-3.80000e+01	
0.34480   	3.65382e+00		         0.08833	-3.80000e+01	
0.35118   	3.42798e+00		         0.09000	-3.70000e+01	
0.35728   	3.30107e+00		         0.09167	-3.60000e+01	
0.36339   	3.16620e+00		         0.09333	-3.50000e+01	
0.36949   	3.11524e+00		         0.09500	-3.40000e+01	
0.37587   	2.94551e+00		         0.09667	-3.30000e+01	
0.38197   	2.70017e+00		         0.09833	-3.10000e+01	
0.38808   	2.49611e+00		         0.10000	-3.00000e+01	
0.39418   	2.27725e+00		         0.10167	-2.80000e+01	
0.40056   	1.92204e+00		         0.10333	-2.70000e+01	
0.40666   	1.49044e+00		         0.10500	-2.60000e+01	
0.41276   	1.18675e+00		         0.10667	-2.50000e+01	
0.41887   	8.72632e-01		         0.10833	-2.40000e+01	
0.42541   	5.24720e-01		         0.11000	-2.40000e+01	
0.43135   	-3.34281e-01		         0.11167	-2.40000e+01	
0.43745   	-1.26207e+00		         0.11333	-2.40000e+01	
0.44356   	-2.21536e+00		         0.11500	-2.40000e+01	
0.44993   	-2.97498e+00		         0.11667	-2.40000e+01	
0.45603   	-3.13411e+00		         0.11833	-2.50000e+01	
0.46214   	-2.55344e+00		         0.12000	-2.60000e+01	
0.46824   	-1.29462e+00		         0.12167	-2.60000e+01	
0.47462   	-3.38014e-01		         0.12333	-2.60000e+01	
0.48072   	2.13582e-01		         0.12500	-2.60000e+01	
0.48683   	5.76940e-01		         0.12667	-2.60000e+01	
0.49293   	8.81085e-01		         0.12833	-2.50000e+01	
0.49930   	1.04971e+00		         0.13000	-2.40000e+01	
0.50541   	1.21164e+00		         0.13167	-2.30000e+01	
0.51151   	1.41401e+00		         0.13333	-2.20000e+01	
0.51762   	1.45040e+00		         0.13500	-2.00000e+01	
0.52399   	8.92458e-01		         0.13667	-1.80000e+01	
0.53010   	-3.14660e-02		         0.13833	-1.70000e+01	
0.53621   	-4.35371e-01		         0.14000	-1.50000e+01	
0.54230   	-1.00636e+00		         0.14167	-1.40000e+01	
0.54868   	-1.52039e+00		         0.14333	-1.30000e+01	
0.55478   	-2.70486e+00		         0.14500	-1.20000e+01	
0.56089   	-3.58870e+00		         0.14667	-1.20000e+01	
0.56700   	-4.21078e+00		         0.14833	-1.20000e+01	
0.57337   	-4.84010e+00		         0.15000	-1.20000e+01	
0.57947   	-5.10747e+00		         0.15167	-1.20000e+01	
0.58558   	-5.38178e+00		         0.15333	-1.20000e+01	
0.59168   	-5.43151e+00		         0.15500	-1.20000e+01	
0.59806   	-5.57402e+00		         0.15667	-1.30000e+01	
0.60416   	-5.62008e+00		         0.15833	-1.30000e+01	
0.61026   	-5.52873e+00		         0.16000	-1.30000e+01	
0.61637   	-5.26761e+00		         0.16167	-1.40000e+01	
0.62274   	-4.94395e+00		         0.16333	-1.40000e+01	
0.62885   	-4.55439e+00		         0.16500	-1.40000e+01	
0.63495   	-4.21979e+00		         0.16667	-1.40000e+01	
0.64109   	-3.92514e+00		         0.16833	-1.40000e+01	
0.64743   	-3.68034e+00		         0.17000	-1.30000e+01	
0.65353   	-3.47440e+00		         0.17167	-1.30000e+01	
0.65964   	-3.12301e+00		         0.17333	-1.20000e+01	
0.66574   	-2.69040e+00		         0.17500	-1.10000e+01	
0.67212   	-2.13365e+00		         0.17667	-1.00000e+01	
0.67822   	-1.52884e+00		         0.17833	-9.00000e+00	
0.68433   	-1.03024e+00		         0.18000	-8.00000e+00	
0.69043   	-6.48170e-01		         0.18167	-7.00000e+00	
0.69681   	-3.95384e-01		         0.18333	-6.00000e+00	
0.70291   	-1.80032e-01		         0.18500	-5.00000e+00	
0.70901   	-4.07867e-02		         0.18667	-5.00000e+00	
0.71512   	-7.84690e-02		         0.18833	-4.00000e+00	
0.72149   	-1.63893e-01		         0.19000	-4.00000e+00	
0.72760   	-2.71990e-01		         0.19167	-3.00000e+00	
0.73370   	-3.27309e-01		         0.19333	-3.00000e+00	
0.73980   	-4.23813e-01		         0.19500	-3.00000e+00	
0.74618   	-5.41729e-01		         0.19667	-3.00000e+00	
0.75228   	-6.65919e-01		         0.19833	-3.00000e+00	
0.75839   	-7.96884e-01		         0.20000	-3.00000e+00	
0.76449   	-8.75404e-01		         0.20167	-3.00000e+00	
0.77087   	-9.61807e-01		         0.20333	-4.00000e+00	
0.77697   	-1.01024e+00		         0.20500	-4.00000e+00	
0.78308   	-1.04055e+00		         0.20667	-4.00000e+00	
0.78918   	-1.01742e+00		         0.20833	-5.00000e+00	
0.79556   	-1.00346e+00		         0.21000	-6.00000e+00	
0.80166   	-9.62882e-01		         0.21167	-7.00000e+00	
0.80776   	-9.29931e-01		         0.21333	-8.00000e+00	
0.81387   	-8.77517e-01		         0.21500	-8.00000e+00	
0.82024   	-8.58021e-01		         0.21667	-8.00000e+00	
0.82635   	-8.57073e-01		         0.21833	-8.00000e+00	
0.83245   	-8.74394e-01		         0.22000	-8.00000e+00	
0.83856   	-9.25203e-01		         0.22167	-7.00000e+00	
0.84494   	-9.22172e-01		         0.22333	-7.00000e+00	
0.85103   	-9.02046e-01		         0.22500	-5.00000e+00	
0.85714   	-8.81042e-01		         0.22667	-4.00000e+00	
0.86324   	-8.38609e-01		         0.22833	-2.00000e+00	
0.86962   	-7.94131e-01		         0.23000	1.00000e+00	
0.87572   	-6.71409e-01		         0.23167	3.00000e+00	
0.88183   	-5.88373e-01		         0.23333	5.00000e+00	
0.88793   	-5.28432e-01		         0.23500	7.00000e+00	
0.89431   	-5.39846e-01		         0.23667	9.00000e+00	
0.90041   	-5.12388e-01		         0.23833	9.00000e+00	
0.90684   	-4.51285e-01		         0.24000	1.00000e+01	
0.91262   	-3.68619e-01		         0.24167	1.00000e+01	
0.91899   	-3.38112e-01		         0.24333	1.00000e+01	
0.92509   	-3.03147e-01		         0.24500	9.00000e+00	
0.93120   	-2.62176e-01		         0.24667	8.00000e+00	
0.93731   	-1.98846e-01		         0.24833	7.00000e+00	
0.94368   	-1.40882e-01		         0.25000	6.00000e+00	
0.94978   	-1.13933e-01		         0.25167	5.00000e+00	
0.95589   	-1.05227e-01		         0.25333	4.00000e+00	
0.96199   	-1.38264e-01		         0.25500	3.00000e+00	
0.96837   	-1.53191e-01		         0.25667	2.00000e+00	
0.97447   	-1.80081e-01		         0.25833	2.00000e+00	
0.98058   	-1.84112e-01		         0.26000	2.00000e+00	
0.98668   	-2.01386e-01		         0.26167	2.00000e+00	
0.99306   	-2.03630e-01		         0.26333	3.00000e+00	
0.99916   	-2.14411e-01		         0.26500	3.00000e+00	
1.00526   	-2.14411e-01		         0.26667	4.00000e+00	
1.01137   	-1.99800e-01		         0.26833	5.00000e+00	
1.01774   	-1.81274e-01		         0.27000	6.00000e+00	
1.02385   	-1.64000e-01		         0.27167	7.00000e+00	
1.02995   	-1.55825e-01		         0.27333	7.00000e+00	
1.03606   	-1.55825e-01		         0.27500	8.00000e+00	
1.04243   	-1.48309e-01		         0.27667	8.00000e+00	
1.04856   	-1.56403e-01		         0.27833	9.00000e+00	
1.05464   	-1.44839e-01		         0.28000	9.00000e+00	
1.06074   	-1.44839e-01		         0.28167	1.00000e+01	
1.06712   	-1.40792e-01		         0.28333	1.00000e+01	
1.07322   	-1.52356e-01		         0.28500	1.10000e+01	
1.07933   	-1.59873e-01		         0.28667	1.10000e+01	
1.08543   	-1.63920e-01		         0.28833	1.20000e+01	
1.09181   	-1.63920e-01		         0.29000	1.30000e+01	
1.09791   	-1.42527e-01		         0.29167	1.40000e+01	
1.10401   	-9.62705e-02		         0.29333	1.40000e+01	
1.11012   	1.28569e-03		         0.29500	1.50000e+01	
1.11650   	1.02526e-01		         0.29667	1.60000e+01	
1.12264   	2.15791e-01		         0.29833	1.70000e+01	
1.12870   	4.32527e-01		         0.30000	1.80000e+01	
1.13481   	5.37289e-01		         0.30167	1.90000e+01	
1.14118   	4.99499e-01		         0.30333	2.00000e+01	
1.14728   	-3.16853e-01		         0.30500	2.00000e+01	
1.15339   	-1.40736e+00		         0.30667	2.00000e+01	
1.15949   	-2.81206e+00		         0.30833	2.00000e+01	
1.16587   	-4.12249e+00		         0.31000	2.10000e+01	
1.17197   	-5.31489e+00		         0.31167	2.10000e+01	
1.17808   	-6.38807e+00		         0.31333	2.10000e+01	
1.18418   	-7.12587e+00		         0.31500	2.20000e+01	
1.19056   	-7.75419e+00		         0.31667	2.20000e+01	
1.19666   	-8.04891e+00		         0.31833	2.20000e+01	
1.20276   	-7.95081e+00		         0.32000	2.20000e+01	
1.20887   	-7.42234e+00		         0.32167	2.20000e+01	
1.21525   	-6.59927e+00		         0.32333	2.20000e+01	
1.22135   	-5.70700e+00		         0.32500	2.20000e+01	
1.22745   	-5.13391e+00		         0.32667	2.30000e+01	
1.23356   	-4.86174e+00		         0.32833	2.30000e+01	
1.23993   	-4.85937e+00		         0.33000	2.30000e+01	
1.24604   	-4.69636e+00		         0.33167	2.40000e+01	
1.25214   	-4.33856e+00		         0.33333	2.40000e+01	
1.25824   	-3.78856e+00		         0.33500	2.50000e+01	
1.26462   	-3.11208e+00		         0.33667	2.60000e+01	
1.27072   	-2.47007e+00		         0.33833	2.60000e+01	
1.27683   	-1.68267e+00		         0.34000	2.70000e+01	
1.28293   	-9.01207e-01		         0.34167	2.80000e+01	
1.28931   	-2.76934e-02		         0.34333	2.90000e+01	
1.29541   	5.76798e-01		         0.34500	3.00000e+01	
1.30152   	9.94963e-01		         0.34667	3.00000e+01	
1.30762   	1.17871e+00		         0.34833	3.00000e+01	
1.31399   	1.54439e+00		         0.35000	3.00000e+01	
1.32009   	2.06953e+00		         0.35167	3.00000e+01	
1.32621   	2.65418e+00		         0.35333	2.90000e+01	
1.33231   	2.62012e+00		         0.35500	2.80000e+01	
1.33868   	2.03112e+00		         0.35667	2.70000e+01	
1.34478   	1.06066e+00		         0.35833	2.50000e+01	
1.35089   	7.33683e-01		         0.36000	2.40000e+01	
1.35699   	6.15731e-01		         0.36167	2.20000e+01	
1.36337   	9.89490e-01		         0.36333	2.10000e+01	
1.36947   	1.41290e+00		         0.36500	1.90000e+01	
1.37558   	2.32041e+00		         0.36667	1.80000e+01	
1.38168   	3.27835e+00		         0.36833	1.70000e+01	
1.38822   	4.06921e+00		         0.37000	1.50000e+01	
1.39416   	4.59939e+00		         0.37167	1.40000e+01	
1.40027   	4.89438e+00		         0.37333	1.20000e+01	
1.40637   	5.10390e+00		         0.37500	1.10000e+01	
1.41274   	5.16747e+00		         0.37667	9.00000e+00	
1.41885   	5.20692e+00		         0.37833	8.00000e+00	
1.42495   	5.16260e+00		         0.38000	6.00000e+00	
1.43106   	5.24657e+00		         0.38167	4.00000e+00	
1.43743   	5.27169e+00		         0.38333	2.00000e+00	
1.44353   	5.31824e+00		         0.38500	0.00000e+00	
1.44964   	5.27286e+00		         0.38667	-2.00000e+00	
1.45574   	5.24336e+00		         0.38833	-3.00000e+00	
1.46212   	5.21055e+00		         0.39000	-5.00000e+00	
1.46822   	5.19536e+00		         0.39167	-7.00000e+00	
1.47433   	5.25331e+00		         0.39333	-8.00000e+00	
1.48043   	5.25800e+00		         0.39500	-9.00000e+00	
1.48681   	5.23464e+00		         0.39667	-1.00000e+01	
1.49291   	5.13755e+00		         0.39833	-1.10000e+01	
1.49902   	5.12006e+00		         0.40000	-1.20000e+01	
1.50512   	5.09275e+00		         0.40167	-1.20000e+01	
1.51150   	5.11620e+00		         0.40333	-1.20000e+01	
1.51760   	5.04056e+00		         0.40500	-1.20000e+01	
1.52370   	4.97783e+00		         0.40667	-1.30000e+01	
1.52981   	4.90431e+00		         0.40833	-1.30000e+01	
1.53618   	4.84446e+00		         0.41000	-1.30000e+01	
1.54228   	4.71672e+00		         0.41167	-1.40000e+01	
1.54839   	4.57988e+00		         0.41333	-1.40000e+01	
1.55449   	4.49878e+00		         0.41500	-1.50000e+01	
1.56087   	4.44183e+00		         0.41667	-1.50000e+01	
1.56697   	4.36686e+00		         0.41833	-1.50000e+01	
1.57308   	4.20568e+00		         0.42000	-1.60000e+01	
1.57918   	3.99065e+00		         0.42167	-1.60000e+01	
1.58556   	3.81606e+00		         0.42333	-1.70000e+01	
1.59166   	3.75050e+00		         0.42500	-1.80000e+01	
1.59777   	3.72803e+00		         0.42667	-1.80000e+01	
1.60403   	3.58667e+00		         0.42833	-1.90000e+01	
1.61025   	3.45744e+00		         0.43000	-2.00000e+01	
1.61635   	3.37262e+00		         0.43167	-2.00000e+01	
1.62245   	3.27146e+00		         0.43333	-2.10000e+01	
1.62856   	3.08777e+00		         0.43500	-2.20000e+01	
1.63493   	2.84426e+00		         0.43667	-2.20000e+01	
1.64104   	2.73175e+00		         0.43833	-2.30000e+01	
1.64714   	2.50762e+00		         0.44000	-2.40000e+01	
1.65324   	2.31518e+00		         0.44167	-2.40000e+01	
1.65962   	2.04357e+00		         0.44333	-2.50000e+01	
1.66573   	1.90179e+00		         0.44500	-2.60000e+01	
1.67183   	1.70576e+00		         0.44667	-2.60000e+01	
1.67793   	1.49656e+00		         0.44833	-2.60000e+01	
1.68431   	1.17785e+00		         0.45000	-2.60000e+01	
1.69041   	7.31391e-01		         0.45167	-2.50000e+01	
1.69652   	1.09224e-01		         0.45333	-2.40000e+01	
1.70262   	-6.57141e-01		         0.45500	-2.40000e+01	
1.70900   	-1.51574e+00		         0.45667	-2.30000e+01	
1.71510   	-2.37122e+00		         0.45833	-2.10000e+01	
1.72120   	-3.05877e+00		         0.46000	-2.00000e+01	
1.72731   	-3.28910e+00		         0.46167	-1.80000e+01	
1.73368   	-2.68011e+00		         0.46333	-1.70000e+01	
1.73978   	-1.67219e+00		         0.46500	-1.60000e+01	
1.74589   	-5.37770e-01		         0.46667	-1.50000e+01	
1.75199   	2.66696e-01		         0.46833	-1.40000e+01	
1.75837   	8.94294e-01		         0.47000	-1.30000e+01	
1.76448   	1.25724e+00		         0.47167	-1.20000e+01	
1.77058   	1.41112e+00		         0.47333	-1.10000e+01	
1.77668   	1.71031e+00		         0.47500	-1.10000e+01	
1.78306   	2.08253e+00		         0.47667	-1.10000e+01	
1.78916   	1.96483e+00		         0.47833	-1.10000e+01	
1.79527   	1.01060e+00		         0.48000	-1.10000e+01	
1.80137   	5.40672e-01		         0.48167	-1.20000e+01	
1.80775   	4.96982e-02		         0.48333	-1.20000e+01	
1.81385   	7.05598e-03		         0.48500	-1.20000e+01	
1.81995   	-1.27604e+00		         0.48667	-1.20000e+01	
1.82606   	-2.13925e+00		         0.48833	-1.30000e+01	
1.83243   	-3.20211e+00		         0.49000	-1.30000e+01	
1.83853   	-3.79603e+00		         0.49167	-1.40000e+01	
1.84464   	-4.45958e+00		         0.49333	-1.50000e+01	
1.85075   	-4.98619e+00		         0.49500	-1.50000e+01	
1.85712   	-5.33239e+00		         0.49667	-1.50000e+01	
1.86323   	-5.75339e+00		         0.49833	-1.50000e+01	
1.86967   	-5.88091e+00		         0.50000	-1.50000e+01	
1.87543   	-5.91711e+00		         0.50167	-1.50000e+01	
1.88181   	-5.54866e+00		         0.50333	-1.50000e+01	
1.88791   	-5.28429e+00		         0.50500	-1.50000e+01	
1.89402   	-4.91504e+00		         0.50667	-1.40000e+01	
1.90012   	-4.55460e+00		         0.50833	-1.40000e+01	
1.90649   	-4.13644e+00		         0.51000	-1.30000e+01	
1.91260   	-3.74065e+00		         0.51167	-1.20000e+01	
1.91870   	-3.43017e+00		         0.51333	-1.10000e+01	
1.92481   	-3.09800e+00		         0.51500	-1.10000e+01	
1.93118   	-2.78264e+00		         0.51667	-1.10000e+01	
1.93729   	-2.41019e+00		         0.51833	-1.10000e+01	
1.94339   	-1.98816e+00		         0.52000	-1.00000e+01	
1.94949   	-1.63851e+00		         0.52167	-1.00000e+01	
1.95587   	-1.30629e+00		         0.52333	-1.00000e+01	
1.96198   	-1.03317e+00		         0.52500	-1.00000e+01	
1.96808   	-6.74444e-01		         0.52667	-9.00000e+00	
1.97418   	-4.55709e-01		         0.52833	-9.00000e+00	
1.98056   	-2.88687e-01		         0.53000	-9.00000e+00	
1.98666   	-2.46803e-01		         0.53167	-8.00000e+00	
1.99277   	-2.94614e-01		         0.53333	-8.00000e+00	
1.99887   	-3.98404e-01		         0.53500	-8.00000e+00	
2.00524   	-5.52106e-01		         0.53667	-7.00000e+00	
2.01135   	-7.26439e-01		         0.53833	-7.00000e+00	
2.01745   	-8.56192e-01		         0.54000	-7.00000e+00	
2.02356   	-9.09314e-01		         0.54167	-7.00000e+00	
2.02993   	-8.81792e-01		         0.54333	-7.00000e+00	
2.03603   	-8.48738e-01		         0.54500	-7.00000e+00	
2.04214   	-8.48852e-01		         0.54667	-7.00000e+00	
2.04825   	-8.51391e-01		         0.54833	-7.00000e+00	
2.05462   	-8.69526e-01		         0.55000	-8.00000e+00	
2.06073   	-8.51108e-01		         0.55167	-9.00000e+00	
2.06683   	-8.62369e-01		         0.55333	-1.00000e+01	
2.07293   	-8.24655e-01		         0.55500	-1.10000e+01	
2.07931   	-7.89878e-01		         0.55667	-1.20000e+01	
2.08548   	-7.08598e-01		         0.55833	-1.30000e+01	
2.09152   	-7.05483e-01		         0.56000	-1.40000e+01	
2.09762   	-7.21815e-01		         0.56167	-1.40000e+01	
2.10399   	-6.96674e-01		         0.56333	-1.40000e+01	
2.11009   	-6.83549e-01		         0.56500	-1.40000e+01	
2.11620   	-6.97378e-01		         0.56667	-1.30000e+01	
2.12231   	-7.54693e-01		         0.56833	-1.20000e+01	
2.12868   	-7.67381e-01		         0.57000	-1.10000e+01	
2.13479   	-7.64369e-01		         0.57167	-1.00000e+01	
2.14089   	-7.58160e-01		         0.57333	-8.00000e+00	
2.14700   	-7.57671e-01		         0.57500	-6.00000e+00	
2.15337   	-7.53594e-01		         0.57667	-5.00000e+00	
2.15948   	-7.23326e-01		         0.57833	-3.00000e+00	
2.16558   	-7.16087e-01		         0.58000	-2.00000e+00	
2.17168   	-6.81666e-01		         0.58167	-1.00000e+00	
2.17806   	-6.35967e-01		         0.58333	-1.00000e+00	
2.18416   	-5.45764e-01		         0.58500	0.00000e+00	
2.19027   	-4.91511e-01		         0.58667	-1.00000e+00	
2.19637   	-4.83461e-01		         0.58833	-1.00000e+00	
2.20274   	-4.39368e-01		         0.59000	-1.00000e+00	
2.20885   	-3.65131e-01		         0.59167	-2.00000e+00	
2.21495   	-2.66651e-01		         0.59333	-2.00000e+00	
2.22106   	-2.07682e-01		         0.59500	-3.00000e+00	
2.22743   	-1.84193e-01		         0.59667	-3.00000e+00	
2.23353   	-1.83041e-01		         0.59833	-3.00000e+00	
2.23964   	-1.79011e-01		         0.60000	-4.00000e+00	
2.24575   	-1.71406e-01		         0.60167	-4.00000e+00	
2.25213   	-1.63920e-01		         0.60333	-4.00000e+00	
2.25823   	-1.63920e-01		         0.60500	-4.00000e+00	
2.26433   	-1.63920e-01		         0.60667	-4.00000e+00	
2.27043   	-1.63920e-01		         0.60833	-5.00000e+00	
2.27681   	-1.63920e-01		         0.61000	-5.00000e+00	
2.28291   	-1.63920e-01		         0.61167	-5.00000e+00	
2.28901   	-1.65647e-01		         0.61333	-6.00000e+00	
2.29512   	-1.65647e-01		         0.61500	-6.00000e+00	
2.30149   	-1.65647e-01		         0.61667	-7.00000e+00	
2.30760   	-1.63920e-01		         0.61833	-7.00000e+00	
2.31371   	-1.63920e-01		         0.62000	-7.00000e+00	
2.31981   	-1.63920e-01		         0.62167	-7.00000e+00	
2.32618   	-1.63920e-01		         0.62333	-7.00000e+00	
2.33228   	-1.63920e-01		         0.62500	-7.00000e+00	
2.33839   	-1.63920e-01		         0.62667	-6.00000e+00	
2.34450   	-1.63920e-01		         0.62833	-6.00000e+00	
2.35120   	-1.52339e-01		         0.63000	-5.00000e+00	
2.35698   	-1.17630e-01		         0.63167	-4.00000e+00	
2.36308   	-3.69662e-02		         0.63333	-3.00000e+00	
2.36918   	7.52013e-02		         0.63500	-2.00000e+00	
2.37556   	2.78695e-01		         0.63667	-2.00000e+00	
2.38166   	3.62364e-01		         0.63833	-1.00000e+00	
2.38776   	5.01284e-01		         0.64000	-1.00000e+00	
2.39387   	4.74260e-02		         0.64167	0.00000e+00	
2.40025   	-9.53656e-01		         0.64333	0.00000e+00	
2.40635   	-2.53068e+00		         0.64500	0.00000e+00	
2.41245   	-4.00177e+00		         0.64667	0.00000e+00	
2.41856   	-5.25355e+00		         0.64833	0.00000e+00	
2.42493   	-6.29352e+00		         0.65000	1.00000e+00	
2.43104   	-7.12107e+00		         0.65167	1.00000e+00	
2.43714   	-7.78386e+00		         0.65333	2.00000e+00	
2.44325   	-8.27936e+00		         0.65500	2.00000e+00	
2.44962   	-8.48880e+00		         0.65667	2.00000e+00	
2.45572   	-8.01945e+00		         0.65833	2.00000e+00	
2.46183   	-7.14253e+00		         0.66000	2.00000e+00	
2.46793   	-6.16739e+00		         0.66167	1.00000e+00	
2.47430   	-5.54871e+00		         0.66333	1.00000e+00	
2.48041   	-5.14223e+00		         0.66500	0.00000e+00	
2.48651   	-5.02045e+00		         0.66667	0.00000e+00	
2.49262   	-4.88671e+00		         0.66833	-1.00000e+00	
2.49899   	-4.59580e+00		         0.67000	-2.00000e+00	
2.50510   	-3.90319e+00		         0.67167	-2.00000e+00	
2.51121   	-3.18211e+00		         0.67333	-3.00000e+00	
2.51731   	-2.58442e+00		         0.67500	-3.00000e+00	
2.52368   	-2.08239e+00		         0.67667	-3.00000e+00	
2.52979   	-1.27317e+00		         0.67833	-3.00000e+00	
2.53589   	-3.38888e-01		         0.68000	-3.00000e+00	
2.54200   	5.44274e-01		         0.68167	-3.00000e+00	
2.54837   	1.05584e+00		         0.68333	-4.00000e+00	
2.55448   	1.36865e+00		         0.68500	-4.00000e+00	
2.56058   	1.64188e+00		         0.68667	-4.00000e+00	
2.56705   	2.21754e+00		         0.68833	-5.00000e+00	
2.57306   	2.82786e+00		         0.69000	-5.00000e+00	
2.57916   	2.85464e+00		         0.69167	-5.00000e+00	
2.58526   	2.25742e+00		         0.69333	-5.00000e+00	
2.59137   	1.36112e+00		         0.69500	-5.00000e+00	
2.59774   	1.05572e+00		         0.69667	-5.00000e+00	
2.60385   	9.86439e-01		         0.69833	-5.00000e+00	
2.60995   	1.14906e+00		         0.70000	-4.00000e+00	
2.61606   	1.56220e+00		         0.70167	-3.00000e+00	
2.62243   	2.37910e+00		         0.70333	-3.00000e+00	
2.62853   	3.42708e+00		         0.70500	-2.00000e+00	
2.63464   	4.24095e+00		         0.70667	-1.00000e+00	
2.64075   	4.77029e+00		         0.70833	-1.00000e+00	
2.64712   	5.13838e+00		         0.71000	0.00000e+00	
2.65322   	5.31242e+00		         0.71167	0.00000e+00	
2.65933   	5.36043e+00		         0.71333	-1.00000e+00	
2.66543   	5.31507e+00		         0.71500	-1.00000e+00	
2.67181   	5.31029e+00		         0.71667	-1.00000e+00	
2.67792   	5.35829e+00		         0.71833	-2.00000e+00	
2.68401   	5.38455e+00		         0.72000	-2.00000e+00	
2.69012   	5.37753e+00		         0.72167	-3.00000e+00	
2.69650   	5.30617e+00		         0.72333	-4.00000e+00	
2.70260   	5.30194e+00		         0.72500	-4.00000e+00	
2.70871   	5.33717e+00		         0.72667	-4.00000e+00	
2.71481   	5.38350e+00		         0.72833	-4.00000e+00	
2.72119   	5.28759e+00		         0.73000	-4.00000e+00	
2.72729   	5.14508e+00		         0.73167	-4.00000e+00	
2.73339   	5.12382e+00		         0.73333	-3.00000e+00	
2.73950   	5.20158e+00		         0.73500	-3.00000e+00	
2.74587   	5.31357e+00		         0.73667	-3.00000e+00	
2.75197   	5.23966e+00		         0.73833	-3.00000e+00	
2.75808   	5.10548e+00		         0.74000	-2.00000e+00	
2.76418   	5.00767e+00		         0.74167	-1.00000e+00	
2.77056   	4.97908e+00		         0.74333	-1.00000e+00	
2.77666   	5.00906e+00		         0.74500	0.00000e+00	
2.78280   	4.91237e+00		         0.74667	0.00000e+00	
2.78887   	4.82840e+00		         0.74833	1.00000e+00	
2.79525   	4.70895e+00		         0.75000	1.00000e+00	
2.80135   	4.61393e+00		         0.75167	2.00000e+00	
2.80746   	4.53237e+00		         0.75333	3.00000e+00	
2.81356   	4.33063e+00		         0.75500	3.00000e+00	
2.81993   	4.14851e+00		         0.75667	4.00000e+00	
2.82604   	3.94744e+00		         0.75833	5.00000e+00	
2.83214   	3.91135e+00		         0.76000	5.00000e+00	
2.83825   	3.87541e+00		         0.76167	5.00000e+00	
2.84462   	3.82902e+00		         0.76333	5.00000e+00	
2.85072   	3.66457e+00		         0.76500	4.00000e+00	
2.85683   	3.48388e+00		         0.76667	3.00000e+00	
2.86293   	3.32182e+00		         0.76833	3.00000e+00	
2.86931   	3.18218e+00		         0.77000	2.00000e+00	
2.87541   	3.03668e+00		         0.77167	1.00000e+00	
2.88151   	2.87746e+00		         0.77333	1.00000e+00	
2.88762   	2.70804e+00		         0.77500	0.00000e+00	
2.89400   	2.57221e+00		         0.77667	-1.00000e+00	
2.90009   	2.38747e+00		         0.77833	-1.00000e+00	
2.90621   	2.18932e+00		         0.78000	-2.00000e+00	
2.91231   	1.97125e+00		         0.78167	-2.00000e+00	
2.91868   	1.72199e+00		         0.78333	-2.00000e+00	
2.92478   	1.56139e+00		         0.78500	-3.00000e+00	
2.93089   	1.20919e+00		         0.78667	-2.00000e+00	
2.93700   	8.59888e-01		         0.78833	-2.00000e+00	
2.94337   	2.26288e-01		         0.79000	-2.00000e+00	
2.94947   	-5.42266e-01		         0.79167	-2.00000e+00	
2.95558   	-1.53835e+00		         0.79333	-3.00000e+00	
2.96168   	-2.44977e+00		         0.79500	-3.00000e+00	
2.96806   	-3.07470e+00		         0.79667	-3.00000e+00	
2.97417   	-3.31213e+00		         0.79833	-3.00000e+00	
2.98027   	-2.81652e+00		         0.80000	-3.00000e+00	
2.98637   	-1.62216e+00		         0.80167	-3.00000e+00	
2.99275   	-1.48390e-01		         0.80333	-3.00000e+00	
2.99885   	8.86817e-01		         0.80500	-3.00000e+00	
3.00495   	1.49187e+00		         0.80667	-4.00000e+00	
3.01106   	1.81425e+00		         0.80833	-4.00000e+00	
3.01743   	1.98486e+00		         0.81000	-4.00000e+00	
3.02353   	1.99874e+00		         0.81167	-4.00000e+00	
3.02964   	2.11059e+00		         0.81333	-4.00000e+00	
3.03575   	2.31914e+00		         0.81500	-3.00000e+00	
3.04212   	2.01796e+00		         0.81667	-2.00000e+00	
3.04822   	1.75572e+00		         0.81833	-1.00000e+00	
3.05433   	1.26498e+00		         0.82000	0.00000e+00	
3.06043   	6.97576e-01		         0.82167	1.00000e+00	
3.06681   	-5.05072e-01		         0.82333	2.00000e+00	
3.07291   	-1.90661e+00		         0.82500	3.00000e+00	
3.07901   	-2.91093e+00		         0.82667	4.00000e+00	
3.08512   	-3.52417e+00		         0.82833	5.00000e+00	
3.09150   	-3.97314e+00		         0.83000	6.00000e+00	
3.09760   	-4.50079e+00		         0.83167	6.00000e+00	
3.10370   	-5.00499e+00		         0.83333	6.00000e+00	
3.10981   	-5.40969e+00		         0.83500	6.00000e+00	
3.11618   	-5.62438e+00		         0.83667	6.00000e+00	
3.12229   	-5.58063e+00		         0.83833	5.00000e+00	
3.12839   	-5.45087e+00		         0.84000	4.00000e+00	
3.13450   	-5.10443e+00		         0.84167	4.00000e+00	
3.14087   	-4.82240e+00		         0.84333	3.00000e+00	
3.14697   	-4.37445e+00		         0.84500	2.00000e+00	
3.15308   	-3.99066e+00		         0.84667	1.00000e+00	
3.15919   	-3.60188e+00		         0.84833	1.00000e+00	
3.16556   	-3.38591e+00		         0.85000	0.00000e+00	
3.17166   	-2.98798e+00		         0.85167	0.00000e+00	
3.17777   	-2.79384e+00		         0.85333	0.00000e+00	
3.18387   	-2.45497e+00		         0.85500	0.00000e+00	
3.19025   	-2.20348e+00		         0.85667	0.00000e+00	
3.19635   	-1.84263e+00		         0.85833	0.00000e+00	
3.20245   	-1.45505e+00		         0.86000	0.00000e+00	
3.20856   	-1.16112e+00		         0.86167	0.00000e+00	
3.21493   	-8.86845e-01		         0.86333	0.00000e+00	
3.22103   	-6.23456e-01		         0.86500	1.00000e+00	
3.22714   	-4.65905e-01		         0.86667	1.00000e+00	
3.23324   	-3.69453e-01		         0.86833	1.00000e+00	
3.23962   	-3.57262e-01		         0.87000	1.00000e+00	
3.24572   	-4.21978e-01		         0.87167	0.00000e+00	
3.25183   	-4.91972e-01		         0.87333	0.00000e+00	
3.25793   	-5.92287e-01		         0.87500	0.00000e+00	
3.26431   	-6.67868e-01		         0.87667	-1.00000e+00	
3.27041   	-7.50761e-01		         0.87833	-1.00000e+00	
3.27652   	-8.28361e-01		         0.88000	-2.00000e+00	
3.28262   	-8.49560e-01		         0.88167	-2.00000e+00	
3.28900   	-8.54768e-01		         0.88333	-2.00000e+00	
3.29509   	-8.61222e-01		         0.88500	-3.00000e+00	
3.30120   	-8.60856e-01		         0.88667	-3.00000e+00	
3.30731   	-8.61795e-01		         0.88833	-3.00000e+00	
3.31401   	-8.26857e-01		         0.89000	-2.00000e+00	
3.31979   	-7.82286e-01		         0.89167	-2.00000e+00	
3.32589   	-7.25671e-01		         0.89333	-2.00000e+00	
3.33200   	-6.76692e-01		         0.89500	-2.00000e+00	
3.33837   	-6.47408e-01		         0.89667	-2.00000e+00	
3.34447   	-5.98937e-01		         0.89833	-2.00000e+00	
3.35058   	-5.89953e-01		         0.90000	-3.00000e+00	
3.35668   	-5.79813e-01		         0.90167	-3.00000e+00	
3.36306   	-5.96305e-01		         0.90333	-3.00000e+00	
3.36916   	-5.62247e-01		         0.90500	-4.00000e+00	
3.37527   	-5.57290e-01		         0.90667	-5.00000e+00	
3.38137   	-5.74793e-01		         0.90833	-5.00000e+00	
3.38775   	-6.48297e-01		         0.91000	-6.00000e+00	
3.39385   	-7.15335e-01		         0.91167	-6.00000e+00	
3.39995   	-7.75376e-01		         0.91333	-6.00000e+00	
3.40606   	-7.65442e-01		         0.91500	-6.00000e+00	
3.41243   	-7.08219e-01		         0.91667	-5.00000e+00	
3.41854   	-6.04635e-01		         0.91833	-4.00000e+00	
3.42464   	-5.33934e-01		         0.92000	-3.00000e+00	
3.43074   	-5.03641e-01		         0.92167	-3.00000e+00	
3.43712   	-5.04085e-01		         0.92333	-2.00000e+00	
3.44323   	-5.06921e-01		         0.92500	-1.00000e+00	
3.44933   	-4.97165e-01		         0.92667	0.00000e+00	
3.45543   	-4.53865e-01		         0.92833	1.00000e+00	
3.46181   	-3.47679e-01		         0.93000	2.00000e+00	
3.46791   	-2.53823e-01		         0.93167	3.00000e+00	
3.47402   	-1.86097e-01		         0.93333	4.00000e+00	
3.48012   	-1.80638e-01		         0.93500	4.00000e+00	
3.48650   	-1.70274e-01		         0.93667	4.00000e+00	
3.49260   	-1.75236e-01		         0.93833	4.00000e+00	
3.49870   	-1.74638e-01		         0.94000	4.00000e+00	
3.50481   	-1.73656e-01		         0.94167	4.00000e+00	
3.51118   	-1.67303e-01		         0.94333	4.00000e+00	
3.51729   	-1.61749e-01		         0.94500	4.00000e+00	
3.52339   	-1.65600e-01		         0.94667	4.00000e+00	
3.52989   	-1.72122e-01		         0.94833	3.00000e+00	
3.53587   	-1.81253e-01		         0.95000	3.00000e+00	
3.54198   	-1.76081e-01		         0.95167	3.00000e+00	
3.54808   	-1.66919e-01		         0.95333	2.00000e+00	
3.55418   	-1.63980e-01		         0.95500	2.00000e+00	
3.56056   	-1.63980e-01		         0.95667	2.00000e+00	
3.56668   	-1.63402e-01		         0.95833	2.00000e+00	
3.57277   	-1.58557e-01		         0.96000	2.00000e+00	
3.57887   	-1.62588e-01		         0.96167	3.00000e+00	
3.58525   	-1.63166e-01		         0.96333	3.00000e+00	
3.59135   	-1.71403e-01		         0.96500	3.00000e+00	
3.59745   	-1.48711e-01		         0.96667	3.00000e+00	
3.60356   	-8.25331e-02		         0.96833	3.00000e+00	
3.60993   	-3.95632e-03		         0.97000	3.00000e+00	
3.61604   	9.31392e-02		         0.97167	3.00000e+00	
3.62214   	2.52036e-01		         0.97333	2.00000e+00	
3.62824   	7.43100e-01		         0.97500	2.00000e+00	
3.63462   	6.55569e-01		         0.97667	1.00000e+00	
3.64072   	7.21377e-01		         0.97833	0.00000e+00	
3.64683   	-5.29520e-01		         0.98000	-1.00000e+00	
3.65293   	-1.80456e+00		         0.98167	-2.00000e+00	
3.65931   	-3.77813e+00		         0.98333	-3.00000e+00	
3.66541   	-5.17428e+00		         0.98500	-3.00000e+00	
3.67152   	-6.29435e+00		         0.98667	-4.00000e+00	
3.67762   	-7.11364e+00		         0.98833	-3.00000e+00	
3.68400   	-7.84085e+00		         0.99000	-3.00000e+00	
3.69009   	-8.27890e+00		         0.99167	-2.00000e+00	
3.69620   	-8.53255e+00		         0.99333	-1.00000e+00	
3.70231   	-8.13423e+00		         0.99500	0.00000e+00	
3.70869   	-7.39396e+00		         0.99667	1.00000e+00	
3.71478   	-6.48378e+00		         0.99833	3.00000e+00	
3.72089   	-5.73583e+00		         1.00000	4.00000e+00	
3.72699   	-5.29110e+00		         1.00167	5.00000e+00	
3.73338   	-5.12807e+00		         1.00333	6.00000e+00	
3.73948   	-5.08457e+00		         1.00500	6.00000e+00	
3.74566   	-4.85286e+00		         1.00667	6.00000e+00	
3.75168   	-4.30671e+00		         1.00833	6.00000e+00	
3.75806   	-3.58135e+00		         1.01000	6.00000e+00	
3.76416   	-2.83124e+00		         1.01167	5.00000e+00	
3.77027   	-2.15735e+00		         1.01333	4.00000e+00	
3.77637   	-1.33883e+00		         1.01500	4.00000e+00	
3.78275   	-4.83592e-01		         1.01667	3.00000e+00	
3.78885   	3.91040e-01		         1.01833	3.00000e+00	
3.79495   	9.67239e-01		         1.02000	3.00000e+00	
3.80106   	1.32286e+00		         1.02167	3.00000e+00	
3.80744   	1.63730e+00		         1.02333	3.00000e+00	
3.81354   	2.24395e+00		         1.02500	3.00000e+00	
3.81964   	2.76711e+00		         1.02667	3.00000e+00	
3.82575   	3.14261e+00		         1.02833	3.00000e+00	
			         1.03000	3.00000e+00	
			         1.03167	3.00000e+00	
			         1.03333	3.00000e+00	
			         1.03500	3.00000e+00	
			         1.03667	3.00000e+00	
			         1.03833	3.00000e+00	
			         1.04000	3.00000e+00	
			         1.04167	3.00000e+00	
			         1.04333	2.00000e+00	
			         1.04500	2.00000e+00	
			         1.04667	2.00000e+00	
			         1.04833	2.00000e+00	
			         1.05000	2.00000e+00	
			         1.05167	2.00000e+00	
			         1.05333	2.00000e+00	
			         1.05500	2.00000e+00	
			         1.05667	2.00000e+00	
			         1.05833	1.00000e+00	
			         1.06000	1.00000e+00	
			         1.06167	1.00000e+00	
			         1.06333	0.00000e+00	
			         1.06500	0.00000e+00	
			         1.06667	0.00000e+00	
			         1.06833	0.00000e+00	
			         1.07000	-1.00000e+00	
			         1.07167	-1.00000e+00	
			         1.07333	-2.00000e+00	
			         1.07500	-2.00000e+00	
			         1.07667	-2.00000e+00	
			         1.07833	-1.00000e+00	
			         1.08000	-1.00000e+00	
			         1.08167	-1.00000e+00	
			         1.08333	-1.00000e+00	
			         1.08500	-2.00000e+00	
			         1.08667	-2.00000e+00	
			         1.08833	-2.00000e+00	
			         1.09000	-2.00000e+00	
			         1.09167	-2.00000e+00	
			         1.09333	-2.00000e+00	
			         1.09500	-2.00000e+00	
			         1.09667	-2.00000e+00	
			         1.09833	-1.00000e+00	
			         1.10000	-1.00000e+00	
			         1.10167	0.00000e+00	
			         1.10333	1.00000e+00	
			         1.10500	3.00000e+00	
			         1.10667	4.00000e+00	
			         1.10833	6.00000e+00	
			         1.11000	7.00000e+00	
			         1.11167	9.00000e+00	
			         1.11333	1.00000e+01	
			         1.11500	1.10000e+01	
			         1.11667	1.20000e+01	
			         1.11833	1.20000e+01	
			         1.12000	1.30000e+01	
			         1.12167	1.30000e+01	
			         1.12333	1.20000e+01	
			         1.12500	1.20000e+01	
			         1.12667	1.10000e+01	
			         1.12833	1.00000e+01	
			         1.13000	9.00000e+00	
			         1.13167	8.00000e+00	
			         1.13333	7.00000e+00	
			         1.13500	6.00000e+00	
			         1.13667	6.00000e+00	
			         1.13833	5.00000e+00	
			         1.14000	4.00000e+00	
			         1.14167	4.00000e+00	
			         1.14333	4.00000e+00	
			         1.14500	4.00000e+00	
			         1.14667	5.00000e+00	
			         1.14833	5.00000e+00	
			         1.15000	5.00000e+00	
			         1.15167	6.00000e+00	
			         1.15333	6.00000e+00	
			         1.15500	6.00000e+00	
			         1.15667	7.00000e+00	
			         1.15833	7.00000e+00	
			         1.16000	7.00000e+00	
			         1.16167	7.00000e+00	
			         1.16333	8.00000e+00	
			         1.16500	8.00000e+00	
			         1.16667	8.00000e+00	
			         1.16833	7.00000e+00	
			         1.17000	7.00000e+00	
			         1.17167	7.00000e+00	
			         1.17333	7.00000e+00	
			         1.17500	7.00000e+00	
			         1.17667	6.00000e+00	
			         1.17833	5.00000e+00	
			         1.18000	4.00000e+00	
			         1.18167	3.00000e+00	
			         1.18333	2.00000e+00	
			         1.18500	1.00000e+00	
			         1.18667	-1.00000e+00	
			         1.18833	-2.00000e+00	
			         1.19000	-3.00000e+00	
			         1.19167	-4.00000e+00	
			         1.19333	-5.00000e+00	
			         1.19500	-6.00000e+00	
			         1.19667	-7.00000e+00	
			         1.19833	-8.00000e+00	
			         1.20000	-8.00000e+00	
			         1.20167	-8.00000e+00	
			         1.20333	-9.00000e+00	
			         1.20500	-9.00000e+00	
			         1.20667	-9.00000e+00	
			         1.20833	-9.00000e+00	
			         1.21000	-9.00000e+00	
			         1.21167	-9.00000e+00	
			         1.21333	-9.00000e+00	
			         1.21500	-9.00000e+00	
			         1.21667	-9.00000e+00	
			         1.21833	-9.00000e+00	
			         1.22000	-9.00000e+00	
			         1.22167	-8.00000e+00	
			         1.22333	-8.00000e+00	
			         1.22500	-8.00000e+00	
			         1.22667	-7.00000e+00	
			         1.22833	-7.00000e+00	
			         1.23000	-6.00000e+00	
			         1.23167	-6.00000e+00	
			         1.23333	-6.00000e+00	
			         1.23500	-6.00000e+00	
			         1.23667	-5.00000e+00	
			         1.23833	-5.00000e+00	
			         1.24000	-5.00000e+00	
			         1.24167	-5.00000e+00	
			         1.24333	-6.00000e+00	
			         1.24500	-6.00000e+00	
			         1.24667	-6.00000e+00	
			         1.24833	-6.00000e+00	
			         1.25000	-7.00000e+00	
			         1.25167	-7.00000e+00	
			         1.25333	-8.00000e+00	
			         1.25500	-8.00000e+00	
			         1.25667	-9.00000e+00	
			         1.25833	-1.00000e+01	
			         1.26000	-1.10000e+01	
			         1.26167	-1.20000e+01	
			         1.26333	-1.30000e+01	
			         1.26500	-1.40000e+01	
			         1.26667	-1.60000e+01	
			         1.26833	-1.70000e+01	
			         1.27000	-1.80000e+01	
			         1.27167	-1.90000e+01	
			         1.27333	-2.00000e+01	
			         1.27500	-2.10000e+01	
			         1.27667	-2.10000e+01	
			         1.27833	-2.10000e+01	
			         1.28000	-2.00000e+01	
			         1.28167	-1.90000e+01	
			         1.28333	-1.70000e+01	
			         1.28500	-1.40000e+01	
			         1.28667	-1.10000e+01	
			         1.28833	-7.00000e+00	
			         1.29000	-2.00000e+00	
			         1.29167	4.00000e+00	
			         1.29333	1.10000e+01	
			         1.29500	2.00000e+01	
			         1.29667	2.90000e+01	
			         1.29833	4.00000e+01	
			         1.30000	5.10000e+01	
			         1.30167	6.30000e+01	
			         1.30333	7.50000e+01	
			         1.30500	8.60000e+01	
			         1.30667	9.60000e+01	
			         1.30833	1.06000e+02	
			         1.31000	1.13000e+02	
			         1.31167	1.19000e+02	
			         1.31333	1.22000e+02	
			         1.31500	1.23000e+02	
			         1.31667	1.21000e+02	
			         1.31833	1.17000e+02	
			         1.32000	1.11000e+02	
			         1.32167	1.02000e+02	
			         1.32333	9.20000e+01	
			         1.32500	8.10000e+01	
			         1.32667	6.90000e+01	
			         1.32833	5.80000e+01	
			         1.33000	4.60000e+01	
			         1.33167	3.40000e+01	
			         1.33333	2.40000e+01	
			         1.33500	1.40000e+01	
			         1.33667	5.00000e+00	
			         1.33833	-3.00000e+00	
			         1.34000	-1.00000e+01	
			         1.34167	-1.60000e+01	
			         1.34333	-2.20000e+01	
			         1.34500	-2.60000e+01	
			         1.34667	-3.00000e+01	
			         1.34833	-3.30000e+01	
			         1.35000	-3.60000e+01	
			         1.35167	-3.80000e+01	
			         1.35333	-3.90000e+01	
			         1.35500	-4.00000e+01	
			         1.35667	-4.10000e+01	
			         1.35833	-4.10000e+01	
			         1.36000	-4.00000e+01	
			         1.36167	-3.90000e+01	
			         1.36333	-3.80000e+01	
			         1.36500	-3.70000e+01	
			         1.36667	-3.50000e+01	
			         1.36833	-3.40000e+01	
			         1.37000	-3.20000e+01	
			         1.37167	-3.00000e+01	
			         1.37333	-2.90000e+01	
			         1.37500	-2.70000e+01	
			         1.37667	-2.60000e+01	
			         1.37833	-2.60000e+01	
			         1.38000	-2.60000e+01	
			         1.38167	-2.60000e+01	
			         1.38333	-2.60000e+01	
			         1.38500	-2.70000e+01	
			         1.38667	-2.80000e+01	
			         1.38833	-2.80000e+01	
			         1.39000	-2.90000e+01	
			         1.39167	-2.90000e+01	
			         1.39333	-2.90000e+01	
			         1.39500	-2.90000e+01	
			         1.39667	-2.80000e+01	
			         1.39833	-2.80000e+01	
			         1.40000	-2.70000e+01	
			         1.40167	-2.60000e+01	
			         1.40333	-2.60000e+01	
			         1.40500	-2.50000e+01	
			         1.40667	-2.40000e+01	
			         1.40833	-2.30000e+01	
			         1.41000	-2.30000e+01	
			         1.41167	-2.30000e+01	
			         1.41333	-2.20000e+01	
			         1.41500	-2.20000e+01	
			         1.41667	-2.10000e+01	
			         1.41833	-2.10000e+01	
			         1.42000	-2.00000e+01	
			         1.42167	-1.90000e+01	
			         1.42333	-1.80000e+01	
			         1.42500	-1.60000e+01	
			         1.42667	-1.50000e+01	
			         1.42833	-1.50000e+01	
			         1.43000	-1.40000e+01	
			         1.43167	-1.30000e+01	
			         1.43333	-1.30000e+01	
			         1.43500	-1.20000e+01	
			         1.43667	-1.20000e+01	
			         1.43833	-1.10000e+01	
			         1.44000	-1.10000e+01	
			         1.44167	-1.00000e+01	
			         1.44333	-1.00000e+01	
			         1.44500	-9.00000e+00	
			         1.44667	-9.00000e+00	
			         1.44833	-8.00000e+00	
			         1.45000	-7.00000e+00	
			         1.45167	-6.00000e+00	
			         1.45333	-5.00000e+00	
			         1.45500	-5.00000e+00	
			         1.45667	-4.00000e+00	
			         1.45833	-4.00000e+00	
			         1.46000	-4.00000e+00	
			         1.46167	-4.00000e+00	
			         1.46333	-5.00000e+00	
			         1.46500	-5.00000e+00	
			         1.46667	-6.00000e+00	
			         1.46833	-6.00000e+00	
			         1.47000	-7.00000e+00	
			         1.47167	-8.00000e+00	
			         1.47333	-8.00000e+00	
			         1.47500	-9.00000e+00	
			         1.47667	-9.00000e+00	
			         1.47833	-9.00000e+00	
			         1.48000	-9.00000e+00	
			         1.48167	-8.00000e+00	
			         1.48333	-8.00000e+00	
			         1.48500	-7.00000e+00	
			         1.48667	-6.00000e+00	
			         1.48833	-6.00000e+00	
			         1.49000	-5.00000e+00	
			         1.49167	-4.00000e+00	
			         1.49333	-3.00000e+00	
			         1.49500	-2.00000e+00	
			         1.49667	-1.00000e+00	
			         1.49833	0.00000e+00	
			         1.50000	1.00000e+00	
			         1.50167	2.00000e+00	
			         1.50333	3.00000e+00	
			         1.50500	4.00000e+00	
			         1.50667	4.00000e+00	
			         1.50833	5.00000e+00	
			         1.51000	5.00000e+00	
			         1.51167	5.00000e+00	
			         1.51333	5.00000e+00	
			         1.51500	4.00000e+00	
			         1.51667	4.00000e+00	
			         1.51833	4.00000e+00	
			         1.52000	3.00000e+00	
			         1.52167	3.00000e+00	
			         1.52333	3.00000e+00	
			         1.52500	3.00000e+00	
			         1.52667	4.00000e+00	
			         1.52833	4.00000e+00	
			         1.53000	5.00000e+00	
			         1.53167	6.00000e+00	
			         1.53333	6.00000e+00	
			         1.53500	7.00000e+00	
			         1.53667	8.00000e+00	
			         1.53833	8.00000e+00	
			         1.54000	9.00000e+00	
			         1.54167	9.00000e+00	
			         1.54333	9.00000e+00	
			         1.54500	9.00000e+00	
			         1.54667	9.00000e+00	
			         1.54833	9.00000e+00	
			         1.55000	9.00000e+00	
			         1.55167	9.00000e+00	
			         1.55333	1.00000e+01	
			         1.55500	1.00000e+01	
			         1.55667	1.00000e+01	
			         1.55833	1.10000e+01	
			         1.56000	1.10000e+01	
			         1.56167	1.10000e+01	
			         1.56333	1.20000e+01	
			         1.56500	1.20000e+01	
			         1.56667	1.20000e+01	
			         1.56833	1.30000e+01	
			         1.57000	1.30000e+01	
			         1.57167	1.30000e+01	
			         1.57333	1.40000e+01	
			         1.57500	1.40000e+01	
			         1.57667	1.50000e+01	
			         1.57833	1.60000e+01	
			         1.58000	1.70000e+01	
			         1.58167	1.80000e+01	
			         1.58333	1.80000e+01	
			         1.58500	1.90000e+01	
			         1.58667	1.90000e+01	
			         1.58833	2.00000e+01	
			         1.59000	2.10000e+01	
			         1.59167	2.10000e+01	
			         1.59333	2.20000e+01	
			         1.59500	2.30000e+01	
			         1.59667	2.40000e+01	
			         1.59833	2.40000e+01	
			         1.60000	2.50000e+01	
			         1.60167	2.60000e+01	
			         1.60333	2.70000e+01	
			         1.60500	2.80000e+01	
			         1.60667	2.90000e+01	
			         1.60833	2.90000e+01	
			         1.61000	3.00000e+01	
			         1.61167	3.00000e+01	
			         1.61333	3.00000e+01	
			         1.61500	3.00000e+01	
			         1.61667	2.90000e+01	
			         1.61833	2.80000e+01	
			         1.62000	2.70000e+01	
			         1.62167	2.60000e+01	
			         1.62333	2.50000e+01	
			         1.62500	2.40000e+01	
			         1.62667	2.30000e+01	
			         1.62833	2.20000e+01	
			         1.63000	2.10000e+01	
			         1.63167	2.10000e+01	
			         1.63333	2.00000e+01	
			         1.63500	1.90000e+01	
			         1.63667	1.90000e+01	
			         1.63833	1.80000e+01	
			         1.64000	1.80000e+01	
			         1.64167	1.70000e+01	
			         1.64333	1.70000e+01	
			         1.64500	1.60000e+01	
			         1.64667	1.50000e+01	
			         1.64833	1.40000e+01	
			         1.65000	1.20000e+01	
			         1.65167	1.10000e+01	
			         1.65333	9.00000e+00	
			         1.65500	7.00000e+00	
			         1.65667	5.00000e+00	
			         1.65833	3.00000e+00	
			         1.66000	1.00000e+00	
			         1.66167	-1.00000e+00	
			         1.66333	-3.00000e+00	
			         1.66500	-4.00000e+00	
			         1.66667	-6.00000e+00	
			         1.66833	-7.00000e+00	
			         1.67000	-8.00000e+00	
			         1.67167	-9.00000e+00	
			         1.67333	-1.00000e+01	
			         1.67500	-1.10000e+01	
			         1.67667	-1.20000e+01	
			         1.67833	-1.20000e+01	
			         1.68000	-1.30000e+01	
			         1.68167	-1.40000e+01	
			         1.68333	-1.50000e+01	
			         1.68500	-1.60000e+01	
			         1.68667	-1.70000e+01	
			         1.68833	-1.80000e+01	
			         1.69000	-1.80000e+01	
			         1.69167	-1.90000e+01	
			         1.69333	-2.00000e+01	
			         1.69500	-2.10000e+01	
			         1.69667	-2.10000e+01	
			         1.69833	-2.10000e+01	
			         1.70000	-2.10000e+01	
			         1.70167	-2.10000e+01	
			         1.70333	-2.10000e+01	
			         1.70500	-2.10000e+01	
			         1.70667	-2.00000e+01	
			         1.70833	-2.00000e+01	
			         1.71000	-2.00000e+01	
			         1.71167	-1.90000e+01	
			         1.71333	-1.90000e+01	
			         1.71500	-1.90000e+01	
			         1.71667	-1.90000e+01	
			         1.71833	-1.90000e+01	
			         1.72000	-1.90000e+01	
			         1.72167	-1.90000e+01	
			         1.72333	-1.90000e+01	
			         1.72500	-1.90000e+01	
			         1.72667	-1.90000e+01	
			         1.72833	-1.90000e+01	
			         1.73000	-1.80000e+01	
			         1.73167	-1.80000e+01	
			         1.73333	-1.70000e+01	
			         1.73500	-1.60000e+01	
			         1.73667	-1.40000e+01	
			         1.73833	-1.30000e+01	
			         1.74000	-1.20000e+01	
			         1.74167	-1.10000e+01	
			         1.74333	-1.00000e+01	
			         1.74500	-1.00000e+01	
			         1.74667	-9.00000e+00	
			         1.74833	-9.00000e+00	
			         1.75000	-9.00000e+00	
			         1.75167	-9.00000e+00	
			         1.75333	-1.00000e+01	
			         1.75500	-1.00000e+01	
			         1.75667	-1.10000e+01	
			         1.75833	-1.10000e+01	
			         1.76000	-1.20000e+01	
			         1.76167	-1.20000e+01	
			         1.76333	-1.30000e+01	
			         1.76500	-1.30000e+01	
			         1.76667	-1.30000e+01	
			         1.76833	-1.30000e+01	
			         1.77000	-1.30000e+01	
			         1.77167	-1.30000e+01	
			         1.77333	-1.20000e+01	
			         1.77500	-1.20000e+01	
			         1.77667	-1.10000e+01	
			         1.77833	-1.10000e+01	
			         1.78000	-1.00000e+01	
			         1.78167	-1.00000e+01	
			         1.78333	-1.00000e+01	
			         1.78500	-1.00000e+01	
			         1.78667	-1.00000e+01	
			         1.78833	-1.00000e+01	
			         1.79000	-1.00000e+01	
			         1.79167	-1.00000e+01	
			         1.79333	-1.00000e+01	
			         1.79500	-1.00000e+01	
			         1.79667	-1.00000e+01	
			         1.79833	-1.00000e+01	
			         1.80000	-1.00000e+01	
			         1.80167	-1.00000e+01	
			         1.80333	-1.00000e+01	
			         1.80500	-9.00000e+00	
			         1.80667	-9.00000e+00	
			         1.80833	-9.00000e+00	
			         1.81000	-9.00000e+00	
			         1.81167	-9.00000e+00	
			         1.81333	-1.00000e+01	
			         1.81500	-1.00000e+01	
			         1.81667	-1.00000e+01	
			         1.81833	-1.00000e+01	
			         1.82000	-1.00000e+01	
			         1.82167	-1.00000e+01	
			         1.82333	-9.00000e+00	
			         1.82500	-9.00000e+00	
			         1.82667	-8.00000e+00	
			         1.82833	-8.00000e+00	
			         1.83000	-8.00000e+00	
			         1.83167	-7.00000e+00	
			         1.83333	-6.00000e+00	
			         1.83500	-5.00000e+00	
			         1.83667	-4.00000e+00	
			         1.83833	-3.00000e+00	
			         1.84000	-3.00000e+00	
			         1.84167	-3.00000e+00	
			         1.84333	-3.00000e+00	
			         1.84500	-3.00000e+00	
			         1.84667	-3.00000e+00	
			         1.84833	-3.00000e+00	
			         1.85000	-3.00000e+00	
			         1.85167	-2.00000e+00	
			         1.85333	-2.00000e+00	
			         1.85500	-2.00000e+00	
			         1.85667	-2.00000e+00	
			         1.85833	-2.00000e+00	
			         1.86000	-2.00000e+00	
			         1.86167	-2.00000e+00	
			         1.86333	-2.00000e+00	
			         1.86500	-2.00000e+00	
			         1.86667	-2.00000e+00	
			         1.86833	-1.00000e+00	
			         1.87000	-1.00000e+00	
			         1.87167	-1.00000e+00	
			         1.87333	0.00000e+00	
			         1.87500	0.00000e+00	
			         1.87667	0.00000e+00	
			         1.87833	0.00000e+00	
			         1.88000	0.00000e+00	
			         1.88167	0.00000e+00	
			         1.88333	0.00000e+00	
			         1.88500	-1.00000e+00	
			         1.88667	-1.00000e+00	
			         1.88833	-2.00000e+00	
			         1.89000	-2.00000e+00	
			         1.89167	-3.00000e+00	
			         1.89333	-4.00000e+00	
			         1.89500	-5.00000e+00	
			         1.89667	-6.00000e+00	
			         1.89833	-7.00000e+00	
			         1.90000	-8.00000e+00	
			         1.90167	-9.00000e+00	
			         1.90333	-1.00000e+01	
			         1.90500	-1.10000e+01	
			         1.90667	-1.10000e+01	
			         1.90833	-1.10000e+01	
			         1.91000	-1.10000e+01	
			         1.91167	-1.00000e+01	
			         1.91333	-9.00000e+00	
			         1.91500	-8.00000e+00	
			         1.91667	-7.00000e+00	
			         1.91833	-5.00000e+00	
			         1.92000	-4.00000e+00	
			         1.92167	-2.00000e+00	
			         1.92333	0.00000e+00	
			         1.92500	1.00000e+00	
			         1.92667	2.00000e+00	
			         1.92833	3.00000e+00	
			         1.93000	4.00000e+00	
			         1.93167	4.00000e+00	
			         1.93333	4.00000e+00	
			         1.93500	4.00000e+00	
			         1.93667	3.00000e+00	
			         1.93833	3.00000e+00	
			         1.94000	2.00000e+00	
			         1.94167	2.00000e+00	
			         1.94333	1.00000e+00	
			         1.94500	0.00000e+00	
			         1.94667	0.00000e+00	
			         1.94833	-1.00000e+00	
			         1.95000	-2.00000e+00	
			         1.95167	-3.00000e+00	
			         1.95333	-4.00000e+00	
			         1.95500	-4.00000e+00	
			         1.95667	-5.00000e+00	
			         1.95833	-6.00000e+00	
			         1.96000	-6.00000e+00	
			         1.96167	-7.00000e+00	
			         1.96333	-7.00000e+00	
			         1.96500	-7.00000e+00	
			         1.96667	-7.00000e+00	
			         1.96833	-7.00000e+00	
			         1.97000	-7.00000e+00	
			         1.97167	-7.00000e+00	
			         1.97333	-7.00000e+00	
			         1.97500	-7.00000e+00	
			         1.97667	-7.00000e+00	
			         1.97833	-7.00000e+00	
			         1.98000	-6.00000e+00	
			         1.98167	-6.00000e+00	
			         1.98333	-5.00000e+00	
			         1.98500	-5.00000e+00	
			         1.98667	-4.00000e+00	
			         1.98833	-3.00000e+00	
			         1.99000	-2.00000e+00	
			         1.99167	-2.00000e+00	
			         1.99333	-1.00000e+00	
			         1.99500	0.00000e+00	
			         1.99667	0.00000e+00	
			         1.99833	1.00000e+00	
			         2.00000	1.00000e+00	
			         2.00167	1.00000e+00	
			         2.00333	1.00000e+00	
			         2.00500	0.00000e+00	
			         2.00667	-1.00000e+00	
			         2.00833	-1.00000e+00	
			         2.01000	-2.00000e+00	
			         2.01167	-3.00000e+00	
			         2.01333	-3.00000e+00	
			         2.01500	-4.00000e+00	
			         2.01667	-4.00000e+00	
			         2.01833	-4.00000e+00	
			         2.02000	-4.00000e+00	
			         2.02167	-4.00000e+00	
			         2.02333	-4.00000e+00	
			         2.02500	-3.00000e+00	
			         2.02667	-2.00000e+00	
			         2.02833	-1.00000e+00	
			         2.03000	-1.00000e+00	
			         2.03167	0.00000e+00	
			         2.03333	0.00000e+00	
			         2.03500	1.00000e+00	
			         2.03667	0.00000e+00	
			         2.03833	0.00000e+00	
			         2.04000	0.00000e+00	
			         2.04167	-1.00000e+00	
			         2.04333	-1.00000e+00	
			         2.04500	-2.00000e+00	
			         2.04667	-2.00000e+00	
			         2.04833	-3.00000e+00	
			         2.05000	-3.00000e+00	
			         2.05167	-3.00000e+00	
			         2.05333	-3.00000e+00	
			         2.05500	-3.00000e+00	
			         2.05667	-3.00000e+00	
			         2.05833	-3.00000e+00	
			         2.06000	-2.00000e+00	
			         2.06167	-2.00000e+00	
			         2.06333	-3.00000e+00	
			         2.06500	-3.00000e+00	
			         2.06667	-3.00000e+00	
			         2.06833	-4.00000e+00	
			         2.07000	-4.00000e+00	
			         2.07167	-4.00000e+00	
			         2.07333	-5.00000e+00	
			         2.07500	-5.00000e+00	
			         2.07667	-6.00000e+00	
			         2.07833	-6.00000e+00	
			         2.08000	-6.00000e+00	
			         2.08167	-6.00000e+00	
			         2.08333	-6.00000e+00	
			         2.08500	-6.00000e+00	
			         2.08667	-5.00000e+00	
			         2.08833	-5.00000e+00	
			         2.09000	-5.00000e+00	
			         2.09167	-5.00000e+00	
			         2.09333	-4.00000e+00	
			         2.09500	-4.00000e+00	
			         2.09667	-4.00000e+00	
			         2.09833	-4.00000e+00	
			         2.10000	-4.00000e+00	
			         2.10167	-3.00000e+00	
			         2.10333	-3.00000e+00	
			         2.10500	-3.00000e+00	
			         2.10667	-3.00000e+00	
			         2.10833	-2.00000e+00	
			         2.11000	-2.00000e+00	
			         2.11167	-2.00000e+00	
			         2.11333	-3.00000e+00	
			         2.11500	-3.00000e+00	
			         2.11667	-3.00000e+00	
			         2.11833	-4.00000e+00	
			         2.12000	-4.00000e+00	
			         2.12167	-5.00000e+00	
			         2.12333	-5.00000e+00	
			         2.12500	-5.00000e+00	
			         2.12667	-5.00000e+00	
			         2.12833	-5.00000e+00	
			         2.13000	-5.00000e+00	
			         2.13167	-4.00000e+00	
			         2.13333	-3.00000e+00	
			         2.13500	-2.00000e+00	
			         2.13667	-1.00000e+00	
			         2.13833	-1.00000e+00	
			         2.14000	0.00000e+00	
			         2.14167	1.00000e+00	
			         2.14333	1.00000e+00	
			         2.14500	2.00000e+00	
			         2.14667	2.00000e+00	
			         2.14833	2.00000e+00	
			         2.15000	2.00000e+00	
			         2.15167	2.00000e+00	
			         2.15333	1.00000e+00	
			         2.15500	1.00000e+00	
			         2.15667	1.00000e+00	
			         2.15833	0.00000e+00	
			         2.16000	0.00000e+00	
			         2.16167	-1.00000e+00	
			         2.16333	-2.00000e+00	
			         2.16500	-2.00000e+00	
			         2.16667	-3.00000e+00	
			         2.16833	-3.00000e+00	
			         2.17000	-3.00000e+00	
			         2.17167	-3.00000e+00	
			         2.17333	-3.00000e+00	
			         2.17500	-3.00000e+00	
			         2.17667	-3.00000e+00	
			         2.17833	-2.00000e+00	
			         2.18000	-1.00000e+00	
			         2.18167	0.00000e+00	
			         2.18333	1.00000e+00	
			         2.18500	2.00000e+00	
			         2.18667	2.00000e+00	
			         2.18833	3.00000e+00	
			         2.19000	3.00000e+00	
			         2.19167	4.00000e+00	
			         2.19333	4.00000e+00	
			         2.19500	4.00000e+00	
			         2.19667	4.00000e+00	
			         2.19833	3.00000e+00	
			         2.20000	3.00000e+00	
			         2.20167	2.00000e+00	
			         2.20333	1.00000e+00	
			         2.20500	0.00000e+00	
			         2.20667	-1.00000e+00	
			         2.20833	-1.00000e+00	
			         2.21000	-2.00000e+00	
			         2.21167	-2.00000e+00	
			         2.21333	-2.00000e+00	
			         2.21500	-2.00000e+00	
			         2.21667	-2.00000e+00	
			         2.21833	-2.00000e+00	
			         2.22000	-2.00000e+00	
			         2.22167	-1.00000e+00	
			         2.22333	-1.00000e+00	
			         2.22500	-1.00000e+00	
			         2.22667	0.00000e+00	
			         2.22833	0.00000e+00	
			         2.23000	0.00000e+00	
			         2.23167	0.00000e+00	
			         2.23333	0.00000e+00	
			         2.23500	0.00000e+00	
			         2.23667	-1.00000e+00	
			         2.23833	-1.00000e+00	
			         2.24000	-2.00000e+00	
			         2.24167	-2.00000e+00	
			         2.24333	-2.00000e+00	
			         2.24500	-2.00000e+00	
			         2.24667	-2.00000e+00	
			         2.24833	-2.00000e+00	
			         2.25000	-2.00000e+00	
			         2.25167	-2.00000e+00	
			         2.25333	-2.00000e+00	
			         2.25500	-1.00000e+00	
			         2.25667	-1.00000e+00	
			         2.25833	-1.00000e+00	
			         2.26000	0.00000e+00	
			         2.26167	0.00000e+00	
			         2.26333	1.00000e+00	
			         2.26500	1.00000e+00	
			         2.26667	2.00000e+00	
			         2.26833	2.00000e+00	
			         2.27000	2.00000e+00	
			         2.27167	2.00000e+00	
			         2.27333	2.00000e+00	
			         2.27500	2.00000e+00	
			         2.27667	1.00000e+00	
			         2.27833	1.00000e+00	
			         2.28000	1.00000e+00	
			         2.28167	1.00000e+00	
			         2.28333	0.00000e+00	
			         2.28500	0.00000e+00	
			         2.28667	0.00000e+00	
			         2.28833	0.00000e+00	
			         2.29000	0.00000e+00	
			         2.29167	0.00000e+00	
			         2.29333	0.00000e+00	
			         2.29500	0.00000e+00	
			         2.29667	0.00000e+00	
			         2.29833	0.00000e+00	
			         2.30000	0.00000e+00	
			         2.30167	0.00000e+00	
			         2.30333	0.00000e+00	
			         2.30500	-1.00000e+00	
			         2.30667	-1.00000e+00	
			         2.30833	-2.00000e+00	
			         2.31000	-2.00000e+00	
			         2.31167	-2.00000e+00	
			         2.31333	-2.00000e+00	
			         2.31500	-1.00000e+00	
			         2.31667	-1.00000e+00	
			         2.31833	-1.00000e+00	
			         2.32000	0.00000e+00	
			         2.32167	1.00000e+00	
			         2.32333	1.00000e+00	
			         2.32500	2.00000e+00	
			         2.32667	2.00000e+00	
			         2.32833	3.00000e+00	
			         2.33000	3.00000e+00	
			         2.33167	3.00000e+00	
			         2.33333	3.00000e+00	
			         2.33500	3.00000e+00	
			         2.33667	3.00000e+00	
			         2.33833	2.00000e+00	
			         2.34000	1.00000e+00	
			         2.34167	0.00000e+00	
			         2.34333	0.00000e+00	
			         2.34500	-1.00000e+00	
			         2.34667	-2.00000e+00	
			         2.34833	-2.00000e+00	
			         2.35000	-2.00000e+00	
			         2.35167	-2.00000e+00	
			         2.35333	-2.00000e+00	
			         2.35500	-1.00000e+00	
			         2.35667	0.00000e+00	
			         2.35833	1.00000e+00	
			         2.36000	2.00000e+00	
			         2.36167	4.00000e+00	
			         2.36333	5.00000e+00	
			         2.36500	6.00000e+00	
			         2.36667	7.00000e+00	
			         2.36833	8.00000e+00	
			         2.37000	9.00000e+00	
			         2.37167	9.00000e+00	
			         2.37333	9.00000e+00	
			         2.37500	9.00000e+00	
			         2.37667	9.00000e+00	
			         2.37833	8.00000e+00	
			         2.38000	8.00000e+00	
			         2.38167	8.00000e+00	
			         2.38333	7.00000e+00	
			         2.38500	7.00000e+00	
			         2.38667	7.00000e+00	
			         2.38833	7.00000e+00	
			         2.39000	6.00000e+00	
			         2.39167	6.00000e+00	
			         2.39333	7.00000e+00	
			         2.39500	7.00000e+00	
			         2.39667	7.00000e+00	
			         2.39833	7.00000e+00	
			         2.40000	7.00000e+00	
			         2.40167	7.00000e+00	
			         2.40333	7.00000e+00	
			         2.40500	8.00000e+00	
			         2.40667	8.00000e+00	
			         2.40833	8.00000e+00	
			         2.41000	8.00000e+00	
			         2.41167	8.00000e+00	
			         2.41333	8.00000e+00	
			         2.41500	8.00000e+00	
			         2.41667	8.00000e+00	
			         2.41833	8.00000e+00	
			         2.42000	7.00000e+00	
			         2.42167	7.00000e+00	
			         2.42333	6.00000e+00	
			         2.42500	5.00000e+00	
			         2.42667	5.00000e+00	
			         2.42833	4.00000e+00	
			         2.43000	3.00000e+00	
			         2.43167	2.00000e+00	
			         2.43333	1.00000e+00	
			         2.43500	0.00000e+00	
			         2.43667	0.00000e+00	
			         2.43833	-1.00000e+00	
			         2.44000	-2.00000e+00	
			         2.44167	-4.00000e+00	
			         2.44333	-5.00000e+00	
			         2.44500	-6.00000e+00	
			         2.44667	-7.00000e+00	
			         2.44833	-7.00000e+00	
			         2.45000	-8.00000e+00	
			         2.45167	-9.00000e+00	
			         2.45333	-9.00000e+00	
			         2.45500	-9.00000e+00	
			         2.45667	-9.00000e+00	
			         2.45833	-9.00000e+00	
			         2.46000	-9.00000e+00	
			         2.46167	-9.00000e+00	
			         2.46333	-8.00000e+00	
			         2.46500	-8.00000e+00	
			         2.46667	-7.00000e+00	
			         2.46833	-6.00000e+00	
			         2.47000	-5.00000e+00	
			         2.47167	-5.00000e+00	
			         2.47333	-4.00000e+00	
			         2.47500	-4.00000e+00	
			         2.47667	-4.00000e+00	
			         2.47833	-4.00000e+00	
			         2.48000	-3.00000e+00	
			         2.48167	-3.00000e+00	
			         2.48333	-3.00000e+00	
			         2.48500	-3.00000e+00	
			         2.48667	-3.00000e+00	
			         2.48833	-3.00000e+00	
			         2.49000	-3.00000e+00	
			         2.49167	-2.00000e+00	
			         2.49333	-2.00000e+00	
			         2.49500	-2.00000e+00	
			         2.49667	-2.00000e+00	
			         2.49833	-2.00000e+00	
			         2.50000	-2.00000e+00	
			         2.50167	-2.00000e+00	
			         2.50333	-2.00000e+00	
			         2.50500	-3.00000e+00	
			         2.50667	-4.00000e+00	
			         2.50833	-5.00000e+00	
			         2.51000	-7.00000e+00	
			         2.51167	-9.00000e+00	
			         2.51333	-1.20000e+01	
			         2.51500	-1.40000e+01	
			         2.51667	-1.70000e+01	
			         2.51833	-1.90000e+01	
			         2.52000	-2.10000e+01	
			         2.52167	-2.30000e+01	
			         2.52333	-2.40000e+01	
			         2.52500	-2.50000e+01	
			         2.52667	-2.50000e+01	
			         2.52833	-2.40000e+01	
			         2.53000	-2.20000e+01	
			         2.53167	-1.90000e+01	
			         2.53333	-1.60000e+01	
			         2.53500	-1.10000e+01	
			         2.53667	-5.00000e+00	
			         2.53833	2.00000e+00	
			         2.54000	9.00000e+00	
			         2.54167	1.80000e+01	
			         2.54333	2.90000e+01	
			         2.54500	4.00000e+01	
			         2.54667	5.20000e+01	
			         2.54833	6.40000e+01	
			         2.55000	7.70000e+01	
			         2.55167	8.90000e+01	
			         2.55333	1.00000e+02	
			         2.55500	1.10000e+02	
			         2.55667	1.17000e+02	
			         2.55833	1.23000e+02	
			         2.56000	1.27000e+02	
			         2.56167	1.28000e+02	
			         2.56333	1.26000e+02	
			         2.56500	1.22000e+02	
			         2.56667	1.15000e+02	
			         2.56833	1.07000e+02	
			         2.57000	9.70000e+01	
			         2.57167	8.60000e+01	
			         2.57333	7.40000e+01	
			         2.57500	6.20000e+01	
			         2.57667	5.00000e+01	
			         2.57833	3.90000e+01	
			         2.58000	2.80000e+01	
			         2.58167	1.80000e+01	
			         2.58333	9.00000e+00	
			         2.58500	0.00000e+00	
			         2.58667	-8.00000e+00	
			         2.58833	-1.50000e+01	
			         2.59000	-2.10000e+01	
			         2.59167	-2.60000e+01	
			         2.59333	-3.00000e+01	
			         2.59500	-3.40000e+01	
			         2.59667	-3.70000e+01	
			         2.59833	-3.90000e+01	
			         2.60000	-4.10000e+01	
			         2.60167	-4.20000e+01	
			         2.60333	-4.20000e+01	
			         2.60500	-4.20000e+01	
			         2.60667	-4.10000e+01	
			         2.60833	-4.10000e+01	
			         2.61000	-4.00000e+01	
			         2.61167	-3.80000e+01	
			         2.61333	-3.70000e+01	
			         2.61500	-3.60000e+01	
			         2.61667	-3.40000e+01	
			         2.61833	-3.30000e+01	
			         2.62000	-3.20000e+01	
			         2.62167	-3.10000e+01	
			         2.62333	-3.10000e+01	
			         2.62500	-3.00000e+01	
			         2.62667	-3.00000e+01	
			         2.62833	-2.90000e+01	
			         2.63000	-2.90000e+01	
			         2.63167	-2.90000e+01	
			         2.63333	-2.90000e+01	
			         2.63500	-2.90000e+01	
			         2.63667	-2.90000e+01	
			         2.63833	-2.80000e+01	
			         2.64000	-2.70000e+01	
			         2.64167	-2.60000e+01	
			         2.64333	-2.50000e+01	
			         2.64500	-2.40000e+01	
			         2.64667	-2.30000e+01	
			         2.64833	-2.10000e+01	
			         2.65000	-2.00000e+01	
			         2.65167	-1.90000e+01	
			         2.65333	-1.80000e+01	
			         2.65500	-1.70000e+01	
			         2.65667	-1.70000e+01	
			         2.65833	-1.70000e+01	
			         2.66000	-1.70000e+01	
			         2.66167	-1.70000e+01	
			         2.66333	-1.80000e+01	
			         2.66500	-1.80000e+01	
			         2.66667	-1.80000e+01	
			         2.66833	-1.70000e+01	
			         2.67000	-1.70000e+01	
			         2.67167	-1.60000e+01	
			         2.67333	-1.60000e+01	
			         2.67500	-1.50000e+01	
			         2.67667	-1.50000e+01	
			         2.67833	-1.40000e+01	
			         2.68000	-1.30000e+01	
			         2.68167	-1.30000e+01	
			         2.68333	-1.20000e+01	
			         2.68500	-1.20000e+01	
			         2.68667	-1.10000e+01	
			         2.68833	-1.10000e+01	
			         2.69000	-1.10000e+01	
			         2.69167	-1.10000e+01	
			         2.69333	-1.00000e+01	
			         2.69500	-1.00000e+01	
			         2.69667	-1.00000e+01	
			         2.69833	-9.00000e+00	
			         2.70000	-9.00000e+00	
			         2.70167	-8.00000e+00	
			         2.70333	-8.00000e+00	
			         2.70500	-7.00000e+00	
			         2.70667	-7.00000e+00	
			         2.70833	-7.00000e+00	
			         2.71000	-7.00000e+00	
			         2.71167	-7.00000e+00	
			         2.71333	-7.00000e+00	
			         2.71500	-7.00000e+00	
			         2.71667	-7.00000e+00	
			         2.71833	-7.00000e+00	
			         2.72000	-6.00000e+00	
			         2.72167	-6.00000e+00	
			         2.72333	-6.00000e+00	
			         2.72500	-5.00000e+00	
			         2.72667	-5.00000e+00	
			         2.72833	-4.00000e+00	
			         2.73000	-4.00000e+00	
			         2.73167	-3.00000e+00	
			         2.73333	-2.00000e+00	
			         2.73500	-1.00000e+00	
			         2.73667	0.00000e+00	
			         2.73833	0.00000e+00	
			         2.74000	1.00000e+00	
			         2.74167	1.00000e+00	
			         2.74333	2.00000e+00	
			         2.74500	2.00000e+00	
			         2.74667	2.00000e+00	
			         2.74833	2.00000e+00	
			         2.75000	2.00000e+00	
			         2.75167	1.00000e+00	
			         2.75333	0.00000e+00	
			         2.75500	-1.00000e+00	
			         2.75667	-1.00000e+00	
			         2.75833	-2.00000e+00	
			         2.76000	-2.00000e+00	
			         2.76167	-2.00000e+00	
			         2.76333	-2.00000e+00	
			         2.76500	-2.00000e+00	
			         2.76667	-1.00000e+00	
			         2.76833	-1.00000e+00	
			         2.77000	0.00000e+00	
			         2.77167	1.00000e+00	
			         2.77333	2.00000e+00	
			         2.77500	3.00000e+00	
			         2.77667	4.00000e+00	
			         2.77833	5.00000e+00	
			         2.78000	5.00000e+00	
			         2.78167	5.00000e+00	
			         2.78333	5.00000e+00	
			         2.78500	6.00000e+00	
			         2.78667	6.00000e+00	
			         2.78833	6.00000e+00	
			         2.79000	7.00000e+00	
			         2.79167	7.00000e+00	
			         2.79333	8.00000e+00	
			         2.79500	8.00000e+00	
			         2.79667	8.00000e+00	
			         2.79833	9.00000e+00	
			         2.80000	9.00000e+00	
			         2.80167	1.00000e+01	
			         2.80333	1.00000e+01	
			         2.80500	1.10000e+01	
			         2.80667	1.10000e+01	
			         2.80833	1.20000e+01	
			         2.81000	1.20000e+01	
			         2.81167	1.30000e+01	
			         2.81333	1.40000e+01	
			         2.81500	1.50000e+01	
			         2.81667	1.60000e+01	
			         2.81833	1.70000e+01	
			         2.82000	1.80000e+01	
			         2.82167	1.90000e+01	
			         2.82333	2.00000e+01	
			         2.82500	2.10000e+01	
			         2.82667	2.20000e+01	
			         2.82833	2.30000e+01	
			         2.83000	2.40000e+01	
			         2.83167	2.40000e+01	
			         2.83333	2.40000e+01	
			         2.83500	2.50000e+01	
			         2.83667	2.50000e+01	
			         2.83833	2.50000e+01	
			         2.84000	2.60000e+01	
			         2.84167	2.60000e+01	
			         2.84333	2.70000e+01	
			         2.84500	2.70000e+01	
			         2.84667	2.70000e+01	
			         2.84833	2.80000e+01	
			         2.85000	2.80000e+01	
			         2.85167	2.80000e+01	
			         2.85333	2.80000e+01	
			         2.85500	2.80000e+01	
			         2.85667	2.80000e+01	
			         2.85833	2.80000e+01	
			         2.86000	2.80000e+01	
			         2.86167	2.80000e+01	
			         2.86333	2.80000e+01	
			         2.86500	2.80000e+01	
			         2.86667	2.80000e+01	
			         2.86833	2.90000e+01	
			         2.87000	2.90000e+01	
			         2.87167	2.90000e+01	
			         2.87333	3.00000e+01	
			         2.87500	3.00000e+01	
			         2.87667	3.00000e+01	
			         2.87833	3.00000e+01	
			         2.88000	2.90000e+01	
			         2.88167	2.80000e+01	
			         2.88333	2.70000e+01	
			         2.88500	2.60000e+01	
			         2.88667	2.40000e+01	
			         2.88833	2.20000e+01	
			         2.89000	2.00000e+01	
			         2.89167	1.90000e+01	
			         2.89333	1.70000e+01	
			         2.89500	1.50000e+01	
			         2.89667	1.40000e+01	
			         2.89833	1.20000e+01	
			         2.90000	1.00000e+01	
			         2.90167	8.00000e+00	
			         2.90333	6.00000e+00	
			         2.90500	4.00000e+00	
			         2.90667	2.00000e+00	
			         2.90833	1.00000e+00	
			         2.91000	-1.00000e+00	
			         2.91167	-2.00000e+00	
			         2.91333	-3.00000e+00	
			         2.91500	-4.00000e+00	
			         2.91667	-5.00000e+00	
			         2.91833	-6.00000e+00	
			         2.92000	-7.00000e+00	
			         2.92167	-8.00000e+00	
			         2.92333	-9.00000e+00	
			         2.92500	-1.00000e+01	
			         2.92667	-1.10000e+01	
			         2.92833	-1.20000e+01	
			         2.93000	-1.30000e+01	
			         2.93167	-1.40000e+01	
			         2.93333	-1.50000e+01	
			         2.93500	-1.60000e+01	
			         2.93667	-1.70000e+01	
			         2.93833	-1.80000e+01	
			         2.94000	-1.90000e+01	
			         2.94167	-1.90000e+01	
			         2.94333	-2.00000e+01	
			         2.94500	-2.00000e+01	
			         2.94667	-2.00000e+01	
			         2.94833	-1.90000e+01	
			         2.95000	-1.90000e+01	
			         2.95167	-1.90000e+01	
			         2.95333	-1.80000e+01	
			         2.95500	-1.80000e+01	
			         2.95667	-1.70000e+01	
			         2.95833	-1.70000e+01	
			         2.96000	-1.60000e+01	
			         2.96167	-1.60000e+01	
			         2.96333	-1.60000e+01	
			         2.96500	-1.60000e+01	
			         2.96667	-1.70000e+01	
			         2.96833	-1.70000e+01	
			         2.97000	-1.70000e+01	
			         2.97167	-1.70000e+01	
			         2.97333	-1.80000e+01	
			         2.97500	-1.80000e+01	
			         2.97667	-1.80000e+01	
			         2.97833	-1.80000e+01	
			         2.98000	-1.70000e+01	
			         2.98167	-1.70000e+01	
			         2.98333	-1.70000e+01	
			         2.98500	-1.70000e+01	
			         2.98667	-1.70000e+01	
			         2.98833	-1.80000e+01	
			         2.99000	-1.80000e+01	
			         2.99167	-1.80000e+01	
			         2.99333	-1.80000e+01	
			         2.99500	-1.80000e+01	
			         2.99667	-1.80000e+01	
			         2.99833	-1.80000e+01	
			         3.00000	-1.80000e+01	
			         3.00167	-1.70000e+01	
			         3.00333	-1.70000e+01	
			         3.00500	-1.60000e+01	
			         3.00667	-1.50000e+01	
			         3.00833	-1.40000e+01	
			         3.01000	-1.30000e+01	
			         3.01167	-1.20000e+01	
			         3.01333	-1.10000e+01	
			         3.01500	-1.10000e+01	
			         3.01667	-1.00000e+01	
			         3.01833	-1.00000e+01	
			         3.02000	-1.00000e+01	
			         3.02167	-9.00000e+00	
			         3.02333	-1.00000e+01	
			         3.02500	-1.00000e+01	
			         3.02667	-1.00000e+01	
			         3.02833	-1.10000e+01	
			         3.03000	-1.20000e+01	
			         3.03167	-1.20000e+01	
			         3.03333	-1.30000e+01	
			         3.03500	-1.30000e+01	
			         3.03667	-1.30000e+01	
			         3.03833	-1.40000e+01	
			         3.04000	-1.40000e+01	
			         3.04167	-1.40000e+01	
			         3.04333	-1.30000e+01	
			         3.04500	-1.30000e+01	
			         3.04667	-1.20000e+01	
			         3.04833	-1.10000e+01	
			         3.05000	-1.00000e+01	
			         3.05167	-9.00000e+00	
			         3.05333	-9.00000e+00	
			         3.05500	-8.00000e+00	
			         3.05667	-8.00000e+00	
			         3.05833	-8.00000e+00	
			         3.06000	-8.00000e+00	
			         3.06167	-8.00000e+00	
			         3.06333	-8.00000e+00	
			         3.06500	-8.00000e+00	
			         3.06667	-9.00000e+00	
			         3.06833	-9.00000e+00	
			         3.07000	-9.00000e+00	
			         3.07167	-9.00000e+00	
			         3.07333	-9.00000e+00	
			         3.07500	-8.00000e+00	
			         3.07667	-8.00000e+00	
			         3.07833	-7.00000e+00	
			         3.08000	-6.00000e+00	
			         3.08167	-5.00000e+00	
			         3.08333	-4.00000e+00	
			         3.08500	-3.00000e+00	
			         3.08667	-2.00000e+00	
			         3.08833	-1.00000e+00	
			         3.09000	0.00000e+00	
			         3.09167	0.00000e+00	
			         3.09333	0.00000e+00	
			         3.09500	0.00000e+00	
			         3.09667	0.00000e+00	
			         3.09833	0.00000e+00	
			         3.10000	0.00000e+00	
			         3.10167	-1.00000e+00	
			         3.10333	-2.00000e+00	
			         3.10500	-3.00000e+00	
			         3.10667	-4.00000e+00	
			         3.10833	-5.00000e+00	
			         3.11000	-6.00000e+00	
			         3.11167	-7.00000e+00	
			         3.11333	-8.00000e+00	
			         3.11500	-8.00000e+00	
			         3.11667	-8.00000e+00	
			         3.11833	-8.00000e+00	
			         3.12000	-8.00000e+00	
			         3.12167	-8.00000e+00	
			         3.12333	-8.00000e+00	
			         3.12500	-7.00000e+00	
			         3.12667	-6.00000e+00	
			         3.12833	-5.00000e+00	
			         3.13000	-4.00000e+00	
			         3.13167	-3.00000e+00	
			         3.13333	-3.00000e+00	
			         3.13500	-3.00000e+00	
			         3.13667	-3.00000e+00	
			         3.13833	-3.00000e+00	
			         3.14000	-3.00000e+00	
			         3.14167	-3.00000e+00	
			         3.14333	-3.00000e+00	
			         3.14500	-3.00000e+00	
			         3.14667	-3.00000e+00	
			         3.14833	-4.00000e+00	
			         3.15000	-4.00000e+00	
			         3.15167	-4.00000e+00	
			         3.15333	-4.00000e+00	
			         3.15500	-4.00000e+00	
			         3.15667	-5.00000e+00	
			         3.15833	-5.00000e+00	
			         3.16000	-5.00000e+00	
			         3.16167	-5.00000e+00	
			         3.16333	-6.00000e+00	
			         3.16500	-6.00000e+00	
			         3.16667	-6.00000e+00	
			         3.16833	-6.00000e+00	
			         3.17000	-6.00000e+00	
			         3.17167	-5.00000e+00	
			         3.17333	-5.00000e+00	
			         3.17500	-4.00000e+00	
			         3.17667	-3.00000e+00	
			         3.17833	-2.00000e+00	
			         3.18000	-1.00000e+00	
			         3.18167	0.00000e+00	
			         3.18333	1.00000e+00	
			         3.18500	2.00000e+00	
			         3.18667	2.00000e+00	
			         3.18833	2.00000e+00	
			         3.19000	2.00000e+00	
			         3.19167	2.00000e+00	
			         3.19333	2.00000e+00	
			         3.19500	1.00000e+00	
			         3.19667	1.00000e+00	
			         3.19833	0.00000e+00	
			         3.20000	-1.00000e+00	
			         3.20167	-1.00000e+00	
			         3.20333	-2.00000e+00	
			         3.20500	-2.00000e+00	
			         3.20667	-2.00000e+00	
			         3.20833	-2.00000e+00	
			         3.21000	-3.00000e+00	
			         3.21167	-2.00000e+00	
			         3.21333	-2.00000e+00	
			         3.21500	-2.00000e+00	
			         3.21667	-2.00000e+00	
			         3.21833	-2.00000e+00	
			         3.22000	-1.00000e+00	
			         3.22167	-1.00000e+00	
			         3.22333	-1.00000e+00	
			         3.22500	-1.00000e+00	
			         3.22667	-1.00000e+00	
			         3.22833	-2.00000e+00	
			         3.23000	-2.00000e+00	
			         3.23167	-2.00000e+00	
			         3.23333	-3.00000e+00	
			         3.23500	-3.00000e+00	
			         3.23667	-4.00000e+00	
			         3.23833	-4.00000e+00	
			         3.24000	-5.00000e+00	
			         3.24167	-5.00000e+00	
			         3.24333	-5.00000e+00	
			         3.24500	-5.00000e+00	
			         3.24667	-5.00000e+00	
			         3.24833	-4.00000e+00	
			         3.25000	-4.00000e+00	
			         3.25167	-4.00000e+00	
			         3.25333	-3.00000e+00	
			         3.25500	-3.00000e+00	
			         3.25667	-3.00000e+00	
			         3.25833	-2.00000e+00	
			         3.26000	-2.00000e+00	
			         3.26167	-1.00000e+00	
			         3.26333	-1.00000e+00	
			         3.26500	-1.00000e+00	
			         3.26667	-1.00000e+00	
			         3.26833	-1.00000e+00	
			         3.27000	-1.00000e+00	
			         3.27167	-1.00000e+00	
			         3.27333	-1.00000e+00	
			         3.27500	-1.00000e+00	
			         3.27667	-1.00000e+00	
			         3.27833	-1.00000e+00	
			         3.28000	-2.00000e+00	
			         3.28167	-2.00000e+00	
			         3.28333	-3.00000e+00	
			         3.28500	-3.00000e+00	
			         3.28667	-4.00000e+00	
			         3.28833	-4.00000e+00	
			         3.29000	-4.00000e+00	
			         3.29167	-4.00000e+00	
			         3.29333	-4.00000e+00	
			         3.29500	-4.00000e+00	
			         3.29667	-4.00000e+00	
			         3.29833	-4.00000e+00	
			         3.30000	-3.00000e+00	
			         3.30167	-3.00000e+00	
			         3.30333	-2.00000e+00	
			         3.30500	-2.00000e+00	
			         3.30667	-1.00000e+00	
			         3.30833	-1.00000e+00	
			         3.31000	-1.00000e+00	
			         3.31167	-1.00000e+00	
			         3.31333	-1.00000e+00	
			         3.31500	-2.00000e+00	
			         3.31667	-2.00000e+00	
			         3.31833	-2.00000e+00	
			         3.32000	-2.00000e+00	
			         3.32167	-2.00000e+00	
			         3.32333	-2.00000e+00	
			         3.32500	-2.00000e+00	
			         3.32667	-2.00000e+00	
			         3.32833	-1.00000e+00	
			         3.33000	-1.00000e+00	
			         3.33167	-1.00000e+00	
			         3.33333	-1.00000e+00	
			         3.33500	-1.00000e+00	
			         3.33667	-1.00000e+00	
			         3.33833	-1.00000e+00	
			         3.34000	-1.00000e+00	
			         3.34167	0.00000e+00	
			         3.34333	0.00000e+00	
			         3.34500	0.00000e+00	
			         3.34667	0.00000e+00	
			         3.34833	0.00000e+00	
			         3.35000	0.00000e+00	
			         3.35167	1.00000e+00	
			         3.35333	1.00000e+00	
			         3.35500	1.00000e+00	
			         3.35667	2.00000e+00	
			         3.35833	2.00000e+00	
			         3.36000	2.00000e+00	
			         3.36167	2.00000e+00	
			         3.36333	2.00000e+00	
			         3.36500	2.00000e+00	
			         3.36667	2.00000e+00	
			         3.36833	1.00000e+00	
			         3.37000	1.00000e+00	
			         3.37167	2.00000e+00	
			         3.37333	2.00000e+00	
			         3.37500	3.00000e+00	
			         3.37667	3.00000e+00	
			         3.37833	4.00000e+00	
			         3.38000	4.00000e+00	
			         3.38167	5.00000e+00	
			         3.38333	5.00000e+00	
			         3.38500	6.00000e+00	
			         3.38667	7.00000e+00	
			         3.38833	7.00000e+00	
			         3.39000	7.00000e+00	
			         3.39167	7.00000e+00	
			         3.39333	7.00000e+00	
			         3.39500	7.00000e+00	
			         3.39667	6.00000e+00	
			         3.39833	6.00000e+00	
			         3.40000	5.00000e+00	
			         3.40167	5.00000e+00	
			         3.40333	4.00000e+00	
			         3.40500	4.00000e+00	
			         3.40667	3.00000e+00	
			         3.40833	3.00000e+00	
			         3.41000	4.00000e+00	
			         3.41167	4.00000e+00	
			         3.41333	4.00000e+00	
			         3.41500	4.00000e+00	
			         3.41667	4.00000e+00	
			         3.41833	4.00000e+00	
			         3.42000	4.00000e+00	
			         3.42167	4.00000e+00	
			         3.42333	4.00000e+00	
			         3.42500	4.00000e+00	
			         3.42667	4.00000e+00	
			         3.42833	4.00000e+00	
			         3.43000	3.00000e+00	
			         3.43167	3.00000e+00	
			         3.43333	3.00000e+00	
			         3.43500	3.00000e+00	
			         3.43667	2.00000e+00	
			         3.43833	2.00000e+00	
			         3.44000	2.00000e+00	
			         3.44167	2.00000e+00	
			         3.44333	2.00000e+00	
			         3.44500	2.00000e+00	
			         3.44667	2.00000e+00	
			         3.44833	1.00000e+00	
			         3.45000	1.00000e+00	
			         3.45167	0.00000e+00	
			         3.45333	-1.00000e+00	
			         3.45500	-1.00000e+00	
			         3.45667	-2.00000e+00	
			         3.45833	-3.00000e+00	
			         3.46000	-4.00000e+00	
			         3.46167	-4.00000e+00	
			         3.46333	-5.00000e+00	
			         3.46500	-5.00000e+00	
			         3.46667	-5.00000e+00	
			         3.46833	-5.00000e+00	
			         3.47000	-4.00000e+00	
			         3.47167	-3.00000e+00	
			         3.47333	-2.00000e+00	
			         3.47500	-1.00000e+00	
			         3.47667	0.00000e+00	
			         3.47833	1.00000e+00	
			         3.48000	1.00000e+00	
			         3.48167	2.00000e+00	
			         3.48333	2.00000e+00	
			         3.48500	3.00000e+00	
			         3.48667	3.00000e+00	
			         3.48833	3.00000e+00	
			         3.49000	3.00000e+00	
			         3.49167	2.00000e+00	
			         3.49333	2.00000e+00	
			         3.49500	2.00000e+00	
			         3.49667	2.00000e+00	
			         3.49833	2.00000e+00	
			         3.50000	2.00000e+00	
			         3.50167	2.00000e+00	
			         3.50333	2.00000e+00	
			         3.50500	2.00000e+00	
			         3.50667	2.00000e+00	
			         3.50833	2.00000e+00	
			         3.51000	2.00000e+00	
			         3.51167	2.00000e+00	
			         3.51333	1.00000e+00	
			         3.51500	1.00000e+00	
			         3.51667	1.00000e+00	
			         3.51833	0.00000e+00	
			         3.52000	0.00000e+00	
			         3.52167	0.00000e+00	
			         3.52333	-1.00000e+00	
			         3.52500	-1.00000e+00	
			         3.52667	-2.00000e+00	
			         3.52833	-2.00000e+00	
			         3.53000	-2.00000e+00	
			         3.53167	-2.00000e+00	
			         3.53333	-2.00000e+00	
			         3.53500	-3.00000e+00	
			         3.53667	-3.00000e+00	
			         3.53833	-4.00000e+00	
			         3.54000	-5.00000e+00	
			         3.54167	-6.00000e+00	
			         3.54333	-6.00000e+00	
			         3.54500	-7.00000e+00	
			         3.54667	-7.00000e+00	
			         3.54833	-6.00000e+00	
			         3.55000	-6.00000e+00	
			         3.55167	-5.00000e+00	
			         3.55333	-4.00000e+00	
			         3.55500	-3.00000e+00	
			         3.55667	-2.00000e+00	
			         3.55833	-1.00000e+00	
			         3.56000	0.00000e+00	
			         3.56167	1.00000e+00	
			         3.56333	2.00000e+00	
			         3.56500	3.00000e+00	
			         3.56667	3.00000e+00	
			         3.56833	4.00000e+00	
			         3.57000	4.00000e+00	
			         3.57167	4.00000e+00	
			         3.57333	4.00000e+00	
			         3.57500	5.00000e+00	
			         3.57667	5.00000e+00	
			         3.57833	5.00000e+00	
			         3.58000	6.00000e+00	
			         3.58167	6.00000e+00	
			         3.58333	6.00000e+00	
			         3.58500	6.00000e+00	
			         3.58667	6.00000e+00	
			         3.58833	6.00000e+00	
			         3.59000	6.00000e+00	
			         3.59167	5.00000e+00	
			         3.59333	5.00000e+00	
			         3.59500	4.00000e+00	
			         3.59667	4.00000e+00	
			         3.59833	4.00000e+00	
			         3.60000	5.00000e+00	
			         3.60167	5.00000e+00	
			         3.60333	5.00000e+00	
			         3.60500	6.00000e+00	
			         3.60667	6.00000e+00	
			         3.60833	6.00000e+00	
			         3.61000	7.00000e+00	
			         3.61167	8.00000e+00	
			         3.61333	8.00000e+00	
			         3.61500	8.00000e+00	
			         3.61667	9.00000e+00	
			         3.61833	9.00000e+00	
			         3.62000	9.00000e+00	
			         3.62167	9.00000e+00	
			         3.62333	9.00000e+00	
			         3.62500	9.00000e+00	
			         3.62667	1.00000e+01	
			         3.62833	1.00000e+01	
			         3.63000	9.00000e+00	
			         3.63167	9.00000e+00	
			         3.63333	8.00000e+00	
			         3.63500	8.00000e+00	
			         3.63667	7.00000e+00	
			         3.63833	6.00000e+00	
			         3.64000	4.00000e+00	
			         3.64167	4.00000e+00	
			         3.64333	3.00000e+00	
			         3.64500	2.00000e+00	
			         3.64667	2.00000e+00	
			         3.64833	3.00000e+00	
			         3.65000	3.00000e+00	
			         3.65167	4.00000e+00	
			         3.65333	4.00000e+00	
			         3.65500	5.00000e+00	
			         3.65667	6.00000e+00	
			         3.65833	7.00000e+00	
			         3.66000	8.00000e+00	
			         3.66167	8.00000e+00	
			         3.66333	8.00000e+00	
			         3.66500	8.00000e+00	
			         3.66667	8.00000e+00	
			         3.66833	7.00000e+00	
			         3.67000	7.00000e+00	
			         3.67167	6.00000e+00	
			         3.67333	5.00000e+00	
			         3.67500	4.00000e+00	
			         3.67667	3.00000e+00	
			         3.67833	2.00000e+00	
			         3.68000	1.00000e+00	
			         3.68167	0.00000e+00	
			         3.68333	-1.00000e+00	
			         3.68500	-2.00000e+00	
			         3.68667	-3.00000e+00	
			         3.68833	-5.00000e+00	
			         3.69000	-6.00000e+00	
			         3.69167	-7.00000e+00	
			         3.69333	-8.00000e+00	
			         3.69500	-9.00000e+00	
			         3.69667	-1.00000e+01	
			         3.69833	-1.10000e+01	
			         3.70000	-1.10000e+01	
			         3.70167	-1.20000e+01	
			         3.70333	-1.20000e+01	
			         3.70500	-1.20000e+01	
			         3.70667	-1.20000e+01	
			         3.70833	-1.20000e+01	
			         3.71000	-1.20000e+01	
			         3.71167	-1.20000e+01	
			         3.71333	-1.10000e+01	
			         3.71500	-1.10000e+01	
			         3.71667	-1.10000e+01	
			         3.71833	-1.00000e+01	
			         3.72000	-1.00000e+01	
			         3.72167	-1.00000e+01	
			         3.72333	-9.00000e+00	
			         3.72500	-9.00000e+00	
			         3.72667	-9.00000e+00	
			         3.72833	-9.00000e+00	
			         3.73000	-9.00000e+00	
			         3.73167	-9.00000e+00	
			         3.73333	-9.00000e+00	
			         3.73500	-8.00000e+00	
			         3.73667	-8.00000e+00	
			         3.73833	-8.00000e+00	
			         3.74000	-8.00000e+00	
			         3.74167	-8.00000e+00	
			         3.74333	-8.00000e+00	
			         3.74500	-8.00000e+00	
			         3.74667	-8.00000e+00	
			         3.74833	-8.00000e+00	
			         3.75000	-9.00000e+00	
			         3.75167	-9.00000e+00	
			         3.75333	-1.00000e+01	
			         3.75500	-1.10000e+01	
			         3.75667	-1.20000e+01	
			         3.75833	-1.30000e+01	
			         3.76000	-1.40000e+01	
			         3.76167	-1.60000e+01	
			         3.76333	-1.70000e+01	
			         3.76500	-1.80000e+01	
			         3.76667	-2.00000e+01	
			         3.76833	-2.00000e+01	
			         3.77000	-2.10000e+01	
			         3.77167	-2.10000e+01	
			         3.77333	-2.10000e+01	
			         3.77500	-2.00000e+01	
			         3.77667	-1.90000e+01	
			         3.77833	-1.70000e+01	
			         3.78000	-1.40000e+01	
			         3.78167	-1.00000e+01	
			         3.78333	-4.00000e+00	
			         3.78500	2.00000e+00	
			         3.78667	1.00000e+01	
			         3.78833	1.80000e+01	
			         3.79000	2.80000e+01	
			         3.79167	4.00000e+01	
			         3.79333	5.10000e+01	
			         3.79500	6.40000e+01	
			         3.79667	7.70000e+01	
			         3.79833	8.90000e+01	
			         3.80000	1.00000e+02	
			         3.80167	1.09000e+02	
			         3.80333	1.17000e+02	
			         3.80500	1.23000e+02	
			         3.80667	1.27000e+02	
			         3.80833	1.28000e+02	
			         3.81000	1.26000e+02	
			         3.81167	1.22000e+02	
			         3.81333	1.16000e+02	
			         3.81500	1.07000e+02	
			         3.81667	9.70000e+01	
			         3.81833	8.60000e+01	
			         3.82000	7.40000e+01	
			         3.82167	6.10000e+01	
			         3.82333	4.90000e+01	
			         3.82500	3.70000e+01	
			         3.82667	2.60000e+01	
			         3.82833	1.50000e+01	
			         3.83000	5.00000e+00	
			         3.83167	-4.00000e+00	
			         3.83333	-1.20000e+01	
			         3.83500	-1.90000e+01	
			         3.83667	-2.60000e+01	
			         3.83833	-3.10000e+01	
			         3.84000	-3.60000e+01	
			         3.84167	-4.00000e+01	
			         3.84333	-4.30000e+01	
			         3.84500	-4.60000e+01	
			         3.84667	-4.80000e+01	
			         3.84833	-4.90000e+01	
			         3.85000	-4.90000e+01	
			         3.85167	-4.90000e+01	
			         3.85333	-4.80000e+01	
