Velocity (TVI), in cm/s

Time (s) :	Trace 1 : 		Ecg : 		
0.00860   	-6.20571e-01		         0.00000	-1.00000e+00	
0.01773   	-3.37649e-01		         0.00167	1.00000e+00	
0.02685   	4.71207e-01		         0.00333	3.00000e+00	
0.03597   	1.79620e+00		         0.00500	6.00000e+00	
0.04536   	3.39369e+00		         0.00667	1.10000e+01	
0.05448   	4.39121e+00		         0.00833	1.90000e+01	
0.06360   	4.25598e+00		         0.01000	2.80000e+01	
0.07272   	3.41824e+00		         0.01167	4.00000e+01	
0.08212   	2.59748e+00		         0.01333	5.40000e+01	
0.09123   	2.13948e+00		         0.01500	7.10000e+01	
0.10035   	2.58732e+00		         0.01667	9.00000e+01	
0.10948   	3.67072e+00		         0.01833	1.10000e+02	
0.11887   	5.27767e+00		         0.02000	1.31000e+02	
0.12799   	6.24874e+00		         0.02167	1.52000e+02	
0.13711   	6.68004e+00		         0.02333	1.72000e+02	
0.14623   	6.66403e+00		         0.02500	1.91000e+02	
0.15562   	6.50208e+00		         0.02667	2.08000e+02	
0.16474   	6.23752e+00		         0.02833	2.20000e+02	
0.17386   	5.90979e+00		         0.03000	2.28000e+02	
0.18298   	5.62307e+00		         0.03167	2.30000e+02	
0.19237   	5.39291e+00		         0.03333	2.25000e+02	
0.20150   	5.28861e+00		         0.03500	2.14000e+02	
0.21061   	5.20020e+00		         0.03667	1.97000e+02	
0.21973   	5.14097e+00		         0.03833	1.75000e+02	
0.22913   	4.99654e+00		         0.04000	1.48000e+02	
0.23825   	4.86480e+00		         0.04167	1.18000e+02	
0.24737   	4.72637e+00		         0.04333	8.60000e+01	
0.25649   	4.68242e+00		         0.04500	5.30000e+01	
0.26588   	4.57319e+00		         0.04667	2.00000e+01	
0.27500   	4.48832e+00		         0.04833	-1.10000e+01	
0.28412   	4.28094e+00		         0.05000	-4.00000e+01	
0.29324   	4.17635e+00		         0.05167	-6.50000e+01	
0.30263   	3.98384e+00		         0.05333	-8.50000e+01	
0.31176   	3.70783e+00		         0.05500	-1.00000e+02	
0.32123   	3.39697e+00		         0.05667	-1.11000e+02	
0.33000   	3.06672e+00		         0.05833	-1.17000e+02	
0.33939   	2.85232e+00		         0.06000	-1.18000e+02	
0.34851   	2.62969e+00		         0.06167	-1.17000e+02	
0.35763   	2.41790e+00		         0.06333	-1.13000e+02	
0.36675   	2.14162e+00		         0.06500	-1.06000e+02	
0.37614   	1.71953e+00		         0.06667	-9.90000e+01	
0.38526   	1.20799e+00		         0.06833	-9.00000e+01	
0.39439   	4.13770e-01		         0.07000	-8.10000e+01	
0.40350   	-4.97211e-01		         0.07167	-7.20000e+01	
0.41290   	-1.08193e+00		         0.07333	-6.30000e+01	
0.42202   	-4.65795e-01		         0.07500	-5.50000e+01	
0.43113   	2.15573e-01		         0.07667	-4.80000e+01	
0.44026   	3.99646e-01		         0.07833	-4.30000e+01	
0.44965   	-2.14806e-01		         0.08000	-3.80000e+01	
0.45877   	-4.63788e-01		         0.08167	-3.40000e+01	
0.46789   	-5.10245e-01		         0.08333	-3.10000e+01	
0.47701   	-7.18061e-01		         0.08500	-2.90000e+01	
0.48640   	-1.53909e+00		         0.08667	-2.70000e+01	
0.49552   	-2.44365e+00		         0.08833	-2.60000e+01	
0.50464   	-3.70952e+00		         0.09000	-2.60000e+01	
0.51377   	-4.92657e+00		         0.09167	-2.50000e+01	
0.52316   	-5.97676e+00		         0.09333	-2.50000e+01	
0.53228   	-6.27657e+00		         0.09500	-2.50000e+01	
0.54140   	-6.13368e+00		         0.09667	-2.40000e+01	
0.55052   	-5.87623e+00		         0.09833	-2.30000e+01	
0.55991   	-5.73879e+00		         0.10000	-2.20000e+01	
0.56903   	-5.33267e+00		         0.10167	-2.20000e+01	
0.57815   	-4.64061e+00		         0.10333	-2.00000e+01	
0.58727   	-3.96224e+00		         0.10500	-1.90000e+01	
0.59666   	-3.53031e+00		         0.10667	-1.80000e+01	
0.60578   	-3.36551e+00		         0.10833	-1.70000e+01	
0.61491   	-3.20598e+00		         0.11000	-1.60000e+01	
0.62403   	-2.92108e+00		         0.11167	-1.50000e+01	
0.63342   	-2.47822e+00		         0.11333	-1.40000e+01	
0.64254   	-2.12435e+00		         0.11500	-1.30000e+01	
0.65166   	-1.84978e+00		         0.11667	-1.30000e+01	
0.66078   	-1.72355e+00		         0.11833	-1.20000e+01	
0.67017   	-1.47510e+00		         0.12000	-1.20000e+01	
0.67929   	-1.23471e+00		         0.12167	-1.10000e+01	
0.68841   	-9.38900e-01		         0.12333	-1.10000e+01	
0.69754   	-6.71231e-01		         0.12500	-1.00000e+01	
0.70693   	-4.42733e-01		         0.12667	-1.00000e+01	
0.71605   	-2.56314e-01		         0.12833	-9.00000e+00	
0.72517   	-1.57893e-01		         0.13000	-9.00000e+00	
0.73429   	-4.57373e-02		         0.13167	-8.00000e+00	
0.74368   	1.34083e-02		         0.13333	-8.00000e+00	
0.75289   	7.30676e-02		         0.13500	-7.00000e+00	
0.76192   	6.19225e-02		         0.13667	-7.00000e+00	
0.77104   	3.33937e-02		         0.13833	-6.00000e+00	
0.78043   	-2.04311e-03		         0.14000	-6.00000e+00	
0.78955   	-4.34787e-02		         0.14167	-5.00000e+00	
0.79867   	-2.40374e-01		         0.14333	-4.00000e+00	
0.80780   	-9.07876e-01		         0.14500	-3.00000e+00	
0.81719   	-2.43625e+00		         0.14667	-2.00000e+00	
0.82631   	-4.84771e+00		         0.14833	-2.00000e+00	
0.83543   	-7.55897e+00		         0.15000	-1.00000e+00	
0.84455   	-9.62210e+00		         0.15167	1.00000e+00	
0.85394   	-1.03523e+01		         0.15333	2.00000e+00	
0.86306   	-1.00865e+01		         0.15500	4.00000e+00	
0.87218   	-8.91723e+00		         0.15667	5.00000e+00	
0.88130   	-7.14322e+00		         0.15833	6.00000e+00	
0.89069   	-5.24303e+00		         0.16000	7.00000e+00	
0.89981   	-3.81434e+00		         0.16167	8.00000e+00	
0.90894   	-3.07619e+00		         0.16333	9.00000e+00	
0.91805   	-2.39223e+00		         0.16500	1.00000e+01	
0.92745   	-1.39332e+00		         0.16667	1.00000e+01	
0.93657   	-1.75244e-03		         0.16833	1.10000e+01	
0.94569   	1.47209e+00		         0.17000	1.10000e+01	
0.95481   	2.96250e+00		         0.17167	1.10000e+01	
0.96420   	3.80401e+00		         0.17333	1.10000e+01	
0.97332   	3.60649e+00		         0.17500	1.10000e+01	
0.98244   	2.37500e+00		         0.17667	1.10000e+01	
0.99156   	1.25238e+00		         0.17833	1.10000e+01	
1.00095   	9.01365e-01		         0.18000	1.20000e+01	
1.01008   	1.79370e+00		         0.18167	1.20000e+01	
1.01920   	3.19386e+00		         0.18333	1.30000e+01	
1.02832   	4.86245e+00		         0.18500	1.30000e+01	
1.03771   	5.88263e+00		         0.18667	1.40000e+01	
1.04683   	6.30360e+00		         0.18833	1.50000e+01	
1.05595   	6.25830e+00		         0.19000	1.60000e+01	
1.06507   	6.00671e+00		         0.19167	1.70000e+01	
1.07446   	5.68551e+00		         0.19333	1.70000e+01	
1.08359   	5.40665e+00		         0.19500	1.70000e+01	
1.09270   	5.26730e+00		         0.19667	1.80000e+01	
1.10182   	5.21139e+00		         0.19833	1.80000e+01	
1.11122   	5.26284e+00		         0.20000	1.80000e+01	
1.12033   	5.19569e+00		         0.20167	1.70000e+01	
1.12946   	5.10689e+00		         0.20333	1.70000e+01	
1.13858   	4.95438e+00		         0.20500	1.70000e+01	
1.14797   	4.85421e+00		         0.20667	1.70000e+01	
1.15709   	4.77354e+00		         0.20833	1.70000e+01	
1.16621   	4.62210e+00		         0.21000	1.70000e+01	
1.17533   	4.51498e+00		         0.21167	1.70000e+01	
1.18472   	4.34066e+00		         0.21333	1.70000e+01	
1.19384   	4.27838e+00		         0.21500	1.70000e+01	
1.20296   	4.08006e+00		         0.21667	1.80000e+01	
1.21208   	3.91279e+00		         0.21833	1.90000e+01	
1.22148   	3.59063e+00		         0.22000	1.90000e+01	
1.23060   	3.38068e+00		         0.22167	2.00000e+01	
1.23972   	3.15632e+00		         0.22333	2.00000e+01	
1.24884   	2.89032e+00		         0.22500	2.10000e+01	
1.25824   	2.62277e+00		         0.22667	2.10000e+01	
1.26752   	2.33932e+00		         0.22833	2.20000e+01	
1.27647   	2.10161e+00		         0.23000	2.30000e+01	
1.28559   	1.76940e+00		         0.23167	2.30000e+01	
1.29498   	1.29448e+00		         0.23333	2.40000e+01	
1.30410   	4.23637e-01		         0.23500	2.50000e+01	
1.31322   	-7.12787e-01		         0.23667	2.60000e+01	
1.32234   	-1.20972e+00		         0.23833	2.70000e+01	
1.33174   	-3.14670e-01		         0.24000	2.80000e+01	
1.34086   	5.77246e-01		         0.24167	2.90000e+01	
1.34998   	6.74003e-01		         0.24333	3.10000e+01	
1.35910   	-1.84053e-01		         0.24500	3.20000e+01	
1.36849   	-6.94612e-01		         0.24667	3.30000e+01	
1.37761   	-8.33970e-01		         0.24833	3.50000e+01	
1.38673   	-1.19104e+00		         0.25000	3.60000e+01	
1.39585   	-1.82089e+00		         0.25167	3.70000e+01	
1.40525   	-2.75840e+00		         0.25333	3.90000e+01	
1.41436   	-3.92492e+00		         0.25500	4.00000e+01	
1.42349   	-5.03696e+00		         0.25667	4.10000e+01	
1.43261   	-5.96799e+00		         0.25833	4.20000e+01	
1.44200   	-6.35764e+00		         0.26000	4.40000e+01	
1.45112   	-6.48358e+00		         0.26167	4.60000e+01	
1.46024   	-6.16394e+00		         0.26333	4.70000e+01	
1.46936   	-5.60228e+00		         0.26500	4.90000e+01	
1.47875   	-4.81378e+00		         0.26667	5.00000e+01	
1.48787   	-4.16632e+00		         0.26833	5.20000e+01	
1.49699   	-3.72588e+00		         0.27000	5.30000e+01	
1.50612   	-3.46713e+00		         0.27167	5.50000e+01	
1.51550   	-3.27499e+00		         0.27333	5.70000e+01	
1.52463   	-2.93062e+00		         0.27500	5.90000e+01	
1.53375   	-2.55431e+00		         0.27667	6.00000e+01	
1.54287   	-2.25146e+00		         0.27833	6.10000e+01	
1.55226   	-2.04054e+00		         0.28000	6.30000e+01	
1.56138   	-1.87058e+00		         0.28167	6.40000e+01	
1.57050   	-1.59893e+00		         0.28333	6.40000e+01	
1.57962   	-1.34322e+00		         0.28500	6.50000e+01	
1.58901   	-1.06295e+00		         0.28667	6.50000e+01	
1.59813   	-8.00769e-01		         0.28833	6.60000e+01	
1.60725   	-5.74113e-01		         0.29000	6.60000e+01	
1.61637   	-3.37534e-01		         0.29167	6.50000e+01	
1.62577   	-1.66881e-01		         0.29333	6.40000e+01	
1.63489   	-4.16763e-02		         0.29500	6.30000e+01	
1.64401   	2.43207e-02		         0.29667	6.20000e+01	
1.65313   	7.10224e-02		         0.29833	6.00000e+01	
1.66252   	5.52680e-02		         0.30000	5.80000e+01	
1.67164   	3.02076e-02		         0.30167	5.60000e+01	
1.68076   	-4.75967e-02		         0.30333	5.40000e+01	
1.68988   	-8.16982e-02		         0.30500	5.20000e+01	
1.69927   	-1.27184e-01		         0.30667	5.00000e+01	
1.70839   	-1.49329e-01		         0.30833	4.80000e+01	
1.71751   	-2.84164e-01		         0.31000	4.60000e+01	
1.72664   	-9.16326e-01		         0.31167	4.40000e+01	
1.73603   	-2.38253e+00		         0.31333	4.20000e+01	
1.74515   	-4.92442e+00		         0.31500	4.10000e+01	
1.75427   	-7.79675e+00		         0.31667	3.90000e+01	
1.76339   	-9.88588e+00		         0.31833	3.70000e+01	
1.77278   	-1.04497e+01		         0.32000	3.40000e+01	
1.78228   	-9.75190e+00		         0.32167	3.20000e+01	
1.79102   	-8.31453e+00		         0.32333	2.90000e+01	
1.80014   	-6.58542e+00		         0.32500	2.50000e+01	
1.80954   	-4.90363e+00		         0.32667	2.10000e+01	
1.81865   	-3.69940e+00		         0.32833	1.60000e+01	
1.82778   	-2.94388e+00		         0.33000	1.10000e+01	
1.83690   	-2.31339e+00		         0.33167	6.00000e+00	
1.84629   	-1.39343e+00		         0.33333	1.00000e+00	
1.85541   	-2.48171e-02		         0.33500	-4.00000e+00	
1.86453   	1.61156e+00		         0.33667	-1.00000e+01	
1.87365   	3.12168e+00		         0.33833	-1.50000e+01	
1.88304   	3.61213e+00		         0.34000	-2.00000e+01	
1.89216   	3.02915e+00		         0.34167	-2.50000e+01	
1.90128   	2.08170e+00		         0.34333	-3.00000e+01	
1.91040   	1.13438e+00		         0.34500	-3.40000e+01	
1.91980   	1.12502e+00		         0.34667	-3.80000e+01	
1.92891   	1.85362e+00		         0.34833	-4.20000e+01	
1.93804   	3.50560e+00		         0.35000	-4.50000e+01	
1.94716   	5.05131e+00		         0.35167	-4.80000e+01	
1.95655   	5.87539e+00		         0.35333	-5.20000e+01	
1.96567   	6.14462e+00		         0.35500	-5.40000e+01	
1.97479   	6.10900e+00		         0.35667	-5.70000e+01	
1.98391   	5.98258e+00		         0.35833	-5.90000e+01	
1.99330   	5.75920e+00		         0.36000	-6.00000e+01	
2.00242   	5.46544e+00		         0.36167	-6.10000e+01	
2.01154   	5.24113e+00		         0.36333	-6.20000e+01	
2.02067   	5.11811e+00		         0.36500	-6.30000e+01	
2.03005   	5.13220e+00		         0.36667	-6.30000e+01	
2.03918   	5.10865e+00		         0.36833	-6.30000e+01	
2.04830   	5.11485e+00		         0.37000	-6.30000e+01	
2.05742   	4.99844e+00		         0.37167	-6.30000e+01	
2.06681   	4.85461e+00		         0.37333	-6.20000e+01	
2.07593   	4.71033e+00		         0.37500	-6.20000e+01	
2.08505   	4.61134e+00		         0.37667	-6.20000e+01	
2.09417   	4.50515e+00		         0.37833	-6.10000e+01	
2.10356   	4.34685e+00		         0.38000	-6.10000e+01	
2.11268   	4.16939e+00		         0.38167	-6.00000e+01	
2.12181   	4.02399e+00		         0.38333	-6.00000e+01	
2.13093   	3.78554e+00		         0.38500	-6.00000e+01	
2.14032   	3.52682e+00		         0.38667	-5.90000e+01	
2.14944   	3.21027e+00		         0.38833	-5.80000e+01	
2.15856   	2.95901e+00		         0.39000	-5.80000e+01	
2.16768   	2.76419e+00		         0.39167	-5.70000e+01	
2.17707   	2.60633e+00		         0.39333	-5.60000e+01	
2.18619   	2.42581e+00		         0.39500	-5.50000e+01	
2.19531   	2.15730e+00		         0.39667	-5.50000e+01	
2.20443   	1.80073e+00		         0.39833	-5.40000e+01	
2.21382   	1.27215e+00		         0.40000	-5.30000e+01	
2.22295   	2.88702e-01		         0.40167	-5.30000e+01	
2.23206   	-9.85865e-01		         0.40333	-5.20000e+01	
2.24119   	-1.39274e+00		         0.40500	-5.20000e+01	
2.25058   	-3.34914e-01		         0.40667	-5.10000e+01	
2.25970   	6.26972e-01		         0.40833	-5.10000e+01	
2.26882   	7.47773e-01		         0.41000	-5.00000e+01	
2.27794   	-1.39902e-01		         0.41167	-4.90000e+01	
2.28733   	-6.45244e-01		         0.41333	-4.80000e+01	
2.29645   	-8.83796e-01		         0.41500	-4.70000e+01	
2.30558   	-1.26427e+00		         0.41667	-4.60000e+01	
2.31469   	-1.85834e+00		         0.41833	-4.40000e+01	
2.32409   	-2.76601e+00		         0.42000	-4.30000e+01	
2.33321   	-3.92716e+00		         0.42167	-4.20000e+01	
2.34233   	-5.16390e+00		         0.42333	-4.00000e+01	
2.35145   	-6.04300e+00		         0.42500	-3.90000e+01	
2.36084   	-6.50881e+00		         0.42667	-3.80000e+01	
2.36996   	-6.33504e+00		         0.42833	-3.60000e+01	
2.37908   	-6.04600e+00		         0.43000	-3.50000e+01	
2.38820   	-5.55391e+00		         0.43167	-3.40000e+01	
2.39759   	-5.00048e+00		         0.43333	-3.30000e+01	
2.40671   	-4.33048e+00		         0.43500	-3.20000e+01	
2.41584   	-3.82096e+00		         0.43667	-3.10000e+01	
2.42496   	-3.36628e+00		         0.43833	-3.00000e+01	
2.43435   	-3.22896e+00		         0.44000	-3.00000e+01	
2.44347   	-2.91471e+00		         0.44167	-2.90000e+01	
2.45259   	-2.74794e+00		         0.44333	-2.90000e+01	
2.46171   	-2.50343e+00		         0.44500	-2.80000e+01	
2.47110   	-2.25351e+00		         0.44667	-2.80000e+01	
2.48022   	-1.92762e+00		         0.44833	-2.80000e+01	
2.48934   	-1.57036e+00		         0.45000	-2.70000e+01	
2.49846   	-1.28909e+00		         0.45167	-2.70000e+01	
2.50785   	-1.02767e+00		         0.45333	-2.60000e+01	
2.51697   	-7.42970e-01		         0.45500	-2.60000e+01	
2.52610   	-5.01258e-01		         0.45667	-2.50000e+01	
2.53522   	-2.96160e-01		         0.45833	-2.50000e+01	
2.54461   	-1.93076e-01		         0.46000	-2.40000e+01	
2.55373   	-1.08288e-01		         0.46167	-2.30000e+01	
2.56285   	-2.18170e-02		         0.46333	-2.30000e+01	
2.57197   	5.09360e-02		         0.46500	-2.20000e+01	
2.58136   	1.32239e-01		         0.46667	-2.10000e+01	
2.59048   	1.24214e-01		         0.46833	-2.00000e+01	
2.59960   	2.81690e-02		         0.47000	-1.90000e+01	
2.60872   	-7.96768e-02		         0.47167	-1.80000e+01	
2.61812   	-2.02546e-01		         0.47333	-1.70000e+01	
2.62723   	-4.37455e-01		         0.47500	-1.60000e+01	
2.63636   	-1.16397e+00		         0.47667	-1.50000e+01	
2.64548   	-2.72284e+00		         0.47833	-1.30000e+01	
2.65487   	-5.13675e+00		         0.48000	-1.20000e+01	
2.66399   	-7.83206e+00		         0.48167	-1.10000e+01	
2.67311   	-9.81601e+00		         0.48333	-1.00000e+01	
2.68223   	-1.03953e+01		         0.48500	-9.00000e+00	
2.69162   	-9.81146e+00		         0.48667	-8.00000e+00	
2.70074   	-8.31515e+00		         0.48833	-7.00000e+00	
2.70986   	-6.56773e+00		         0.49000	-6.00000e+00	
2.71898   	-4.74529e+00		         0.49167	-5.00000e+00	
2.72838   	-3.47012e+00		         0.49333	-4.00000e+00	
2.73750   	-2.83570e+00		         0.49500	-3.00000e+00	
2.74662   	-2.24216e+00		         0.49667	-3.00000e+00	
2.75574   	-1.29978e+00		         0.49833	-2.00000e+00	
2.76513   	1.64143e-01		         0.50000	-2.00000e+00	
2.77425   	1.77028e+00		         0.50167	-1.00000e+00	
2.78337   	3.20125e+00		         0.50333	0.00000e+00	
2.79249   	3.95186e+00		         0.50500	0.00000e+00	
			         0.50667	1.00000e+00	
			         0.50833	2.00000e+00	
			         0.51000	2.00000e+00	
			         0.51167	2.00000e+00	
			         0.51333	3.00000e+00	
			         0.51500	3.00000e+00	
			         0.51667	3.00000e+00	
			         0.51833	4.00000e+00	
			         0.52000	4.00000e+00	
			         0.52167	4.00000e+00	
			         0.52333	4.00000e+00	
			         0.52500	4.00000e+00	
			         0.52667	3.00000e+00	
			         0.52833	3.00000e+00	
			         0.53000	2.00000e+00	
			         0.53167	2.00000e+00	
			         0.53333	1.00000e+00	
			         0.53500	0.00000e+00	
			         0.53667	0.00000e+00	
			         0.53833	-1.00000e+00	
			         0.54000	-1.00000e+00	
			         0.54167	-2.00000e+00	
			         0.54333	-2.00000e+00	
			         0.54500	-1.00000e+00	
			         0.54667	-1.00000e+00	
			         0.54833	-1.00000e+00	
			         0.55000	0.00000e+00	
			         0.55167	0.00000e+00	
			         0.55333	1.00000e+00	
			         0.55500	1.00000e+00	
			         0.55667	2.00000e+00	
			         0.55833	2.00000e+00	
			         0.56000	2.00000e+00	
			         0.56167	3.00000e+00	
			         0.56333	3.00000e+00	
			         0.56500	3.00000e+00	
			         0.56667	2.00000e+00	
			         0.56833	2.00000e+00	
			         0.57000	1.00000e+00	
			         0.57167	1.00000e+00	
			         0.57333	0.00000e+00	
			         0.57500	0.00000e+00	
			         0.57667	-1.00000e+00	
			         0.57833	-1.00000e+00	
			         0.58000	-2.00000e+00	
			         0.58167	-2.00000e+00	
			         0.58333	-2.00000e+00	
			         0.58500	-2.00000e+00	
			         0.58667	-2.00000e+00	
			         0.58833	-1.00000e+00	
			         0.59000	-1.00000e+00	
			         0.59167	0.00000e+00	
			         0.59333	1.00000e+00	
			         0.59500	2.00000e+00	
			         0.59667	3.00000e+00	
			         0.59833	4.00000e+00	
			         0.60000	4.00000e+00	
			         0.60167	5.00000e+00	
			         0.60333	5.00000e+00	
			         0.60500	5.00000e+00	
			         0.60667	5.00000e+00	
			         0.60833	4.00000e+00	
			         0.61000	3.00000e+00	
			         0.61167	2.00000e+00	
			         0.61333	1.00000e+00	
			         0.61500	0.00000e+00	
			         0.61667	-2.00000e+00	
			         0.61833	-3.00000e+00	
			         0.62000	-4.00000e+00	
			         0.62167	-4.00000e+00	
			         0.62333	-5.00000e+00	
			         0.62500	-6.00000e+00	
			         0.62667	-6.00000e+00	
			         0.62833	-6.00000e+00	
			         0.63000	-7.00000e+00	
			         0.63167	-6.00000e+00	
			         0.63333	-6.00000e+00	
			         0.63500	-6.00000e+00	
			         0.63667	-5.00000e+00	
			         0.63833	-5.00000e+00	
			         0.64000	-5.00000e+00	
			         0.64167	-5.00000e+00	
			         0.64333	-5.00000e+00	
			         0.64500	-5.00000e+00	
			         0.64667	-5.00000e+00	
			         0.64833	-5.00000e+00	
			         0.65000	-6.00000e+00	
			         0.65167	-6.00000e+00	
			         0.65333	-7.00000e+00	
			         0.65500	-7.00000e+00	
			         0.65667	-8.00000e+00	
			         0.65833	-8.00000e+00	
			         0.66000	-9.00000e+00	
			         0.66167	-9.00000e+00	
			         0.66333	-9.00000e+00	
			         0.66500	-8.00000e+00	
			         0.66667	-8.00000e+00	
			         0.66833	-8.00000e+00	
			         0.67000	-7.00000e+00	
			         0.67167	-7.00000e+00	
			         0.67333	-6.00000e+00	
			         0.67500	-5.00000e+00	
			         0.67667	-4.00000e+00	
			         0.67833	-4.00000e+00	
			         0.68000	-3.00000e+00	
			         0.68167	-2.00000e+00	
			         0.68333	-2.00000e+00	
			         0.68500	-2.00000e+00	
			         0.68667	-1.00000e+00	
			         0.68833	-1.00000e+00	
			         0.69000	-1.00000e+00	
			         0.69167	0.00000e+00	
			         0.69333	0.00000e+00	
			         0.69500	0.00000e+00	
			         0.69667	0.00000e+00	
			         0.69833	0.00000e+00	
			         0.70000	0.00000e+00	
			         0.70167	0.00000e+00	
			         0.70333	0.00000e+00	
			         0.70500	0.00000e+00	
			         0.70667	0.00000e+00	
			         0.70833	0.00000e+00	
			         0.71000	0.00000e+00	
			         0.71167	0.00000e+00	
			         0.71333	0.00000e+00	
			         0.71500	0.00000e+00	
			         0.71667	-1.00000e+00	
			         0.71833	-1.00000e+00	
			         0.72000	-2.00000e+00	
			         0.72167	-2.00000e+00	
			         0.72333	-3.00000e+00	
			         0.72500	-3.00000e+00	
			         0.72667	-4.00000e+00	
			         0.72833	-4.00000e+00	
			         0.73000	-5.00000e+00	
			         0.73167	-5.00000e+00	
			         0.73333	-5.00000e+00	
			         0.73500	-6.00000e+00	
			         0.73667	-6.00000e+00	
			         0.73833	-5.00000e+00	
			         0.74000	-5.00000e+00	
			         0.74167	-5.00000e+00	
			         0.74333	-4.00000e+00	
			         0.74500	-4.00000e+00	
			         0.74667	-3.00000e+00	
			         0.74833	-3.00000e+00	
			         0.75000	-2.00000e+00	
			         0.75167	-1.00000e+00	
			         0.75333	-1.00000e+00	
			         0.75500	0.00000e+00	
			         0.75667	1.00000e+00	
			         0.75833	1.00000e+00	
			         0.76000	2.00000e+00	
			         0.76167	2.00000e+00	
			         0.76333	3.00000e+00	
			         0.76500	3.00000e+00	
			         0.76667	4.00000e+00	
			         0.76833	4.00000e+00	
			         0.77000	4.00000e+00	
			         0.77167	5.00000e+00	
			         0.77333	5.00000e+00	
			         0.77500	5.00000e+00	
			         0.77667	6.00000e+00	
			         0.77833	6.00000e+00	
			         0.78000	5.00000e+00	
			         0.78167	5.00000e+00	
			         0.78333	4.00000e+00	
			         0.78500	3.00000e+00	
			         0.78667	2.00000e+00	
			         0.78833	2.00000e+00	
			         0.79000	1.00000e+00	
			         0.79167	0.00000e+00	
			         0.79333	0.00000e+00	
			         0.79500	-1.00000e+00	
			         0.79667	-1.00000e+00	
			         0.79833	-1.00000e+00	
			         0.80000	-1.00000e+00	
			         0.80167	-1.00000e+00	
			         0.80333	-1.00000e+00	
			         0.80500	-1.00000e+00	
			         0.80667	-1.00000e+00	
			         0.80833	-1.00000e+00	
			         0.81000	-1.00000e+00	
			         0.81167	-2.00000e+00	
			         0.81333	-3.00000e+00	
			         0.81500	-4.00000e+00	
			         0.81667	-5.00000e+00	
			         0.81833	-7.00000e+00	
			         0.82000	-8.00000e+00	
			         0.82167	-1.00000e+01	
			         0.82333	-1.10000e+01	
			         0.82500	-1.30000e+01	
			         0.82667	-1.40000e+01	
			         0.82833	-1.50000e+01	
			         0.83000	-1.60000e+01	
			         0.83167	-1.70000e+01	
			         0.83333	-1.80000e+01	
			         0.83500	-1.80000e+01	
			         0.83667	-1.80000e+01	
			         0.83833	-1.80000e+01	
			         0.84000	-1.80000e+01	
			         0.84167	-1.70000e+01	
			         0.84333	-1.60000e+01	
			         0.84500	-1.60000e+01	
			         0.84667	-1.50000e+01	
			         0.84833	-1.40000e+01	
			         0.85000	-1.30000e+01	
			         0.85167	-1.20000e+01	
			         0.85333	-1.10000e+01	
			         0.85500	-1.00000e+01	
			         0.85667	-9.00000e+00	
			         0.85833	-8.00000e+00	
			         0.86000	-8.00000e+00	
			         0.86167	-7.00000e+00	
			         0.86333	-6.00000e+00	
			         0.86500	-6.00000e+00	
			         0.86667	-5.00000e+00	
			         0.86833	-5.00000e+00	
			         0.87000	-5.00000e+00	
			         0.87167	-4.00000e+00	
			         0.87333	-4.00000e+00	
			         0.87500	-4.00000e+00	
			         0.87667	-4.00000e+00	
			         0.87833	-4.00000e+00	
			         0.88000	-3.00000e+00	
			         0.88167	-3.00000e+00	
			         0.88333	-3.00000e+00	
			         0.88500	-3.00000e+00	
			         0.88667	-2.00000e+00	
			         0.88833	-2.00000e+00	
			         0.89000	-2.00000e+00	
			         0.89167	-1.00000e+00	
			         0.89333	-1.00000e+00	
			         0.89500	-1.00000e+00	
			         0.89667	-2.00000e+00	
			         0.89833	-2.00000e+00	
			         0.90000	-2.00000e+00	
			         0.90167	-3.00000e+00	
			         0.90333	-3.00000e+00	
			         0.90500	-3.00000e+00	
			         0.90667	-3.00000e+00	
			         0.90833	-2.00000e+00	
			         0.91000	-1.00000e+00	
			         0.91167	2.00000e+00	
			         0.91333	6.00000e+00	
			         0.91500	1.20000e+01	
			         0.91667	2.00000e+01	
			         0.91833	3.10000e+01	
			         0.92000	4.30000e+01	
			         0.92167	5.80000e+01	
			         0.92333	7.50000e+01	
			         0.92500	9.40000e+01	
			         0.92667	1.14000e+02	
			         0.92833	1.34000e+02	
			         0.93000	1.55000e+02	
			         0.93167	1.74000e+02	
			         0.93333	1.92000e+02	
			         0.93500	2.08000e+02	
			         0.93667	2.19000e+02	
			         0.93833	2.26000e+02	
			         0.94000	2.27000e+02	
			         0.94167	2.22000e+02	
			         0.94333	2.10000e+02	
			         0.94500	1.93000e+02	
			         0.94667	1.71000e+02	
			         0.94833	1.44000e+02	
			         0.95000	1.15000e+02	
			         0.95167	8.30000e+01	
			         0.95333	5.10000e+01	
			         0.95500	1.90000e+01	
			         0.95667	-1.10000e+01	
			         0.95833	-3.80000e+01	
			         0.96000	-6.20000e+01	
			         0.96167	-8.10000e+01	
			         0.96333	-9.50000e+01	
			         0.96500	-1.05000e+02	
			         0.96667	-1.10000e+02	
			         0.96833	-1.11000e+02	
			         0.97000	-1.09000e+02	
			         0.97167	-1.05000e+02	
			         0.97333	-9.80000e+01	
			         0.97500	-9.00000e+01	
			         0.97667	-8.20000e+01	
			         0.97833	-7.40000e+01	
			         0.98000	-6.50000e+01	
			         0.98167	-5.70000e+01	
			         0.98333	-5.00000e+01	
			         0.98500	-4.30000e+01	
			         0.98667	-3.70000e+01	
			         0.98833	-3.20000e+01	
			         0.99000	-2.80000e+01	
			         0.99167	-2.40000e+01	
			         0.99333	-2.10000e+01	
			         0.99500	-1.90000e+01	
			         0.99667	-1.70000e+01	
			         0.99833	-1.60000e+01	
			         1.00000	-1.50000e+01	
			         1.00167	-1.40000e+01	
			         1.00333	-1.30000e+01	
			         1.00500	-1.20000e+01	
			         1.00667	-1.10000e+01	
			         1.00833	-1.00000e+01	
			         1.01000	-9.00000e+00	
			         1.01167	-8.00000e+00	
			         1.01333	-8.00000e+00	
			         1.01500	-7.00000e+00	
			         1.01667	-7.00000e+00	
			         1.01833	-6.00000e+00	
			         1.02000	-6.00000e+00	
			         1.02167	-6.00000e+00	
			         1.02333	-6.00000e+00	
			         1.02500	-6.00000e+00	
			         1.02667	-6.00000e+00	
			         1.02833	-6.00000e+00	
			         1.03000	-6.00000e+00	
			         1.03167	-6.00000e+00	
			         1.03333	-6.00000e+00	
			         1.03500	-6.00000e+00	
			         1.03667	-6.00000e+00	
			         1.03833	-5.00000e+00	
			         1.04000	-5.00000e+00	
			         1.04167	-4.00000e+00	
			         1.04333	-2.00000e+00	
			         1.04500	-1.00000e+00	
			         1.04667	0.00000e+00	
			         1.04833	1.00000e+00	
			         1.05000	2.00000e+00	
			         1.05167	2.00000e+00	
			         1.05333	3.00000e+00	
			         1.05500	3.00000e+00	
			         1.05667	4.00000e+00	
			         1.05833	4.00000e+00	
			         1.06000	4.00000e+00	
			         1.06167	4.00000e+00	
			         1.06333	4.00000e+00	
			         1.06500	4.00000e+00	
			         1.06667	5.00000e+00	
			         1.06833	5.00000e+00	
			         1.07000	6.00000e+00	
			         1.07167	6.00000e+00	
			         1.07333	7.00000e+00	
			         1.07500	7.00000e+00	
			         1.07667	8.00000e+00	
			         1.07833	8.00000e+00	
			         1.08000	8.00000e+00	
			         1.08167	9.00000e+00	
			         1.08333	9.00000e+00	
			         1.08500	1.00000e+01	
			         1.08667	1.00000e+01	
			         1.08833	1.00000e+01	
			         1.09000	1.00000e+01	
			         1.09167	1.00000e+01	
			         1.09333	1.10000e+01	
			         1.09500	1.10000e+01	
			         1.09667	1.10000e+01	
			         1.09833	1.20000e+01	
			         1.10000	1.20000e+01	
			         1.10167	1.20000e+01	
			         1.10333	1.30000e+01	
			         1.10500	1.30000e+01	
			         1.10667	1.30000e+01	
			         1.10833	1.30000e+01	
			         1.11000	1.30000e+01	
			         1.11167	1.30000e+01	
			         1.11333	1.30000e+01	
			         1.11500	1.30000e+01	
			         1.11667	1.30000e+01	
			         1.11833	1.30000e+01	
			         1.12000	1.40000e+01	
			         1.12167	1.40000e+01	
			         1.12333	1.50000e+01	
			         1.12500	1.60000e+01	
			         1.12667	1.70000e+01	
			         1.12833	1.80000e+01	
			         1.13000	1.90000e+01	
			         1.13167	2.00000e+01	
			         1.13333	2.10000e+01	
			         1.13500	2.30000e+01	
			         1.13667	2.40000e+01	
			         1.13833	2.60000e+01	
			         1.14000	2.70000e+01	
			         1.14167	2.90000e+01	
			         1.14333	3.00000e+01	
			         1.14500	3.10000e+01	
			         1.14667	3.30000e+01	
			         1.14833	3.40000e+01	
			         1.15000	3.50000e+01	
			         1.15167	3.60000e+01	
			         1.15333	3.70000e+01	
			         1.15500	3.80000e+01	
			         1.15667	3.90000e+01	
			         1.15833	4.00000e+01	
			         1.16000	4.10000e+01	
			         1.16167	4.20000e+01	
			         1.16333	4.30000e+01	
			         1.16500	4.40000e+01	
			         1.16667	4.50000e+01	
			         1.16833	4.60000e+01	
			         1.17000	4.70000e+01	
			         1.17167	4.90000e+01	
			         1.17333	5.00000e+01	
			         1.17500	5.10000e+01	
			         1.17667	5.20000e+01	
			         1.17833	5.30000e+01	
			         1.18000	5.40000e+01	
			         1.18167	5.60000e+01	
			         1.18333	5.70000e+01	
			         1.18500	5.80000e+01	
			         1.18667	5.90000e+01	
			         1.18833	6.00000e+01	
			         1.19000	6.00000e+01	
			         1.19167	6.00000e+01	
			         1.19333	6.10000e+01	
			         1.19500	6.10000e+01	
			         1.19667	6.20000e+01	
			         1.19833	6.20000e+01	
			         1.20000	6.20000e+01	
			         1.20167	6.20000e+01	
			         1.20333	6.20000e+01	
			         1.20500	6.20000e+01	
			         1.20667	6.10000e+01	
			         1.20833	6.00000e+01	
			         1.21000	5.90000e+01	
			         1.21167	5.80000e+01	
			         1.21333	5.60000e+01	
			         1.21500	5.40000e+01	
			         1.21667	5.20000e+01	
			         1.21833	5.00000e+01	
			         1.22000	4.70000e+01	
			         1.22167	4.40000e+01	
			         1.22333	4.10000e+01	
			         1.22500	3.70000e+01	
			         1.22667	3.40000e+01	
			         1.22833	3.00000e+01	
			         1.23000	2.60000e+01	
			         1.23167	2.20000e+01	
			         1.23333	1.80000e+01	
			         1.23500	1.40000e+01	
			         1.23667	1.00000e+01	
			         1.23833	6.00000e+00	
			         1.24000	1.00000e+00	
			         1.24167	-3.00000e+00	
			         1.24333	-8.00000e+00	
			         1.24500	-1.20000e+01	
			         1.24667	-1.70000e+01	
			         1.24833	-2.10000e+01	
			         1.25000	-2.60000e+01	
			         1.25167	-3.00000e+01	
			         1.25333	-3.40000e+01	
			         1.25500	-3.90000e+01	
			         1.25667	-4.20000e+01	
			         1.25833	-4.60000e+01	
			         1.26000	-4.90000e+01	
			         1.26167	-5.10000e+01	
			         1.26333	-5.40000e+01	
			         1.26500	-5.60000e+01	
			         1.26667	-5.70000e+01	
			         1.26833	-5.90000e+01	
			         1.27000	-6.00000e+01	
			         1.27167	-6.00000e+01	
			         1.27333	-6.10000e+01	
			         1.27500	-6.10000e+01	
			         1.27667	-6.20000e+01	
			         1.27833	-6.20000e+01	
			         1.28000	-6.20000e+01	
			         1.28167	-6.20000e+01	
			         1.28333	-6.20000e+01	
			         1.28500	-6.20000e+01	
			         1.28667	-6.20000e+01	
			         1.28833	-6.30000e+01	
			         1.29000	-6.30000e+01	
			         1.29167	-6.30000e+01	
			         1.29333	-6.30000e+01	
			         1.29500	-6.30000e+01	
			         1.29667	-6.20000e+01	
			         1.29833	-6.20000e+01	
			         1.30000	-6.10000e+01	
			         1.30167	-6.00000e+01	
			         1.30333	-5.90000e+01	
			         1.30500	-5.80000e+01	
			         1.30667	-5.70000e+01	
			         1.30833	-5.60000e+01	
			         1.31000	-5.50000e+01	
			         1.31167	-5.30000e+01	
			         1.31333	-5.10000e+01	
			         1.31500	-5.00000e+01	
			         1.31667	-4.80000e+01	
			         1.31833	-4.70000e+01	
			         1.32000	-4.60000e+01	
			         1.32167	-4.50000e+01	
			         1.32333	-4.40000e+01	
			         1.32500	-4.30000e+01	
			         1.32667	-4.20000e+01	
			         1.32833	-4.10000e+01	
			         1.33000	-4.00000e+01	
			         1.33167	-4.00000e+01	
			         1.33333	-3.90000e+01	
			         1.33500	-3.90000e+01	
			         1.33667	-3.80000e+01	
			         1.33833	-3.80000e+01	
			         1.34000	-3.80000e+01	
			         1.34167	-3.80000e+01	
			         1.34333	-3.70000e+01	
			         1.34500	-3.70000e+01	
			         1.34667	-3.60000e+01	
			         1.34833	-3.60000e+01	
			         1.35000	-3.50000e+01	
			         1.35167	-3.40000e+01	
			         1.35333	-3.30000e+01	
			         1.35500	-3.30000e+01	
			         1.35667	-3.20000e+01	
			         1.35833	-3.00000e+01	
			         1.36000	-2.90000e+01	
			         1.36167	-2.80000e+01	
			         1.36333	-2.60000e+01	
			         1.36500	-2.50000e+01	
			         1.36667	-2.30000e+01	
			         1.36833	-2.20000e+01	
			         1.37000	-2.10000e+01	
			         1.37167	-2.00000e+01	
			         1.37333	-1.80000e+01	
			         1.37500	-1.70000e+01	
			         1.37667	-1.70000e+01	
			         1.37833	-1.60000e+01	
			         1.38000	-1.50000e+01	
			         1.38167	-1.50000e+01	
			         1.38333	-1.40000e+01	
			         1.38500	-1.30000e+01	
			         1.38667	-1.30000e+01	
			         1.38833	-1.20000e+01	
			         1.39000	-1.20000e+01	
			         1.39167	-1.10000e+01	
			         1.39333	-1.00000e+01	
			         1.39500	-1.00000e+01	
			         1.39667	-9.00000e+00	
			         1.39833	-8.00000e+00	
			         1.40000	-7.00000e+00	
			         1.40167	-7.00000e+00	
			         1.40333	-6.00000e+00	
			         1.40500	-5.00000e+00	
			         1.40667	-3.00000e+00	
			         1.40833	-2.00000e+00	
			         1.41000	-1.00000e+00	
			         1.41167	1.00000e+00	
			         1.41333	2.00000e+00	
			         1.41500	4.00000e+00	
			         1.41667	5.00000e+00	
			         1.41833	7.00000e+00	
			         1.42000	8.00000e+00	
			         1.42167	9.00000e+00	
			         1.42333	1.00000e+01	
			         1.42500	1.00000e+01	
			         1.42667	1.00000e+01	
			         1.42833	1.00000e+01	
			         1.43000	1.00000e+01	
			         1.43167	9.00000e+00	
			         1.43333	9.00000e+00	
			         1.43500	8.00000e+00	
			         1.43667	8.00000e+00	
			         1.43833	7.00000e+00	
			         1.44000	7.00000e+00	
			         1.44167	7.00000e+00	
			         1.44333	7.00000e+00	
			         1.44500	7.00000e+00	
			         1.44667	8.00000e+00	
			         1.44833	8.00000e+00	
			         1.45000	8.00000e+00	
			         1.45167	8.00000e+00	
			         1.45333	7.00000e+00	
			         1.45500	7.00000e+00	
			         1.45667	6.00000e+00	
			         1.45833	5.00000e+00	
			         1.46000	4.00000e+00	
			         1.46167	3.00000e+00	
			         1.46333	2.00000e+00	
			         1.46500	1.00000e+00	
			         1.46667	0.00000e+00	
			         1.46833	-1.00000e+00	
			         1.47000	-1.00000e+00	
			         1.47167	-1.00000e+00	
			         1.47333	-2.00000e+00	
			         1.47500	-2.00000e+00	
			         1.47667	-2.00000e+00	
			         1.47833	-2.00000e+00	
			         1.48000	-2.00000e+00	
			         1.48167	-2.00000e+00	
			         1.48333	-3.00000e+00	
			         1.48500	-3.00000e+00	
			         1.48667	-4.00000e+00	
			         1.48833	-5.00000e+00	
			         1.49000	-5.00000e+00	
			         1.49167	-6.00000e+00	
			         1.49333	-6.00000e+00	
			         1.49500	-6.00000e+00	
			         1.49667	-6.00000e+00	
			         1.49833	-6.00000e+00	
			         1.50000	-5.00000e+00	
			         1.50167	-4.00000e+00	
			         1.50333	-3.00000e+00	
			         1.50500	-2.00000e+00	
			         1.50667	-1.00000e+00	
			         1.50833	0.00000e+00	
			         1.51000	1.00000e+00	
			         1.51167	2.00000e+00	
			         1.51333	2.00000e+00	
			         1.51500	3.00000e+00	
			         1.51667	3.00000e+00	
			         1.51833	4.00000e+00	
			         1.52000	5.00000e+00	
			         1.52167	5.00000e+00	
			         1.52333	6.00000e+00	
			         1.52500	6.00000e+00	
			         1.52667	6.00000e+00	
			         1.52833	6.00000e+00	
			         1.53000	6.00000e+00	
			         1.53167	6.00000e+00	
			         1.53333	6.00000e+00	
			         1.53500	6.00000e+00	
			         1.53667	6.00000e+00	
			         1.53833	6.00000e+00	
			         1.54000	5.00000e+00	
			         1.54167	5.00000e+00	
			         1.54333	4.00000e+00	
			         1.54500	4.00000e+00	
			         1.54667	4.00000e+00	
			         1.54833	3.00000e+00	
			         1.55000	4.00000e+00	
			         1.55167	4.00000e+00	
			         1.55333	5.00000e+00	
			         1.55500	6.00000e+00	
			         1.55667	7.00000e+00	
			         1.55833	8.00000e+00	
			         1.56000	9.00000e+00	
			         1.56167	1.00000e+01	
			         1.56333	1.00000e+01	
			         1.56500	1.00000e+01	
			         1.56667	1.00000e+01	
			         1.56833	9.00000e+00	
			         1.57000	8.00000e+00	
			         1.57167	6.00000e+00	
			         1.57333	5.00000e+00	
			         1.57500	3.00000e+00	
			         1.57667	2.00000e+00	
			         1.57833	1.00000e+00	
			         1.58000	0.00000e+00	
			         1.58167	-1.00000e+00	
			         1.58333	-1.00000e+00	
			         1.58500	-1.00000e+00	
			         1.58667	-1.00000e+00	
			         1.58833	0.00000e+00	
			         1.59000	0.00000e+00	
			         1.59167	0.00000e+00	
			         1.59333	1.00000e+00	
			         1.59500	2.00000e+00	
			         1.59667	2.00000e+00	
			         1.59833	2.00000e+00	
			         1.60000	3.00000e+00	
			         1.60167	3.00000e+00	
			         1.60333	2.00000e+00	
			         1.60500	2.00000e+00	
			         1.60667	2.00000e+00	
			         1.60833	2.00000e+00	
			         1.61000	2.00000e+00	
			         1.61167	2.00000e+00	
			         1.61333	2.00000e+00	
			         1.61500	2.00000e+00	
			         1.61667	2.00000e+00	
			         1.61833	3.00000e+00	
			         1.62000	3.00000e+00	
			         1.62167	4.00000e+00	
			         1.62333	5.00000e+00	
			         1.62500	5.00000e+00	
			         1.62667	6.00000e+00	
			         1.62833	6.00000e+00	
			         1.63000	7.00000e+00	
			         1.63167	7.00000e+00	
			         1.63333	7.00000e+00	
			         1.63500	7.00000e+00	
			         1.63667	7.00000e+00	
			         1.63833	7.00000e+00	
			         1.64000	7.00000e+00	
			         1.64167	7.00000e+00	
			         1.64333	7.00000e+00	
			         1.64500	7.00000e+00	
			         1.64667	7.00000e+00	
			         1.64833	7.00000e+00	
			         1.65000	7.00000e+00	
			         1.65167	7.00000e+00	
			         1.65333	6.00000e+00	
			         1.65500	6.00000e+00	
			         1.65667	6.00000e+00	
			         1.65833	5.00000e+00	
			         1.66000	5.00000e+00	
			         1.66167	5.00000e+00	
			         1.66333	5.00000e+00	
			         1.66500	5.00000e+00	
			         1.66667	5.00000e+00	
			         1.66833	4.00000e+00	
			         1.67000	4.00000e+00	
			         1.67167	4.00000e+00	
			         1.67333	3.00000e+00	
			         1.67500	3.00000e+00	
			         1.67667	3.00000e+00	
			         1.67833	3.00000e+00	
			         1.68000	3.00000e+00	
			         1.68167	3.00000e+00	
			         1.68333	3.00000e+00	
			         1.68500	3.00000e+00	
			         1.68667	3.00000e+00	
			         1.68833	4.00000e+00	
			         1.69000	4.00000e+00	
			         1.69167	5.00000e+00	
			         1.69333	5.00000e+00	
			         1.69500	6.00000e+00	
			         1.69667	6.00000e+00	
			         1.69833	6.00000e+00	
			         1.70000	6.00000e+00	
			         1.70167	6.00000e+00	
			         1.70333	7.00000e+00	
			         1.70500	7.00000e+00	
			         1.70667	7.00000e+00	
			         1.70833	7.00000e+00	
			         1.71000	7.00000e+00	
			         1.71167	7.00000e+00	
			         1.71333	7.00000e+00	
			         1.71500	7.00000e+00	
			         1.71667	7.00000e+00	
			         1.71833	6.00000e+00	
			         1.72000	6.00000e+00	
			         1.72167	6.00000e+00	
			         1.72333	6.00000e+00	
			         1.72500	5.00000e+00	
			         1.72667	5.00000e+00	
			         1.72833	5.00000e+00	
			         1.73000	4.00000e+00	
			         1.73167	4.00000e+00	
			         1.73333	3.00000e+00	
			         1.73500	2.00000e+00	
			         1.73667	0.00000e+00	
			         1.73833	-1.00000e+00	
			         1.74000	-3.00000e+00	
			         1.74167	-5.00000e+00	
			         1.74333	-6.00000e+00	
			         1.74500	-8.00000e+00	
			         1.74667	-9.00000e+00	
			         1.74833	-1.10000e+01	
			         1.75000	-1.20000e+01	
			         1.75167	-1.40000e+01	
			         1.75333	-1.50000e+01	
			         1.75500	-1.60000e+01	
			         1.75667	-1.70000e+01	
			         1.75833	-1.80000e+01	
			         1.76000	-1.80000e+01	
			         1.76167	-1.80000e+01	
			         1.76333	-1.80000e+01	
			         1.76500	-1.80000e+01	
			         1.76667	-1.80000e+01	
			         1.76833	-1.80000e+01	
			         1.77000	-1.70000e+01	
			         1.77167	-1.70000e+01	
			         1.77333	-1.60000e+01	
			         1.77500	-1.60000e+01	
			         1.77667	-1.50000e+01	
			         1.77833	-1.50000e+01	
			         1.78000	-1.50000e+01	
			         1.78167	-1.50000e+01	
			         1.78333	-1.50000e+01	
			         1.78500	-1.60000e+01	
			         1.78667	-1.60000e+01	
			         1.78833	-1.60000e+01	
			         1.79000	-1.50000e+01	
			         1.79167	-1.50000e+01	
			         1.79333	-1.40000e+01	
			         1.79500	-1.30000e+01	
			         1.79667	-1.20000e+01	
			         1.79833	-1.00000e+01	
			         1.80000	-9.00000e+00	
			         1.80167	-8.00000e+00	
			         1.80333	-7.00000e+00	
			         1.80500	-7.00000e+00	
			         1.80667	-6.00000e+00	
			         1.80833	-7.00000e+00	
			         1.81000	-7.00000e+00	
			         1.81167	-8.00000e+00	
			         1.81333	-9.00000e+00	
			         1.81500	-1.00000e+01	
			         1.81667	-1.10000e+01	
			         1.81833	-1.20000e+01	
			         1.82000	-1.20000e+01	
			         1.82167	-1.20000e+01	
			         1.82333	-1.20000e+01	
			         1.82500	-1.10000e+01	
			         1.82667	-9.00000e+00	
			         1.82833	-6.00000e+00	
			         1.83000	-1.00000e+00	
			         1.83167	5.00000e+00	
			         1.83333	1.30000e+01	
			         1.83500	2.30000e+01	
			         1.83667	3.50000e+01	
			         1.83833	5.00000e+01	
			         1.84000	6.70000e+01	
			         1.84167	8.50000e+01	
			         1.84333	1.05000e+02	
			         1.84500	1.26000e+02	
			         1.84667	1.48000e+02	
			         1.84833	1.68000e+02	
			         1.85000	1.87000e+02	
			         1.85167	2.04000e+02	
			         1.85333	2.17000e+02	
			         1.85500	2.26000e+02	
			         1.85667	2.29000e+02	
			         1.85833	2.26000e+02	
			         1.86000	2.17000e+02	
			         1.86167	2.01000e+02	
			         1.86333	1.80000e+02	
			         1.86500	1.54000e+02	
			         1.86667	1.25000e+02	
			         1.86833	9.40000e+01	
			         1.87000	6.10000e+01	
			         1.87167	2.80000e+01	
			         1.87333	-4.00000e+00	
			         1.87500	-3.30000e+01	
			         1.87667	-5.90000e+01	
			         1.87833	-8.10000e+01	
			         1.88000	-9.80000e+01	
			         1.88167	-1.10000e+02	
			         1.88333	-1.17000e+02	
			         1.88500	-1.21000e+02	
			         1.88667	-1.21000e+02	
			         1.88833	-1.18000e+02	
			         1.89000	-1.13000e+02	
			         1.89167	-1.06000e+02	
			         1.89333	-9.80000e+01	
			         1.89500	-9.00000e+01	
			         1.89667	-8.10000e+01	
			         1.89833	-7.30000e+01	
			         1.90000	-6.60000e+01	
			         1.90167	-5.80000e+01	
			         1.90333	-5.20000e+01	
			         1.90500	-4.60000e+01	
			         1.90667	-4.10000e+01	
			         1.90833	-3.70000e+01	
			         1.91000	-3.40000e+01	
			         1.91167	-3.10000e+01	
			         1.91333	-2.90000e+01	
			         1.91500	-2.70000e+01	
			         1.91667	-2.60000e+01	
			         1.91833	-2.40000e+01	
			         1.92000	-2.30000e+01	
			         1.92167	-2.20000e+01	
			         1.92333	-2.10000e+01	
			         1.92500	-2.00000e+01	
			         1.92667	-1.90000e+01	
			         1.92833	-1.70000e+01	
			         1.93000	-1.60000e+01	
			         1.93167	-1.50000e+01	
			         1.93333	-1.40000e+01	
			         1.93500	-1.20000e+01	
			         1.93667	-1.10000e+01	
			         1.93833	-1.00000e+01	
			         1.94000	-9.00000e+00	
			         1.94167	-8.00000e+00	
			         1.94333	-7.00000e+00	
			         1.94500	-6.00000e+00	
			         1.94667	-5.00000e+00	
			         1.94833	-4.00000e+00	
			         1.95000	-3.00000e+00	
			         1.95167	-3.00000e+00	
			         1.95333	-2.00000e+00	
			         1.95500	-1.00000e+00	
			         1.95667	0.00000e+00	
			         1.95833	0.00000e+00	
			         1.96000	1.00000e+00	
			         1.96167	1.00000e+00	
			         1.96333	1.00000e+00	
			         1.96500	1.00000e+00	
			         1.96667	1.00000e+00	
			         1.96833	1.00000e+00	
			         1.97000	1.00000e+00	
			         1.97167	1.00000e+00	
			         1.97333	1.00000e+00	
			         1.97500	1.00000e+00	
			         1.97667	1.00000e+00	
			         1.97833	2.00000e+00	
			         1.98000	3.00000e+00	
			         1.98167	4.00000e+00	
			         1.98333	5.00000e+00	
			         1.98500	5.00000e+00	
			         1.98667	6.00000e+00	
			         1.98833	7.00000e+00	
			         1.99000	7.00000e+00	
			         1.99167	7.00000e+00	
			         1.99333	8.00000e+00	
			         1.99500	8.00000e+00	
			         1.99667	9.00000e+00	
			         1.99833	9.00000e+00	
			         2.00000	9.00000e+00	
			         2.00167	9.00000e+00	
			         2.00333	1.00000e+01	
			         2.00500	1.00000e+01	
			         2.00667	1.00000e+01	
			         2.00833	1.10000e+01	
			         2.01000	1.20000e+01	
			         2.01167	1.20000e+01	
			         2.01333	1.30000e+01	
			         2.01500	1.30000e+01	
			         2.01667	1.30000e+01	
			         2.01833	1.40000e+01	
			         2.02000	1.40000e+01	
			         2.02167	1.50000e+01	
			         2.02333	1.50000e+01	
			         2.02500	1.60000e+01	
			         2.02667	1.60000e+01	
			         2.02833	1.70000e+01	
			         2.03000	1.80000e+01	
			         2.03167	1.80000e+01	
			         2.03333	1.90000e+01	
			         2.03500	2.00000e+01	
			         2.03667	2.10000e+01	
			         2.03833	2.20000e+01	
			         2.04000	2.20000e+01	
			         2.04167	2.30000e+01	
			         2.04333	2.40000e+01	
			         2.04500	2.40000e+01	
			         2.04667	2.40000e+01	
			         2.04833	2.50000e+01	
			         2.05000	2.50000e+01	
			         2.05167	2.60000e+01	
			         2.05333	2.60000e+01	
			         2.05500	2.60000e+01	
			         2.05667	2.60000e+01	
			         2.05833	2.70000e+01	
			         2.06000	2.70000e+01	
			         2.06167	2.80000e+01	
			         2.06333	2.90000e+01	
			         2.06500	3.00000e+01	
			         2.06667	3.10000e+01	
			         2.06833	3.20000e+01	
			         2.07000	3.30000e+01	
			         2.07167	3.50000e+01	
			         2.07333	3.60000e+01	
			         2.07500	3.80000e+01	
			         2.07667	4.00000e+01	
			         2.07833	4.20000e+01	
			         2.08000	4.40000e+01	
			         2.08167	4.60000e+01	
			         2.08333	4.70000e+01	
			         2.08500	4.90000e+01	
			         2.08667	5.00000e+01	
			         2.08833	5.10000e+01	
			         2.09000	5.20000e+01	
			         2.09167	5.30000e+01	
			         2.09333	5.40000e+01	
			         2.09500	5.50000e+01	
			         2.09667	5.50000e+01	
			         2.09833	5.60000e+01	
			         2.10000	5.60000e+01	
			         2.10167	5.60000e+01	
			         2.10333	5.70000e+01	
			         2.10500	5.70000e+01	
			         2.10667	5.80000e+01	
			         2.10833	5.90000e+01	
			         2.11000	5.90000e+01	
			         2.11167	6.00000e+01	
			         2.11333	6.00000e+01	
			         2.11500	6.00000e+01	
			         2.11667	5.90000e+01	
			         2.11833	5.90000e+01	
			         2.12000	5.80000e+01	
			         2.12167	5.70000e+01	
			         2.12333	5.70000e+01	
			         2.12500	5.60000e+01	
			         2.12667	5.40000e+01	
			         2.12833	5.20000e+01	
			         2.13000	5.00000e+01	
			         2.13167	4.80000e+01	
			         2.13333	4.60000e+01	
			         2.13500	4.40000e+01	
			         2.13667	4.20000e+01	
			         2.13833	4.00000e+01	
			         2.14000	3.70000e+01	
			         2.14167	3.40000e+01	
			         2.14333	3.10000e+01	
			         2.14500	2.80000e+01	
			         2.14667	2.50000e+01	
			         2.14833	2.10000e+01	
			         2.15000	1.70000e+01	
			         2.15167	1.30000e+01	
			         2.15333	9.00000e+00	
			         2.15500	4.00000e+00	
			         2.15667	0.00000e+00	
			         2.15833	-5.00000e+00	
			         2.16000	-9.00000e+00	
			         2.16167	-1.40000e+01	
			         2.16333	-1.80000e+01	
			         2.16500	-2.30000e+01	
			         2.16667	-2.70000e+01	
			         2.16833	-3.20000e+01	
			         2.17000	-3.60000e+01	
			         2.17167	-3.90000e+01	
			         2.17333	-4.30000e+01	
			         2.17500	-4.60000e+01	
			         2.17667	-4.80000e+01	
			         2.17833	-5.10000e+01	
			         2.18000	-5.30000e+01	
			         2.18167	-5.60000e+01	
			         2.18333	-5.80000e+01	
			         2.18500	-5.90000e+01	
			         2.18667	-6.10000e+01	
			         2.18833	-6.20000e+01	
			         2.19000	-6.30000e+01	
			         2.19167	-6.40000e+01	
			         2.19333	-6.50000e+01	
			         2.19500	-6.50000e+01	
			         2.19667	-6.60000e+01	
			         2.19833	-6.60000e+01	
			         2.20000	-6.60000e+01	
			         2.20167	-6.60000e+01	
			         2.20333	-6.50000e+01	
			         2.20500	-6.50000e+01	
			         2.20667	-6.40000e+01	
			         2.20833	-6.30000e+01	
			         2.21000	-6.10000e+01	
			         2.21167	-6.00000e+01	
			         2.21333	-5.90000e+01	
			         2.21500	-5.80000e+01	
			         2.21667	-5.70000e+01	
			         2.21833	-5.60000e+01	
			         2.22000	-5.60000e+01	
			         2.22167	-5.50000e+01	
			         2.22333	-5.50000e+01	
			         2.22500	-5.40000e+01	
			         2.22667	-5.40000e+01	
			         2.22833	-5.30000e+01	
			         2.23000	-5.30000e+01	
			         2.23167	-5.20000e+01	
			         2.23333	-5.20000e+01	
			         2.23500	-5.10000e+01	
			         2.23667	-5.00000e+01	
			         2.23833	-4.90000e+01	
			         2.24000	-4.70000e+01	
			         2.24167	-4.60000e+01	
			         2.24333	-4.40000e+01	
			         2.24500	-4.30000e+01	
			         2.24667	-4.20000e+01	
			         2.24833	-4.00000e+01	
			         2.25000	-3.90000e+01	
			         2.25167	-3.80000e+01	
			         2.25333	-3.70000e+01	
			         2.25500	-3.60000e+01	
			         2.25667	-3.50000e+01	
			         2.25833	-3.50000e+01	
			         2.26000	-3.40000e+01	
			         2.26167	-3.40000e+01	
			         2.26333	-3.30000e+01	
			         2.26500	-3.20000e+01	
			         2.26667	-3.20000e+01	
			         2.26833	-3.10000e+01	
			         2.27000	-3.00000e+01	
			         2.27167	-3.00000e+01	
			         2.27333	-2.90000e+01	
			         2.27500	-2.80000e+01	
			         2.27667	-2.70000e+01	
			         2.27833	-2.70000e+01	
			         2.28000	-2.60000e+01	
			         2.28167	-2.50000e+01	
			         2.28333	-2.50000e+01	
			         2.28500	-2.50000e+01	
			         2.28667	-2.50000e+01	
			         2.28833	-2.50000e+01	
			         2.29000	-2.50000e+01	
			         2.29167	-2.50000e+01	
			         2.29333	-2.40000e+01	
			         2.29500	-2.40000e+01	
			         2.29667	-2.30000e+01	
			         2.29833	-2.20000e+01	
			         2.30000	-2.10000e+01	
			         2.30167	-2.00000e+01	
			         2.30333	-1.80000e+01	
			         2.30500	-1.70000e+01	
			         2.30667	-1.50000e+01	
			         2.30833	-1.40000e+01	
			         2.31000	-1.30000e+01	
			         2.31167	-1.20000e+01	
			         2.31333	-1.10000e+01	
			         2.31500	-1.10000e+01	
			         2.31667	-1.10000e+01	
			         2.31833	-1.10000e+01	
			         2.32000	-1.10000e+01	
			         2.32167	-1.10000e+01	
			         2.32333	-1.10000e+01	
			         2.32500	-1.10000e+01	
			         2.32667	-1.10000e+01	
			         2.32833	-1.00000e+01	
			         2.33000	-1.00000e+01	
			         2.33167	-9.00000e+00	
			         2.33333	-9.00000e+00	
			         2.33500	-8.00000e+00	
			         2.33667	-7.00000e+00	
			         2.33833	-6.00000e+00	
			         2.34000	-5.00000e+00	
			         2.34167	-4.00000e+00	
			         2.34333	-4.00000e+00	
			         2.34500	-3.00000e+00	
			         2.34667	-2.00000e+00	
			         2.34833	-1.00000e+00	
			         2.35000	-1.00000e+00	
			         2.35167	0.00000e+00	
			         2.35333	0.00000e+00	
			         2.35500	1.00000e+00	
			         2.35667	1.00000e+00	
			         2.35833	1.00000e+00	
			         2.36000	1.00000e+00	
			         2.36167	1.00000e+00	
			         2.36333	1.00000e+00	
			         2.36500	1.00000e+00	
			         2.36667	1.00000e+00	
			         2.36833	1.00000e+00	
			         2.37000	1.00000e+00	
			         2.37167	0.00000e+00	
			         2.37333	0.00000e+00	
			         2.37500	0.00000e+00	
			         2.37667	0.00000e+00	
			         2.37833	-1.00000e+00	
			         2.38000	-1.00000e+00	
			         2.38167	-1.00000e+00	
			         2.38333	-2.00000e+00	
			         2.38500	-2.00000e+00	
			         2.38667	-3.00000e+00	
			         2.38833	-3.00000e+00	
			         2.39000	-4.00000e+00	
			         2.39167	-4.00000e+00	
			         2.39333	-4.00000e+00	
			         2.39500	-5.00000e+00	
			         2.39667	-5.00000e+00	
			         2.39833	-5.00000e+00	
			         2.40000	-5.00000e+00	
			         2.40167	-5.00000e+00	
			         2.40333	-4.00000e+00	
			         2.40500	-4.00000e+00	
			         2.40667	-4.00000e+00	
			         2.40833	-4.00000e+00	
			         2.41000	-3.00000e+00	
			         2.41167	-3.00000e+00	
			         2.41333	-3.00000e+00	
			         2.41500	-3.00000e+00	
			         2.41667	-3.00000e+00	
			         2.41833	-3.00000e+00	
			         2.42000	-3.00000e+00	
			         2.42167	-4.00000e+00	
			         2.42333	-4.00000e+00	
			         2.42500	-4.00000e+00	
			         2.42667	-3.00000e+00	
			         2.42833	-3.00000e+00	
			         2.43000	-3.00000e+00	
			         2.43167	-3.00000e+00	
			         2.43333	-2.00000e+00	
			         2.43500	-2.00000e+00	
			         2.43667	-1.00000e+00	
			         2.43833	-1.00000e+00	
			         2.44000	0.00000e+00	
			         2.44167	0.00000e+00	
			         2.44333	1.00000e+00	
			         2.44500	1.00000e+00	
			         2.44667	1.00000e+00	
			         2.44833	1.00000e+00	
			         2.45000	0.00000e+00	
			         2.45167	0.00000e+00	
			         2.45333	-1.00000e+00	
			         2.45500	-1.00000e+00	
			         2.45667	-2.00000e+00	
			         2.45833	-3.00000e+00	
			         2.46000	-3.00000e+00	
			         2.46167	-4.00000e+00	
			         2.46333	-5.00000e+00	
			         2.46500	-5.00000e+00	
			         2.46667	-5.00000e+00	
			         2.46833	-6.00000e+00	
			         2.47000	-6.00000e+00	
			         2.47167	-6.00000e+00	
			         2.47333	-6.00000e+00	
			         2.47500	-5.00000e+00	
			         2.47667	-5.00000e+00	
			         2.47833	-4.00000e+00	
			         2.48000	-4.00000e+00	
			         2.48167	-3.00000e+00	
			         2.48333	-3.00000e+00	
			         2.48500	-3.00000e+00	
			         2.48667	-3.00000e+00	
			         2.48833	-2.00000e+00	
			         2.49000	-2.00000e+00	
			         2.49167	-2.00000e+00	
			         2.49333	-2.00000e+00	
			         2.49500	-1.00000e+00	
			         2.49667	-1.00000e+00	
			         2.49833	-1.00000e+00	
			         2.50000	-1.00000e+00	
			         2.50167	-1.00000e+00	
			         2.50333	-1.00000e+00	
			         2.50500	-1.00000e+00	
			         2.50667	-1.00000e+00	
			         2.50833	-1.00000e+00	
			         2.51000	-2.00000e+00	
			         2.51167	-2.00000e+00	
			         2.51333	-2.00000e+00	
			         2.51500	-2.00000e+00	
			         2.51667	-2.00000e+00	
			         2.51833	-2.00000e+00	
			         2.52000	-2.00000e+00	
			         2.52167	-1.00000e+00	
			         2.52333	-1.00000e+00	
			         2.52500	-1.00000e+00	
			         2.52667	0.00000e+00	
			         2.52833	0.00000e+00	
			         2.53000	0.00000e+00	
			         2.53167	1.00000e+00	
			         2.53333	1.00000e+00	
			         2.53500	1.00000e+00	
			         2.53667	0.00000e+00	
			         2.53833	0.00000e+00	
			         2.54000	0.00000e+00	
			         2.54167	0.00000e+00	
			         2.54333	0.00000e+00	
			         2.54500	0.00000e+00	
			         2.54667	0.00000e+00	
			         2.54833	0.00000e+00	
			         2.55000	0.00000e+00	
			         2.55167	0.00000e+00	
			         2.55333	0.00000e+00	
			         2.55500	0.00000e+00	
			         2.55667	1.00000e+00	
			         2.55833	1.00000e+00	
			         2.56000	1.00000e+00	
			         2.56167	1.00000e+00	
			         2.56333	1.00000e+00	
			         2.56500	1.00000e+00	
			         2.56667	1.00000e+00	
			         2.56833	1.00000e+00	
			         2.57000	1.00000e+00	
			         2.57167	1.00000e+00	
			         2.57333	1.00000e+00	
			         2.57500	1.00000e+00	
			         2.57667	0.00000e+00	
			         2.57833	0.00000e+00	
			         2.58000	0.00000e+00	
			         2.58167	-1.00000e+00	
			         2.58333	-1.00000e+00	
			         2.58500	-1.00000e+00	
			         2.58667	-2.00000e+00	
			         2.58833	-2.00000e+00	
			         2.59000	-2.00000e+00	
			         2.59167	-2.00000e+00	
			         2.59333	-1.00000e+00	
			         2.59500	-1.00000e+00	
			         2.59667	-1.00000e+00	
			         2.59833	0.00000e+00	
			         2.60000	1.00000e+00	
			         2.60167	1.00000e+00	
			         2.60333	2.00000e+00	
			         2.60500	3.00000e+00	
			         2.60667	3.00000e+00	
			         2.60833	4.00000e+00	
			         2.61000	4.00000e+00	
			         2.61167	4.00000e+00	
			         2.61333	4.00000e+00	
			         2.61500	4.00000e+00	
			         2.61667	4.00000e+00	
			         2.61833	4.00000e+00	
			         2.62000	4.00000e+00	
			         2.62167	4.00000e+00	
			         2.62333	4.00000e+00	
			         2.62500	4.00000e+00	
			         2.62667	4.00000e+00	
			         2.62833	4.00000e+00	
			         2.63000	5.00000e+00	
			         2.63167	5.00000e+00	
			         2.63333	5.00000e+00	
			         2.63500	4.00000e+00	
			         2.63667	4.00000e+00	
			         2.63833	3.00000e+00	
			         2.64000	2.00000e+00	
			         2.64167	1.00000e+00	
			         2.64333	-1.00000e+00	
			         2.64500	-2.00000e+00	
			         2.64667	-3.00000e+00	
			         2.64833	-5.00000e+00	
			         2.65000	-6.00000e+00	
			         2.65167	-7.00000e+00	
			         2.65333	-8.00000e+00	
			         2.65500	-9.00000e+00	
			         2.65667	-9.00000e+00	
			         2.65833	-1.00000e+01	
			         2.66000	-1.10000e+01	
			         2.66167	-1.10000e+01	
			         2.66333	-1.20000e+01	
			         2.66500	-1.20000e+01	
			         2.66667	-1.30000e+01	
			         2.66833	-1.30000e+01	
			         2.67000	-1.40000e+01	
			         2.67167	-1.40000e+01	
			         2.67333	-1.40000e+01	
			         2.67500	-1.40000e+01	
			         2.67667	-1.40000e+01	
			         2.67833	-1.40000e+01	
			         2.68000	-1.30000e+01	
			         2.68167	-1.20000e+01	
			         2.68333	-1.10000e+01	
			         2.68500	-1.00000e+01	
			         2.68667	-9.00000e+00	
			         2.68833	-9.00000e+00	
			         2.69000	-8.00000e+00	
			         2.69167	-8.00000e+00	
			         2.69333	-7.00000e+00	
			         2.69500	-7.00000e+00	
			         2.69667	-7.00000e+00	
			         2.69833	-6.00000e+00	
			         2.70000	-6.00000e+00	
			         2.70167	-6.00000e+00	
			         2.70333	-6.00000e+00	
			         2.70500	-6.00000e+00	
			         2.70667	-6.00000e+00	
			         2.70833	-6.00000e+00	
			         2.71000	-6.00000e+00	
			         2.71167	-6.00000e+00	
			         2.71333	-6.00000e+00	
			         2.71500	-6.00000e+00	
			         2.71667	-6.00000e+00	
			         2.71833	-6.00000e+00	
			         2.72000	-6.00000e+00	
			         2.72167	-6.00000e+00	
			         2.72333	-6.00000e+00	
			         2.72500	-6.00000e+00	
			         2.72667	-7.00000e+00	
			         2.72833	-7.00000e+00	
			         2.73000	-7.00000e+00	
			         2.73167	-7.00000e+00	
			         2.73333	-7.00000e+00	
			         2.73500	-6.00000e+00	
			         2.73667	-4.00000e+00	
			         2.73833	-1.00000e+00	
			         2.74000	4.00000e+00	
			         2.74167	1.00000e+01	
			         2.74333	1.80000e+01	
			         2.74500	2.90000e+01	
			         2.74667	4.20000e+01	
			         2.74833	5.80000e+01	
			         2.75000	7.50000e+01	
			         2.75167	9.50000e+01	
			         2.75333	1.15000e+02	
			         2.75500	1.37000e+02	
			         2.75667	1.57000e+02	
			         2.75833	1.77000e+02	
			         2.76000	1.95000e+02	
			         2.76167	2.10000e+02	
			         2.76333	2.21000e+02	
			         2.76500	2.28000e+02	
			         2.76667	2.28000e+02	
			         2.76833	2.22000e+02	
			         2.77000	2.09000e+02	
			         2.77167	1.91000e+02	
			         2.77333	1.68000e+02	
			         2.77500	1.41000e+02	
			         2.77667	1.11000e+02	
			         2.77833	7.80000e+01	
			         2.78000	4.60000e+01	
			         2.78167	1.40000e+01	
			         2.78333	-1.70000e+01	
			         2.78500	-4.40000e+01	
			         2.78667	-6.70000e+01	
			         2.78833	-8.60000e+01	
			         2.79000	-1.00000e+02	
			         2.79167	-1.09000e+02	
			         2.79333	-1.14000e+02	
			         2.79500	-1.15000e+02	
			         2.79667	-1.13000e+02	
			         2.79833	-1.08000e+02	
			         2.80000	-1.02000e+02	
			         2.80167	-9.40000e+01	
			         2.80333	-8.70000e+01	
			         2.80500	-7.80000e+01	
			         2.80667	-7.00000e+01	
			         2.80833	-6.30000e+01	
			         2.81000	-5.60000e+01	
			         2.81167	-5.10000e+01	
			         2.81333	-4.60000e+01	
			         2.81500	-4.10000e+01	
			         2.81667	-3.80000e+01	
			         2.81833	-3.50000e+01	
			         2.82000	-3.20000e+01	
			         2.82167	-3.00000e+01	
			         2.82333	-2.80000e+01	
			         2.82500	-2.70000e+01	
			         2.82667	-2.60000e+01	
			         2.82833	-2.40000e+01	
			         2.83000	-2.30000e+01	
			         2.83167	-2.20000e+01	
			         2.83333	-2.00000e+01	
