Velocity (TVI), in cm/s

Time (s) :	Trace 1 : 		Ecg : 		
0.00541   	-2.08399e+00		         0.00000	2.50000e+01	
0.01178   	-2.08029e+00		         0.00167	3.40000e+01	
0.01816   	-2.00883e+00		         0.00333	4.40000e+01	
0.02454   	-1.55329e+00		         0.00500	5.60000e+01	
0.03091   	-3.76338e-01		         0.00667	6.90000e+01	
0.03729   	1.15191e+00		         0.00833	8.20000e+01	
0.04367   	1.74103e+00		         0.01000	9.60000e+01	
0.05004   	4.58246e-01		         0.01167	1.08000e+02	
0.05642   	-1.13959e+00		         0.01333	1.20000e+02	
0.06280   	-1.66229e+00		         0.01500	1.30000e+02	
0.06917   	-1.69333e+00		         0.01667	1.39000e+02	
0.07555   	-1.44141e+00		         0.01833	1.45000e+02	
0.08193   	-8.60897e-01		         0.02000	1.48000e+02	
0.08830   	9.81392e-01		         0.02167	1.49000e+02	
0.09468   	2.86687e+00		         0.02333	1.46000e+02	
0.10106   	3.98029e+00		         0.02500	1.40000e+02	
0.10744   	4.58593e+00		         0.02667	1.31000e+02	
0.11381   	4.79972e+00		         0.02833	1.19000e+02	
0.12019   	4.78982e+00		         0.03000	1.05000e+02	
0.12656   	4.65876e+00		         0.03167	8.90000e+01	
0.13294   	4.53743e+00		         0.03333	7.30000e+01	
0.13932   	4.45308e+00		         0.03500	5.60000e+01	
0.14569   	4.43075e+00		         0.03667	4.00000e+01	
0.15207   	4.42820e+00		         0.03833	2.40000e+01	
0.15845   	4.44982e+00		         0.04000	1.00000e+01	
0.16483   	4.45664e+00		         0.04167	-3.00000e+00	
0.17120   	4.54328e+00		         0.04333	-1.40000e+01	
0.17758   	4.56111e+00		         0.04500	-2.30000e+01	
0.18396   	4.64419e+00		         0.04667	-2.90000e+01	
0.19033   	4.62475e+00		         0.04833	-3.40000e+01	
0.19671   	4.63576e+00		         0.05000	-3.70000e+01	
0.20309   	4.58893e+00		         0.05167	-3.90000e+01	
0.20946   	4.50291e+00		         0.05333	-4.00000e+01	
0.21584   	4.28581e+00		         0.05500	-3.90000e+01	
0.22222   	4.16472e+00		         0.05667	-3.80000e+01	
0.22859   	4.01385e+00		         0.05833	-3.70000e+01	
0.23497   	3.95021e+00		         0.06000	-3.60000e+01	
0.24135   	3.77455e+00		         0.06167	-3.50000e+01	
0.24772   	3.68548e+00		         0.06333	-3.40000e+01	
0.25410   	3.67130e+00		         0.06500	-3.30000e+01	
0.26048   	3.57026e+00		         0.06667	-3.30000e+01	
0.26685   	3.43554e+00		         0.06833	-3.30000e+01	
0.27323   	3.25257e+00		         0.07000	-3.20000e+01	
0.27960   	3.21651e+00		         0.07167	-3.20000e+01	
0.28598   	3.14982e+00		         0.07333	-3.20000e+01	
0.29236   	3.06434e+00		         0.07500	-3.20000e+01	
0.29874   	2.90536e+00		         0.07667	-3.20000e+01	
0.30511   	2.80598e+00		         0.07833	-3.20000e+01	
0.31149   	2.75258e+00		         0.08000	-3.10000e+01	
0.31787   	2.66147e+00		         0.08167	-3.00000e+01	
0.32424   	2.51780e+00		         0.08333	-2.90000e+01	
0.33062   	2.33381e+00		         0.08500	-2.70000e+01	
0.33700   	2.20000e+00		         0.08667	-2.60000e+01	
0.34337   	1.99327e+00		         0.08833	-2.50000e+01	
0.34975   	1.79154e+00		         0.09000	-2.40000e+01	
0.35613   	1.55865e+00		         0.09167	-2.40000e+01	
0.36250   	1.32439e+00		         0.09333	-2.30000e+01	
0.36888   	1.03236e+00		         0.09500	-2.30000e+01	
0.37526   	6.42152e-01		         0.09667	-2.30000e+01	
0.38163   	1.10547e-01		         0.09833	-2.30000e+01	
0.38801   	-6.23278e-01		         0.10000	-2.30000e+01	
0.39439   	-1.38256e+00		         0.10167	-2.30000e+01	
0.40076   	-1.39310e+00		         0.10333	-2.40000e+01	
0.40714   	-5.34989e-01		         0.10500	-2.40000e+01	
0.41352   	7.12811e-01		         0.10667	-2.50000e+01	
0.41990   	1.42866e+00		         0.10833	-2.50000e+01	
0.42641   	1.63721e+00		         0.11000	-2.50000e+01	
0.43265   	1.70205e+00		         0.11167	-2.40000e+01	
0.43903   	1.86369e+00		         0.11333	-2.30000e+01	
0.44540   	1.99203e+00		         0.11500	-2.20000e+01	
0.45178   	1.99955e+00		         0.11667	-2.10000e+01	
0.45815   	1.84287e+00		         0.11833	-1.90000e+01	
0.46454   	1.61946e+00		         0.12000	-1.80000e+01	
0.47091   	1.25220e+00		         0.12167	-1.70000e+01	
0.47728   	3.36778e-01		         0.12333	-1.60000e+01	
0.48366   	-7.48314e-01		         0.12500	-1.50000e+01	
0.49004   	-2.18177e+00		         0.12667	-1.40000e+01	
0.49641   	-3.43712e+00		         0.12833	-1.30000e+01	
0.50279   	-4.62055e+00		         0.13000	-1.30000e+01	
0.50952   	-5.39310e+00		         0.13167	-1.30000e+01	
0.51555   	-5.80471e+00		         0.13333	-1.30000e+01	
0.52192   	-6.13637e+00		         0.13500	-1.30000e+01	
0.52830   	-6.38843e+00		         0.13667	-1.30000e+01	
0.53468   	-6.44571e+00		         0.13833	-1.30000e+01	
0.54105   	-6.25836e+00		         0.14000	-1.40000e+01	
0.54743   	-5.80532e+00		         0.14167	-1.30000e+01	
0.55381   	-5.24835e+00		         0.14333	-1.30000e+01	
0.56018   	-4.70538e+00		         0.14500	-1.30000e+01	
0.56656   	-4.14118e+00		         0.14667	-1.30000e+01	
0.57293   	-3.63885e+00		         0.14833	-1.30000e+01	
0.57931   	-3.11758e+00		         0.15000	-1.30000e+01	
0.58569   	-2.81122e+00		         0.15167	-1.20000e+01	
0.59229   	-2.47291e+00		         0.15333	-1.20000e+01	
0.59844   	-2.25902e+00		         0.15500	-1.20000e+01	
0.60482   	-2.05709e+00		         0.15667	-1.10000e+01	
0.61120   	-1.94676e+00		         0.15833	-1.10000e+01	
0.61757   	-1.88635e+00		         0.16000	-1.10000e+01	
0.62395   	-1.97274e+00		         0.16167	-1.00000e+01	
0.63033   	-2.17402e+00		         0.16333	-1.00000e+01	
0.63670   	-2.38095e+00		         0.16500	-9.00000e+00	
0.64308   	-2.46295e+00		         0.16667	-9.00000e+00	
0.64946   	-2.54913e+00		         0.16833	-8.00000e+00	
0.65583   	-2.29281e+00		         0.17000	-7.00000e+00	
0.66221   	-1.79457e+00		         0.17167	-7.00000e+00	
0.66859   	-1.21024e+00		         0.17333	-6.00000e+00	
0.67496   	-1.19751e+00		         0.17500	-5.00000e+00	
0.68134   	-1.18318e+00		         0.17667	-4.00000e+00	
0.68772   	-1.14117e+00		         0.17833	-4.00000e+00	
0.69410   	-8.25318e-01		         0.18000	-3.00000e+00	
0.70047   	-7.49555e-01		         0.18167	-2.00000e+00	
0.70685   	-7.32883e-01		         0.18333	-1.00000e+00	
0.71323   	-7.53634e-01		         0.18500	0.00000e+00	
0.71960   	-7.30799e-01		         0.18667	1.00000e+00	
0.72598   	-6.71131e-01		         0.18833	2.00000e+00	
0.73236   	-5.90898e-01		         0.19000	3.00000e+00	
0.73873   	-5.22645e-01		         0.19167	3.00000e+00	
0.74511   	-5.10701e-01		         0.19333	4.00000e+00	
0.75148   	-5.00028e-01		         0.19500	5.00000e+00	
0.75786   	-4.80227e-01		         0.19667	5.00000e+00	
0.76424   	-4.55157e-01		         0.19833	6.00000e+00	
0.77062   	-4.58898e-01		         0.20000	6.00000e+00	
0.77699   	-4.75186e-01		         0.20167	7.00000e+00	
0.78337   	-4.81310e-01		         0.20333	7.00000e+00	
0.78974   	-4.84823e-01		         0.20500	7.00000e+00	
0.79613   	-4.95121e-01		         0.20667	8.00000e+00	
0.80250   	-5.67209e-01		         0.20833	9.00000e+00	
0.80887   	-6.17590e-01		         0.21000	9.00000e+00	
0.81525   	-5.10504e-01		         0.21167	1.00000e+01	
0.82164   	-8.41530e-01		         0.21333	1.10000e+01	
0.82801   	-1.75365e+00		         0.21500	1.20000e+01	
0.83438   	-3.36031e+00		         0.21667	1.30000e+01	
0.84076   	-4.84582e+00		         0.21833	1.50000e+01	
0.84714   	-6.04491e+00		         0.22000	1.60000e+01	
0.85351   	-6.68823e+00		         0.22167	1.70000e+01	
0.85989   	-6.95235e+00		         0.22333	1.90000e+01	
0.86627   	-6.72759e+00		         0.22500	2.00000e+01	
0.87264   	-6.38315e+00		         0.22667	2.10000e+01	
0.87902   	-5.66333e+00		         0.22833	2.20000e+01	
0.88540   	-4.93640e+00		         0.23000	2.30000e+01	
0.89177   	-4.22336e+00		         0.23167	2.50000e+01	
0.89815   	-3.56317e+00		         0.23333	2.60000e+01	
0.90453   	-3.08571e+00		         0.23500	2.70000e+01	
0.91090   	-2.51230e+00		         0.23667	2.70000e+01	
0.91728   	-1.85596e+00		         0.23833	2.80000e+01	
0.92366   	-1.23818e+00		         0.24000	2.90000e+01	
0.93004   	-4.31116e-01		         0.24167	2.90000e+01	
0.93641   	6.36694e-01		         0.24333	3.00000e+01	
0.94279   	1.49969e+00		         0.24500	3.10000e+01	
0.94917   	5.93456e-01		         0.24667	3.20000e+01	
0.95554   	-1.08672e+00		         0.24833	3.20000e+01	
0.96192   	-2.37823e+00		         0.25000	3.30000e+01	
0.96830   	-2.37220e+00		         0.25167	3.40000e+01	
0.97467   	-1.92615e+00		         0.25333	3.50000e+01	
0.98105   	-8.87993e-01		         0.25500	3.60000e+01	
0.98743   	8.51938e-01		         0.25667	3.60000e+01	
0.99380   	2.78602e+00		         0.25833	3.70000e+01	
1.00018   	4.08948e+00		         0.26000	3.80000e+01	
1.00655   	4.79802e+00		         0.26167	3.90000e+01	
1.01293   	4.88145e+00		         0.26333	4.00000e+01	
1.01931   	4.83082e+00		         0.26500	4.10000e+01	
1.02569   	4.64318e+00		         0.26667	4.20000e+01	
1.03206   	4.57913e+00		         0.26833	4.20000e+01	
1.03844   	4.43639e+00		         0.27000	4.20000e+01	
1.04481   	4.40701e+00		         0.27167	4.20000e+01	
1.05119   	4.35904e+00		         0.27333	4.20000e+01	
1.05764   	4.37539e+00		         0.27500	4.20000e+01	
1.06395   	4.27357e+00		         0.27667	4.10000e+01	
1.07032   	4.23084e+00		         0.27833	4.10000e+01	
1.07670   	4.30212e+00		         0.28000	4.00000e+01	
1.08307   	4.48938e+00		         0.28167	3.90000e+01	
1.08945   	4.57085e+00		         0.28333	3.80000e+01	
1.09583   	4.57135e+00		         0.28500	3.80000e+01	
1.10221   	4.57877e+00		         0.28667	3.60000e+01	
1.10858   	4.59087e+00		         0.28833	3.50000e+01	
1.11496   	4.52663e+00		         0.29000	3.40000e+01	
1.12134   	4.42707e+00		         0.29167	3.30000e+01	
1.12771   	4.31142e+00		         0.29333	3.20000e+01	
1.13409   	4.23867e+00		         0.29500	3.10000e+01	
1.14047   	4.05204e+00		         0.29667	3.00000e+01	
1.14684   	3.93882e+00		         0.29833	2.90000e+01	
1.15323   	3.73708e+00		         0.30000	2.80000e+01	
1.15960   	3.64479e+00		         0.30167	2.60000e+01	
1.16597   	3.53020e+00		         0.30333	2.50000e+01	
1.17235   	3.53023e+00		         0.30500	2.30000e+01	
1.17873   	3.44681e+00		         0.30667	2.10000e+01	
1.18510   	3.38316e+00		         0.30833	2.00000e+01	
1.19148   	3.25783e+00		         0.31000	1.80000e+01	
1.19786   	3.10198e+00		         0.31167	1.60000e+01	
1.20423   	2.94619e+00		         0.31333	1.40000e+01	
1.21061   	2.79578e+00		         0.31500	1.20000e+01	
1.21699   	2.67493e+00		         0.31667	1.00000e+01	
1.22336   	2.53426e+00		         0.31833	7.00000e+00	
1.22974   	2.35860e+00		         0.32000	4.00000e+00	
1.23612   	2.23819e+00		         0.32167	1.00000e+00	
1.24249   	2.04598e+00		         0.32333	-2.00000e+00	
1.24887   	1.86515e+00		         0.32500	-5.00000e+00	
1.25525   	1.67215e+00		         0.32667	-8.00000e+00	
1.26163   	1.49025e+00		         0.32833	-1.10000e+01	
1.26800   	1.26623e+00		         0.33000	-1.50000e+01	
1.27438   	9.18877e-01		         0.33167	-1.80000e+01	
1.28076   	4.51471e-01		         0.33333	-2.10000e+01	
1.28713   	-1.67927e-01		         0.33500	-2.40000e+01	
1.29351   	-9.76351e-01		         0.33667	-2.70000e+01	
1.29989   	-2.00134e+00		         0.33833	-3.00000e+01	
1.30629   	-2.96005e+00		         0.34000	-3.20000e+01	
1.31264   	-3.15320e+00		         0.34167	-3.40000e+01	
1.31902   	-2.31062e+00		         0.34333	-3.50000e+01	
1.32539   	-7.34952e-01		         0.34500	-3.60000e+01	
1.33177   	4.15819e-01		         0.34667	-3.70000e+01	
1.33814   	1.14857e+00		         0.34833	-3.80000e+01	
1.34453   	1.56058e+00		         0.35000	-3.80000e+01	
1.35090   	2.11624e+00		         0.35167	-3.80000e+01	
1.35728   	2.55374e+00		         0.35333	-3.80000e+01	
1.36365   	2.77206e+00		         0.35500	-3.80000e+01	
1.37003   	2.88432e+00		         0.35667	-3.80000e+01	
1.37641   	2.64535e+00		         0.35833	-3.80000e+01	
1.38278   	3.15533e+00		         0.36000	-3.70000e+01	
1.38938   	2.80942e+00		         0.36167	-3.70000e+01	
1.39554   	1.69100e+00		         0.36333	-3.70000e+01	
1.40191   	-5.30341e-01		         0.36500	-3.60000e+01	
1.40829   	-2.44195e+00		         0.36667	-3.60000e+01	
1.41467   	-3.58811e+00		         0.36833	-3.60000e+01	
1.42104   	-4.63621e+00		         0.37000	-3.60000e+01	
1.42742   	-5.16455e+00		         0.37167	-3.60000e+01	
1.43380   	-5.51611e+00		         0.37333	-3.60000e+01	
1.44017   	-5.55061e+00		         0.37500	-3.60000e+01	
1.44655   	-5.55227e+00		         0.37667	-3.60000e+01	
1.45293   	-5.27035e+00		         0.37833	-3.50000e+01	
1.45930   	-5.02729e+00		         0.38000	-3.50000e+01	
1.46568   	-4.52555e+00		         0.38167	-3.50000e+01	
1.47243   	-4.12237e+00		         0.38333	-3.50000e+01	
1.47844   	-3.70448e+00		         0.38500	-3.50000e+01	
1.48481   	-3.41412e+00		         0.38667	-3.50000e+01	
1.49119   	-3.16776e+00		         0.38833	-3.40000e+01	
1.49756   	-2.90260e+00		         0.39000	-3.40000e+01	
1.50394   	-2.63395e+00		         0.39167	-3.30000e+01	
1.51032   	-2.32105e+00		         0.39333	-3.30000e+01	
1.51670   	-1.96345e+00		         0.39500	-3.20000e+01	
1.52307   	-1.81949e+00		         0.39667	-3.10000e+01	
1.52945   	-1.59014e+00		         0.39833	-3.00000e+01	
1.53583   	-1.50203e+00		         0.40000	-2.90000e+01	
1.54220   	-1.34356e+00		         0.40167	-2.80000e+01	
1.54858   	-1.37328e+00		         0.40333	-2.80000e+01	
1.55495   	-1.36617e+00		         0.40500	-2.70000e+01	
1.56133   	-1.19567e+00		         0.40667	-2.70000e+01	
1.56771   	-1.05438e+00		         0.40833	-2.60000e+01	
1.57408   	-9.01241e-01		         0.41000	-2.60000e+01	
1.58046   	-1.01396e+00		         0.41167	-2.60000e+01	
1.58684   	-1.07173e+00		         0.41333	-2.60000e+01	
1.59322   	-1.08197e+00		         0.41500	-2.50000e+01	
1.59959   	-9.02106e-01		         0.41667	-2.50000e+01	
1.60597   	-7.48287e-01		         0.41833	-2.40000e+01	
1.61235   	-6.60714e-01		         0.42000	-2.40000e+01	
1.61872   	-6.23586e-01		         0.42167	-2.30000e+01	
1.62510   	-5.97241e-01		         0.42333	-2.20000e+01	
1.63148   	-5.13614e-01		         0.42500	-2.10000e+01	
1.63785   	-4.61937e-01		         0.42667	-2.00000e+01	
1.64423   	-4.28580e-01		         0.42833	-1.90000e+01	
1.65061   	-4.04847e-01		         0.43000	-1.80000e+01	
1.65698   	-4.20431e-01		         0.43167	-1.60000e+01	
1.66336   	-4.04139e-01		         0.43333	-1.50000e+01	
1.66973   	-4.54484e-01		         0.43500	-1.40000e+01	
1.67611   	-4.96814e-01		         0.43667	-1.30000e+01	
1.68249   	-5.29153e-01		         0.43833	-1.20000e+01	
1.68887   	-5.23199e-01		         0.44000	-1.10000e+01	
1.69524   	-4.99244e-01		         0.44167	-1.10000e+01	
1.70162   	-5.60837e-01		         0.44333	-1.00000e+01	
1.70800   	-6.91247e-01		         0.44500	-9.00000e+00	
1.71438   	-8.50834e-01		         0.44667	-9.00000e+00	
1.72075   	-1.55952e+00		         0.44833	-9.00000e+00	
1.72713   	-2.75190e+00		         0.45000	-8.00000e+00	
1.73350   	-4.06800e+00		         0.45167	-7.00000e+00	
1.73988   	-5.06841e+00		         0.45333	-6.00000e+00	
1.74626   	-5.92192e+00		         0.45500	-6.00000e+00	
1.75263   	-6.78405e+00		         0.45667	-5.00000e+00	
1.75901   	-7.27732e+00		         0.45833	-4.00000e+00	
1.76539   	-7.31199e+00		         0.46000	-3.00000e+00	
1.77176   	-6.97201e+00		         0.46167	-2.00000e+00	
1.77814   	-6.36577e+00		         0.46333	-1.00000e+00	
1.78452   	-5.52199e+00		         0.46500	0.00000e+00	
1.79090   	-4.66171e+00		         0.46667	0.00000e+00	
1.79727   	-3.85201e+00		         0.46833	1.00000e+00	
1.80365   	-3.17859e+00		         0.47000	1.00000e+00	
1.81003   	-2.47655e+00		         0.47167	2.00000e+00	
1.81640   	-1.91403e+00		         0.47333	2.00000e+00	
1.82278   	-1.27415e+00		         0.47500	3.00000e+00	
1.82916   	-4.40328e-01		         0.47667	3.00000e+00	
1.83553   	7.41460e-01		         0.47833	3.00000e+00	
1.84191   	1.66703e+00		         0.48000	4.00000e+00	
1.84829   	9.66413e-01		         0.48167	4.00000e+00	
1.85466   	-4.33763e-01		         0.48333	4.00000e+00	
1.86104   	-1.65114e+00		         0.48500	4.00000e+00	
1.86742   	-1.75778e+00		         0.48667	5.00000e+00	
1.87379   	-1.83656e+00		         0.48833	5.00000e+00	
1.88017   	-1.48248e+00		         0.49000	6.00000e+00	
1.88654   	-1.76934e-01		         0.49167	6.00000e+00	
1.89293   	1.81117e+00		         0.49333	6.00000e+00	
1.89930   	3.53848e+00		         0.49500	6.00000e+00	
1.90567   	4.44444e+00		         0.49667	6.00000e+00	
1.91205   	4.83967e+00		         0.49833	5.00000e+00	
1.91843   	4.86092e+00		         0.50000	5.00000e+00	
1.92481   	4.80855e+00		         0.50167	4.00000e+00	
1.93118   	4.63266e+00		         0.50333	4.00000e+00	
1.93756   	4.48868e+00		         0.50500	3.00000e+00	
1.94394   	4.34246e+00		         0.50667	3.00000e+00	
1.95031   	4.20747e+00		         0.50833	2.00000e+00	
1.95669   	4.08618e+00		         0.51000	2.00000e+00	
1.96307   	4.05922e+00		         0.51167	2.00000e+00	
1.96944   	4.16226e+00		         0.51333	1.00000e+00	
1.97582   	4.29823e+00		         0.51500	1.00000e+00	
1.98220   	4.35877e+00		         0.51667	1.00000e+00	
1.98857   	4.48367e+00		         0.51833	2.00000e+00	
1.99495   	4.53990e+00		         0.52000	2.00000e+00	
2.00133   	4.55136e+00		         0.52167	2.00000e+00	
2.00771   	4.45606e+00		         0.52333	2.00000e+00	
2.01408   	4.39204e+00		         0.52500	3.00000e+00	
2.02046   	4.32111e+00		         0.52667	3.00000e+00	
2.02684   	4.26777e+00		         0.52833	3.00000e+00	
2.03321   	4.25499e+00		         0.53000	2.00000e+00	
2.03959   	4.19939e+00		         0.53167	2.00000e+00	
2.04597   	4.10527e+00		         0.53333	2.00000e+00	
2.05234   	3.92312e+00		         0.53500	2.00000e+00	
2.05872   	3.75618e+00		         0.53667	1.00000e+00	
2.06509   	3.62301e+00		         0.53833	0.00000e+00	
2.07147   	3.54674e+00		         0.54000	0.00000e+00	
2.07785   	3.50166e+00		         0.54167	-1.00000e+00	
2.08422   	3.43651e+00		         0.54333	-1.00000e+00	
2.09060   	3.27396e+00		         0.54500	-1.00000e+00	
2.09698   	3.12587e+00		         0.54667	-2.00000e+00	
2.10336   	2.99041e+00		         0.54833	-2.00000e+00	
2.10973   	2.94056e+00		         0.55000	-2.00000e+00	
2.11611   	2.82805e+00		         0.55167	-2.00000e+00	
2.12249   	2.71134e+00		         0.55333	-2.00000e+00	
2.12886   	2.51430e+00		         0.55500	-2.00000e+00	
2.13524   	2.33553e+00		         0.55667	-2.00000e+00	
2.14162   	2.13232e+00		         0.55833	-3.00000e+00	
2.14799   	1.94991e+00		         0.56000	-3.00000e+00	
2.15437   	1.78637e+00		         0.56167	-3.00000e+00	
2.16075   	1.61802e+00		         0.56333	-3.00000e+00	
2.16712   	1.40695e+00		         0.56500	-2.00000e+00	
2.17350   	1.11578e+00		         0.56667	-2.00000e+00	
2.17988   	7.09080e-01		         0.56833	-2.00000e+00	
2.18635   	7.62417e-02		         0.57000	-2.00000e+00	
2.19263   	-8.18660e-01		         0.57167	-3.00000e+00	
2.19901   	-1.93260e+00		         0.57333	-3.00000e+00	
2.20538   	-2.74018e+00		         0.57500	-3.00000e+00	
2.21176   	-2.50822e+00		         0.57667	-3.00000e+00	
2.21814   	-1.29424e+00		         0.57833	-3.00000e+00	
2.22451   	2.06407e-01		         0.58000	-3.00000e+00	
2.23089   	9.81093e-01		         0.58167	-4.00000e+00	
2.23727   	1.36331e+00		         0.58333	-4.00000e+00	
2.24364   	1.58871e+00		         0.58500	-4.00000e+00	
2.25002   	1.89247e+00		         0.58667	-4.00000e+00	
2.25640   	2.12744e+00		         0.58833	-4.00000e+00	
2.26277   	2.31533e+00		         0.59000	-4.00000e+00	
2.26933   	2.34992e+00		         0.59167	-4.00000e+00	
2.27553   	2.49765e+00		         0.59333	-4.00000e+00	
2.28190   	2.18120e+00		         0.59500	-3.00000e+00	
2.28828   	1.20161e+00		         0.59667	-3.00000e+00	
2.29466   	-7.24381e-01		         0.59833	-3.00000e+00	
2.30103   	-2.60883e+00		         0.60000	-3.00000e+00	
2.30741   	-4.09059e+00		         0.60167	-3.00000e+00	
2.31379   	-5.01086e+00		         0.60333	-3.00000e+00	
2.32016   	-5.72174e+00		         0.60500	-3.00000e+00	
2.32654   	-6.12583e+00		         0.60667	-3.00000e+00	
2.33292   	-6.39556e+00		         0.60833	-4.00000e+00	
2.33929   	-6.54759e+00		         0.61000	-4.00000e+00	
2.34567   	-6.49400e+00		         0.61167	-4.00000e+00	
2.35211   	-6.38694e+00		         0.61333	-5.00000e+00	
2.35843   	-6.03967e+00		         0.61500	-5.00000e+00	
2.36480   	-5.76706e+00		         0.61667	-6.00000e+00	
2.37118   	-5.34521e+00		         0.61833	-6.00000e+00	
2.37756   	-4.95133e+00		         0.62000	-7.00000e+00	
2.38393   	-4.37233e+00		         0.62167	-7.00000e+00	
2.39031   	-3.81273e+00		         0.62333	-7.00000e+00	
2.39669   	-3.19067e+00		         0.62500	-8.00000e+00	
2.40306   	-2.70785e+00		         0.62667	-8.00000e+00	
2.40944   	-2.33655e+00		         0.62833	-9.00000e+00	
2.41582   	-2.10837e+00		         0.63000	-9.00000e+00	
2.42219   	-1.90504e+00		         0.63167	-9.00000e+00	
2.42857   	-1.71772e+00		         0.63333	-9.00000e+00	
2.43513   	-1.49949e+00		         0.63500	-9.00000e+00	
2.44132   	-1.39633e+00		         0.63667	-9.00000e+00	
2.44770   	-1.37360e+00		         0.63833	-9.00000e+00	
2.45408   	-1.55212e+00		         0.64000	-9.00000e+00	
2.46045   	-1.60898e+00		         0.64167	-9.00000e+00	
2.46683   	-1.74514e+00		         0.64333	-8.00000e+00	
2.47321   	-1.76928e+00		         0.64500	-8.00000e+00	
2.47958   	-1.86589e+00		         0.64667	-8.00000e+00	
2.48602   	-1.90512e+00		         0.64833	-7.00000e+00	
2.49234   	-1.75223e+00		         0.65000	-7.00000e+00	
2.49871   	-1.47137e+00		         0.65167	-6.00000e+00	
2.50509   	-1.05732e+00		         0.65333	-6.00000e+00	
2.51147   	-8.68198e-01		         0.65500	-6.00000e+00	
2.51784   	-7.03517e-01		         0.65667	-6.00000e+00	
2.52422   	-6.17343e-01		         0.65833	-7.00000e+00	
2.53060   	-5.18456e-01		         0.66000	-7.00000e+00	
2.53697   	-4.89979e-01		         0.66167	-7.00000e+00	
2.54336   	-4.54348e-01		         0.66333	-7.00000e+00	
2.54973   	-4.70866e-01		         0.66500	-8.00000e+00	
2.55611   	-5.05420e-01		         0.66667	-8.00000e+00	
2.56248   	-5.33565e-01		         0.66833	-8.00000e+00	
2.56886   	-5.55715e-01		         0.67000	-8.00000e+00	
2.57524   	-5.80295e-01		         0.67167	-8.00000e+00	
2.58161   	-6.18107e-01		         0.67333	-8.00000e+00	
2.58799   	-6.34087e-01		         0.67500	-7.00000e+00	
2.59436   	-6.44436e-01		         0.67667	-7.00000e+00	
2.60074   	-6.00733e-01		         0.67833	-7.00000e+00	
2.60712   	-5.44362e-01		         0.68000	-7.00000e+00	
2.61349   	-4.29454e-01		         0.68167	-7.00000e+00	
2.61987   	-9.44489e-01		         0.68333	-7.00000e+00	
2.62625   	-2.14150e+00		         0.68500	-7.00000e+00	
2.63262   	-3.77389e+00		         0.68667	-7.00000e+00	
2.63901   	-4.75986e+00		         0.68833	-6.00000e+00	
2.64538   	-5.59474e+00		         0.69000	-6.00000e+00	
2.65176   	-6.09374e+00		         0.69167	-6.00000e+00	
2.65813   	-6.73979e+00		         0.69333	-6.00000e+00	
2.66451   	-6.70483e+00		         0.69500	-6.00000e+00	
2.67089   	-6.42186e+00		         0.69667	-5.00000e+00	
2.67726   	-5.72732e+00		         0.69833	-5.00000e+00	
2.68364   	-4.87256e+00		         0.70000	-4.00000e+00	
2.69002   	-4.08227e+00		         0.70167	-3.00000e+00	
2.69639   	-3.35958e+00		         0.70333	-3.00000e+00	
2.70277   	-2.90854e+00		         0.70500	-2.00000e+00	
2.70915   	-2.25335e+00		         0.70667	-2.00000e+00	
2.71552   	-1.68601e+00		         0.70833	-2.00000e+00	
2.72190   	-1.03321e+00		         0.71000	-1.00000e+00	
2.72827   	-7.14483e-02		         0.71167	-1.00000e+00	
2.73465   	1.19910e+00		         0.71333	-1.00000e+00	
2.74103   	2.09436e+00		         0.71500	-1.00000e+00	
			         0.71667	-1.00000e+00	
			         0.71833	-1.00000e+00	
			         0.72000	-1.00000e+00	
			         0.72167	-2.00000e+00	
			         0.72333	-2.00000e+00	
			         0.72500	-3.00000e+00	
			         0.72667	-3.00000e+00	
			         0.72833	-4.00000e+00	
			         0.73000	-4.00000e+00	
			         0.73167	-4.00000e+00	
			         0.73333	-5.00000e+00	
			         0.73500	-5.00000e+00	
			         0.73667	-6.00000e+00	
			         0.73833	-6.00000e+00	
			         0.74000	-6.00000e+00	
			         0.74167	-6.00000e+00	
			         0.74333	-5.00000e+00	
			         0.74500	-5.00000e+00	
			         0.74667	-4.00000e+00	
			         0.74833	-4.00000e+00	
			         0.75000	-3.00000e+00	
			         0.75167	-3.00000e+00	
			         0.75333	-2.00000e+00	
			         0.75500	-1.00000e+00	
			         0.75667	-1.00000e+00	
			         0.75833	0.00000e+00	
			         0.76000	1.00000e+00	
			         0.76167	2.00000e+00	
			         0.76333	3.00000e+00	
			         0.76500	4.00000e+00	
			         0.76667	6.00000e+00	
			         0.76833	7.00000e+00	
			         0.77000	8.00000e+00	
			         0.77167	1.00000e+01	
			         0.77333	1.10000e+01	
			         0.77500	1.30000e+01	
			         0.77667	1.40000e+01	
			         0.77833	1.50000e+01	
			         0.78000	1.50000e+01	
			         0.78167	1.60000e+01	
			         0.78333	1.60000e+01	
			         0.78500	1.60000e+01	
			         0.78667	1.60000e+01	
			         0.78833	1.60000e+01	
			         0.79000	1.60000e+01	
			         0.79167	1.60000e+01	
			         0.79333	1.60000e+01	
			         0.79500	1.50000e+01	
			         0.79667	1.50000e+01	
			         0.79833	1.40000e+01	
			         0.80000	1.30000e+01	
			         0.80167	1.20000e+01	
			         0.80333	1.10000e+01	
			         0.80500	1.00000e+01	
			         0.80667	9.00000e+00	
			         0.80833	7.00000e+00	
			         0.81000	6.00000e+00	
			         0.81167	4.00000e+00	
			         0.81333	3.00000e+00	
			         0.81500	2.00000e+00	
			         0.81667	1.00000e+00	
			         0.81833	0.00000e+00	
			         0.82000	-1.00000e+00	
			         0.82167	-2.00000e+00	
			         0.82333	-3.00000e+00	
			         0.82500	-3.00000e+00	
			         0.82667	-4.00000e+00	
			         0.82833	-4.00000e+00	
			         0.83000	-5.00000e+00	
			         0.83167	-5.00000e+00	
			         0.83333	-6.00000e+00	
			         0.83500	-7.00000e+00	
			         0.83667	-7.00000e+00	
			         0.83833	-8.00000e+00	
			         0.84000	-9.00000e+00	
			         0.84167	-1.00000e+01	
			         0.84333	-1.00000e+01	
			         0.84500	-1.10000e+01	
			         0.84667	-1.20000e+01	
			         0.84833	-1.20000e+01	
			         0.85000	-1.30000e+01	
			         0.85167	-1.30000e+01	
			         0.85333	-1.30000e+01	
			         0.85500	-1.30000e+01	
			         0.85667	-1.20000e+01	
			         0.85833	-1.20000e+01	
			         0.86000	-1.10000e+01	
			         0.86167	-1.00000e+01	
			         0.86333	-1.00000e+01	
			         0.86500	-9.00000e+00	
			         0.86667	-8.00000e+00	
			         0.86833	-8.00000e+00	
			         0.87000	-7.00000e+00	
			         0.87167	-6.00000e+00	
			         0.87333	-5.00000e+00	
			         0.87500	-4.00000e+00	
			         0.87667	-4.00000e+00	
			         0.87833	-3.00000e+00	
			         0.88000	-2.00000e+00	
			         0.88167	-2.00000e+00	
			         0.88333	-1.00000e+00	
			         0.88500	0.00000e+00	
			         0.88667	1.00000e+00	
			         0.88833	2.00000e+00	
			         0.89000	4.00000e+00	
			         0.89167	5.00000e+00	
			         0.89333	8.00000e+00	
			         0.89500	1.10000e+01	
			         0.89667	1.40000e+01	
			         0.89833	1.90000e+01	
			         0.90000	2.50000e+01	
			         0.90167	3.20000e+01	
			         0.90333	4.00000e+01	
			         0.90500	5.00000e+01	
			         0.90667	6.20000e+01	
			         0.90833	7.50000e+01	
			         0.91000	8.80000e+01	
			         0.91167	1.02000e+02	
			         0.91333	1.15000e+02	
			         0.91500	1.27000e+02	
			         0.91667	1.38000e+02	
			         0.91833	1.46000e+02	
			         0.92000	1.52000e+02	
			         0.92167	1.55000e+02	
			         0.92333	1.55000e+02	
			         0.92500	1.52000e+02	
			         0.92667	1.45000e+02	
			         0.92833	1.34000e+02	
			         0.93000	1.21000e+02	
			         0.93167	1.06000e+02	
			         0.93333	8.90000e+01	
			         0.93500	7.10000e+01	
			         0.93667	5.30000e+01	
			         0.93833	3.60000e+01	
			         0.94000	2.00000e+01	
			         0.94167	5.00000e+00	
			         0.94333	-8.00000e+00	
			         0.94500	-1.90000e+01	
			         0.94667	-2.80000e+01	
			         0.94833	-3.50000e+01	
			         0.95000	-4.00000e+01	
			         0.95167	-4.30000e+01	
			         0.95333	-4.50000e+01	
			         0.95500	-4.50000e+01	
			         0.95667	-4.50000e+01	
			         0.95833	-4.40000e+01	
			         0.96000	-4.20000e+01	
			         0.96167	-4.10000e+01	
			         0.96333	-4.00000e+01	
			         0.96500	-3.80000e+01	
			         0.96667	-3.70000e+01	
			         0.96833	-3.60000e+01	
			         0.97000	-3.60000e+01	
			         0.97167	-3.50000e+01	
			         0.97333	-3.50000e+01	
			         0.97500	-3.40000e+01	
			         0.97667	-3.30000e+01	
			         0.97833	-3.30000e+01	
			         0.98000	-3.20000e+01	
			         0.98167	-3.10000e+01	
			         0.98333	-3.00000e+01	
			         0.98500	-2.90000e+01	
			         0.98667	-2.80000e+01	
			         0.98833	-2.80000e+01	
			         0.99000	-2.70000e+01	
			         0.99167	-2.60000e+01	
			         0.99333	-2.50000e+01	
			         0.99500	-2.40000e+01	
			         0.99667	-2.30000e+01	
			         0.99833	-2.20000e+01	
			         1.00000	-2.10000e+01	
			         1.00167	-2.00000e+01	
			         1.00333	-2.00000e+01	
			         1.00500	-1.90000e+01	
			         1.00667	-1.90000e+01	
			         1.00833	-1.80000e+01	
			         1.01000	-1.80000e+01	
			         1.01167	-1.80000e+01	
			         1.01333	-1.70000e+01	
			         1.01500	-1.70000e+01	
			         1.01667	-1.70000e+01	
			         1.01833	-1.70000e+01	
			         1.02000	-1.60000e+01	
			         1.02167	-1.60000e+01	
			         1.02333	-1.60000e+01	
			         1.02500	-1.60000e+01	
			         1.02667	-1.50000e+01	
			         1.02833	-1.50000e+01	
			         1.03000	-1.50000e+01	
			         1.03167	-1.40000e+01	
			         1.03333	-1.40000e+01	
			         1.03500	-1.40000e+01	
			         1.03667	-1.30000e+01	
			         1.03833	-1.30000e+01	
			         1.04000	-1.30000e+01	
			         1.04167	-1.20000e+01	
			         1.04333	-1.20000e+01	
			         1.04500	-1.10000e+01	
			         1.04667	-1.00000e+01	
			         1.04833	-1.00000e+01	
			         1.05000	-9.00000e+00	
			         1.05167	-8.00000e+00	
			         1.05333	-8.00000e+00	
			         1.05500	-7.00000e+00	
			         1.05667	-7.00000e+00	
			         1.05833	-6.00000e+00	
			         1.06000	-6.00000e+00	
			         1.06167	-6.00000e+00	
			         1.06333	-5.00000e+00	
			         1.06500	-5.00000e+00	
			         1.06667	-4.00000e+00	
			         1.06833	-4.00000e+00	
			         1.07000	-3.00000e+00	
			         1.07167	-3.00000e+00	
			         1.07333	-3.00000e+00	
			         1.07500	-2.00000e+00	
			         1.07667	-2.00000e+00	
			         1.07833	-1.00000e+00	
			         1.08000	-1.00000e+00	
			         1.08167	0.00000e+00	
			         1.08333	1.00000e+00	
			         1.08500	1.00000e+00	
			         1.08667	2.00000e+00	
			         1.08833	2.00000e+00	
			         1.09000	3.00000e+00	
			         1.09167	3.00000e+00	
			         1.09333	4.00000e+00	
			         1.09500	4.00000e+00	
			         1.09667	5.00000e+00	
			         1.09833	5.00000e+00	
			         1.10000	6.00000e+00	
			         1.10167	6.00000e+00	
			         1.10333	7.00000e+00	
			         1.10500	8.00000e+00	
			         1.10667	8.00000e+00	
			         1.10833	9.00000e+00	
			         1.11000	1.00000e+01	
			         1.11167	1.10000e+01	
			         1.11333	1.10000e+01	
			         1.11500	1.20000e+01	
			         1.11667	1.30000e+01	
			         1.11833	1.40000e+01	
			         1.12000	1.50000e+01	
			         1.12167	1.50000e+01	
			         1.12333	1.60000e+01	
			         1.12500	1.60000e+01	
			         1.12667	1.70000e+01	
			         1.12833	1.70000e+01	
			         1.13000	1.80000e+01	
			         1.13167	1.90000e+01	
			         1.13333	2.00000e+01	
			         1.13500	2.10000e+01	
			         1.13667	2.20000e+01	
			         1.13833	2.40000e+01	
			         1.14000	2.50000e+01	
			         1.14167	2.70000e+01	
			         1.14333	2.90000e+01	
			         1.14500	3.00000e+01	
			         1.14667	3.20000e+01	
			         1.14833	3.40000e+01	
			         1.15000	3.60000e+01	
			         1.15167	3.70000e+01	
			         1.15333	3.90000e+01	
			         1.15500	4.00000e+01	
			         1.15667	4.10000e+01	
			         1.15833	4.20000e+01	
			         1.16000	4.30000e+01	
			         1.16167	4.30000e+01	
			         1.16333	4.40000e+01	
			         1.16500	4.40000e+01	
			         1.16667	4.40000e+01	
			         1.16833	4.40000e+01	
			         1.17000	4.40000e+01	
			         1.17167	4.40000e+01	
			         1.17333	4.40000e+01	
			         1.17500	4.50000e+01	
			         1.17667	4.50000e+01	
			         1.17833	4.50000e+01	
			         1.18000	4.60000e+01	
			         1.18167	4.60000e+01	
			         1.18333	4.60000e+01	
			         1.18500	4.50000e+01	
			         1.18667	4.50000e+01	
			         1.18833	4.40000e+01	
			         1.19000	4.40000e+01	
			         1.19167	4.30000e+01	
			         1.19333	4.10000e+01	
			         1.19500	4.00000e+01	
			         1.19667	3.80000e+01	
			         1.19833	3.60000e+01	
			         1.20000	3.30000e+01	
			         1.20167	3.10000e+01	
			         1.20333	2.90000e+01	
			         1.20500	2.70000e+01	
			         1.20667	2.40000e+01	
			         1.20833	2.20000e+01	
			         1.21000	2.00000e+01	
			         1.21167	1.70000e+01	
			         1.21333	1.40000e+01	
			         1.21500	1.10000e+01	
			         1.21667	8.00000e+00	
			         1.21833	5.00000e+00	
			         1.22000	2.00000e+00	
			         1.22167	-1.00000e+00	
			         1.22333	-4.00000e+00	
			         1.22500	-8.00000e+00	
			         1.22667	-1.10000e+01	
			         1.22833	-1.40000e+01	
			         1.23000	-1.60000e+01	
			         1.23167	-1.90000e+01	
			         1.23333	-2.10000e+01	
			         1.23500	-2.30000e+01	
			         1.23667	-2.50000e+01	
			         1.23833	-2.60000e+01	
			         1.24000	-2.80000e+01	
			         1.24167	-2.90000e+01	
			         1.24333	-3.00000e+01	
			         1.24500	-3.10000e+01	
			         1.24667	-3.20000e+01	
			         1.24833	-3.30000e+01	
			         1.25000	-3.30000e+01	
			         1.25167	-3.40000e+01	
			         1.25333	-3.50000e+01	
			         1.25500	-3.50000e+01	
			         1.25667	-3.50000e+01	
			         1.25833	-3.60000e+01	
			         1.26000	-3.60000e+01	
			         1.26167	-3.70000e+01	
			         1.26333	-3.70000e+01	
			         1.26500	-3.70000e+01	
			         1.26667	-3.70000e+01	
			         1.26833	-3.70000e+01	
			         1.27000	-3.70000e+01	
			         1.27167	-3.70000e+01	
			         1.27333	-3.70000e+01	
			         1.27500	-3.70000e+01	
			         1.27667	-3.80000e+01	
			         1.27833	-3.80000e+01	
			         1.28000	-3.80000e+01	
			         1.28167	-3.80000e+01	
			         1.28333	-3.70000e+01	
			         1.28500	-3.70000e+01	
			         1.28667	-3.70000e+01	
			         1.28833	-3.70000e+01	
			         1.29000	-3.70000e+01	
			         1.29167	-3.60000e+01	
			         1.29333	-3.60000e+01	
			         1.29500	-3.60000e+01	
			         1.29667	-3.60000e+01	
			         1.29833	-3.50000e+01	
			         1.30000	-3.50000e+01	
			         1.30167	-3.40000e+01	
			         1.30333	-3.40000e+01	
			         1.30500	-3.30000e+01	
			         1.30667	-3.30000e+01	
			         1.30833	-3.20000e+01	
			         1.31000	-3.20000e+01	
			         1.31167	-3.20000e+01	
			         1.31333	-3.10000e+01	
			         1.31500	-3.00000e+01	
			         1.31667	-2.90000e+01	
			         1.31833	-2.90000e+01	
			         1.32000	-2.80000e+01	
			         1.32167	-2.70000e+01	
			         1.32333	-2.70000e+01	
			         1.32500	-2.60000e+01	
			         1.32667	-2.60000e+01	
			         1.32833	-2.50000e+01	
			         1.33000	-2.40000e+01	
			         1.33167	-2.30000e+01	
			         1.33333	-2.20000e+01	
			         1.33500	-2.20000e+01	
			         1.33667	-2.10000e+01	
			         1.33833	-2.00000e+01	
			         1.34000	-1.90000e+01	
			         1.34167	-1.80000e+01	
			         1.34333	-1.70000e+01	
			         1.34500	-1.60000e+01	
			         1.34667	-1.60000e+01	
			         1.34833	-1.50000e+01	
			         1.35000	-1.50000e+01	
			         1.35167	-1.40000e+01	
			         1.35333	-1.40000e+01	
			         1.35500	-1.30000e+01	
			         1.35667	-1.30000e+01	
			         1.35833	-1.20000e+01	
			         1.36000	-1.20000e+01	
			         1.36167	-1.10000e+01	
			         1.36333	-1.10000e+01	
			         1.36500	-1.00000e+01	
			         1.36667	-9.00000e+00	
			         1.36833	-8.00000e+00	
			         1.37000	-7.00000e+00	
			         1.37167	-6.00000e+00	
			         1.37333	-5.00000e+00	
			         1.37500	-4.00000e+00	
			         1.37667	-3.00000e+00	
			         1.37833	-2.00000e+00	
			         1.38000	-2.00000e+00	
			         1.38167	-1.00000e+00	
			         1.38333	0.00000e+00	
			         1.38500	1.00000e+00	
			         1.38667	1.00000e+00	
			         1.38833	2.00000e+00	
			         1.39000	3.00000e+00	
			         1.39167	3.00000e+00	
			         1.39333	3.00000e+00	
			         1.39500	4.00000e+00	
			         1.39667	4.00000e+00	
			         1.39833	4.00000e+00	
			         1.40000	4.00000e+00	
			         1.40167	5.00000e+00	
			         1.40333	5.00000e+00	
			         1.40500	5.00000e+00	
			         1.40667	5.00000e+00	
			         1.40833	5.00000e+00	
			         1.41000	5.00000e+00	
			         1.41167	5.00000e+00	
			         1.41333	5.00000e+00	
			         1.41500	5.00000e+00	
			         1.41667	5.00000e+00	
			         1.41833	5.00000e+00	
			         1.42000	5.00000e+00	
			         1.42167	5.00000e+00	
			         1.42333	5.00000e+00	
			         1.42500	4.00000e+00	
			         1.42667	4.00000e+00	
			         1.42833	4.00000e+00	
			         1.43000	3.00000e+00	
			         1.43167	3.00000e+00	
			         1.43333	2.00000e+00	
			         1.43500	2.00000e+00	
			         1.43667	1.00000e+00	
			         1.43833	0.00000e+00	
			         1.44000	0.00000e+00	
			         1.44167	-1.00000e+00	
			         1.44333	-2.00000e+00	
			         1.44500	-2.00000e+00	
			         1.44667	-2.00000e+00	
			         1.44833	-2.00000e+00	
			         1.45000	-2.00000e+00	
			         1.45167	-2.00000e+00	
			         1.45333	-2.00000e+00	
			         1.45500	-1.00000e+00	
			         1.45667	-1.00000e+00	
			         1.45833	-1.00000e+00	
			         1.46000	-1.00000e+00	
			         1.46167	0.00000e+00	
			         1.46333	0.00000e+00	
			         1.46500	0.00000e+00	
			         1.46667	0.00000e+00	
			         1.46833	-1.00000e+00	
			         1.47000	-1.00000e+00	
			         1.47167	-1.00000e+00	
			         1.47333	-2.00000e+00	
			         1.47500	-2.00000e+00	
			         1.47667	-2.00000e+00	
			         1.47833	-3.00000e+00	
			         1.48000	-3.00000e+00	
			         1.48167	-3.00000e+00	
			         1.48333	-4.00000e+00	
			         1.48500	-4.00000e+00	
			         1.48667	-4.00000e+00	
			         1.48833	-4.00000e+00	
			         1.49000	-4.00000e+00	
			         1.49167	-4.00000e+00	
			         1.49333	-4.00000e+00	
			         1.49500	-4.00000e+00	
			         1.49667	-5.00000e+00	
			         1.49833	-5.00000e+00	
			         1.50000	-5.00000e+00	
			         1.50167	-5.00000e+00	
			         1.50333	-5.00000e+00	
			         1.50500	-6.00000e+00	
			         1.50667	-6.00000e+00	
			         1.50833	-6.00000e+00	
			         1.51000	-6.00000e+00	
			         1.51167	-6.00000e+00	
			         1.51333	-6.00000e+00	
			         1.51500	-6.00000e+00	
			         1.51667	-6.00000e+00	
			         1.51833	-6.00000e+00	
			         1.52000	-5.00000e+00	
			         1.52167	-5.00000e+00	
			         1.52333	-5.00000e+00	
			         1.52500	-4.00000e+00	
			         1.52667	-4.00000e+00	
			         1.52833	-4.00000e+00	
			         1.53000	-3.00000e+00	
			         1.53167	-3.00000e+00	
			         1.53333	-3.00000e+00	
			         1.53500	-3.00000e+00	
			         1.53667	-3.00000e+00	
			         1.53833	-3.00000e+00	
			         1.54000	-3.00000e+00	
			         1.54167	-3.00000e+00	
			         1.54333	-3.00000e+00	
			         1.54500	-3.00000e+00	
			         1.54667	-3.00000e+00	
			         1.54833	-3.00000e+00	
			         1.55000	-3.00000e+00	
			         1.55167	-4.00000e+00	
			         1.55333	-4.00000e+00	
			         1.55500	-4.00000e+00	
			         1.55667	-4.00000e+00	
			         1.55833	-4.00000e+00	
			         1.56000	-4.00000e+00	
			         1.56167	-4.00000e+00	
			         1.56333	-4.00000e+00	
			         1.56500	-4.00000e+00	
			         1.56667	-4.00000e+00	
			         1.56833	-4.00000e+00	
			         1.57000	-4.00000e+00	
			         1.57167	-5.00000e+00	
			         1.57333	-6.00000e+00	
			         1.57500	-6.00000e+00	
			         1.57667	-7.00000e+00	
			         1.57833	-8.00000e+00	
			         1.58000	-8.00000e+00	
			         1.58167	-9.00000e+00	
			         1.58333	-9.00000e+00	
			         1.58500	-1.00000e+01	
			         1.58667	-1.00000e+01	
			         1.58833	-1.00000e+01	
			         1.59000	-9.00000e+00	
			         1.59167	-9.00000e+00	
			         1.59333	-8.00000e+00	
			         1.59500	-7.00000e+00	
			         1.59667	-6.00000e+00	
			         1.59833	-5.00000e+00	
			         1.60000	-4.00000e+00	
			         1.60167	-3.00000e+00	
			         1.60333	-2.00000e+00	
			         1.60500	-1.00000e+00	
			         1.60667	0.00000e+00	
			         1.60833	0.00000e+00	
			         1.61000	1.00000e+00	
			         1.61167	1.00000e+00	
			         1.61333	1.00000e+00	
			         1.61500	1.00000e+00	
			         1.61667	1.00000e+00	
			         1.61833	1.00000e+00	
			         1.62000	0.00000e+00	
			         1.62167	0.00000e+00	
			         1.62333	-1.00000e+00	
			         1.62500	-1.00000e+00	
			         1.62667	-1.00000e+00	
			         1.62833	-2.00000e+00	
			         1.63000	-2.00000e+00	
			         1.63167	-2.00000e+00	
			         1.63333	-2.00000e+00	
			         1.63500	-2.00000e+00	
			         1.63667	-2.00000e+00	
			         1.63833	-2.00000e+00	
			         1.64000	-2.00000e+00	
			         1.64167	-2.00000e+00	
			         1.64333	-3.00000e+00	
			         1.64500	-3.00000e+00	
			         1.64667	-3.00000e+00	
			         1.64833	-3.00000e+00	
			         1.65000	-3.00000e+00	
			         1.65167	-3.00000e+00	
			         1.65333	-3.00000e+00	
			         1.65500	-3.00000e+00	
			         1.65667	-3.00000e+00	
			         1.65833	-3.00000e+00	
			         1.66000	-3.00000e+00	
			         1.66167	-2.00000e+00	
			         1.66333	-1.00000e+00	
			         1.66500	1.00000e+00	
			         1.66667	2.00000e+00	
			         1.66833	4.00000e+00	
			         1.67000	5.00000e+00	
			         1.67167	7.00000e+00	
			         1.67333	8.00000e+00	
			         1.67500	9.00000e+00	
			         1.67667	1.00000e+01	
			         1.67833	1.10000e+01	
			         1.68000	1.20000e+01	
			         1.68167	1.30000e+01	
			         1.68333	1.30000e+01	
			         1.68500	1.30000e+01	
			         1.68667	1.30000e+01	
			         1.68833	1.30000e+01	
			         1.69000	1.30000e+01	
			         1.69167	1.30000e+01	
			         1.69333	1.30000e+01	
			         1.69500	1.30000e+01	
			         1.69667	1.30000e+01	
			         1.69833	1.40000e+01	
			         1.70000	1.40000e+01	
			         1.70167	1.40000e+01	
			         1.70333	1.50000e+01	
			         1.70500	1.40000e+01	
			         1.70667	1.40000e+01	
			         1.70833	1.40000e+01	
			         1.71000	1.30000e+01	
			         1.71167	1.20000e+01	
			         1.71333	1.10000e+01	
			         1.71500	9.00000e+00	
			         1.71667	8.00000e+00	
			         1.71833	6.00000e+00	
			         1.72000	4.00000e+00	
			         1.72167	3.00000e+00	
			         1.72333	1.00000e+00	
			         1.72500	0.00000e+00	
			         1.72667	-2.00000e+00	
			         1.72833	-3.00000e+00	
			         1.73000	-3.00000e+00	
			         1.73167	-4.00000e+00	
			         1.73333	-4.00000e+00	
			         1.73500	-5.00000e+00	
			         1.73667	-5.00000e+00	
			         1.73833	-6.00000e+00	
			         1.74000	-6.00000e+00	
			         1.74167	-7.00000e+00	
			         1.74333	-8.00000e+00	
			         1.74500	-8.00000e+00	
			         1.74667	-9.00000e+00	
			         1.74833	-1.00000e+01	
			         1.75000	-1.10000e+01	
			         1.75167	-1.20000e+01	
			         1.75333	-1.20000e+01	
			         1.75500	-1.30000e+01	
			         1.75667	-1.30000e+01	
			         1.75833	-1.30000e+01	
			         1.76000	-1.30000e+01	
			         1.76167	-1.30000e+01	
			         1.76333	-1.30000e+01	
			         1.76500	-1.30000e+01	
			         1.76667	-1.20000e+01	
			         1.76833	-1.20000e+01	
			         1.77000	-1.10000e+01	
			         1.77167	-1.10000e+01	
			         1.77333	-1.00000e+01	
			         1.77500	-9.00000e+00	
			         1.77667	-8.00000e+00	
			         1.77833	-7.00000e+00	
			         1.78000	-7.00000e+00	
			         1.78167	-6.00000e+00	
			         1.78333	-6.00000e+00	
			         1.78500	-5.00000e+00	
			         1.78667	-5.00000e+00	
			         1.78833	-4.00000e+00	
			         1.79000	-3.00000e+00	
			         1.79167	-2.00000e+00	
			         1.79333	0.00000e+00	
			         1.79500	3.00000e+00	
			         1.79667	6.00000e+00	
			         1.79833	1.10000e+01	
			         1.80000	1.70000e+01	
			         1.80167	2.40000e+01	
			         1.80333	3.20000e+01	
			         1.80500	4.20000e+01	
			         1.80667	5.40000e+01	
			         1.80833	6.60000e+01	
			         1.81000	8.00000e+01	
			         1.81167	9.40000e+01	
			         1.81333	1.08000e+02	
			         1.81500	1.21000e+02	
			         1.81667	1.33000e+02	
			         1.81833	1.43000e+02	
			         1.82000	1.50000e+02	
			         1.82167	1.55000e+02	
			         1.82333	1.57000e+02	
			         1.82500	1.56000e+02	
			         1.82667	1.51000e+02	
			         1.82833	1.43000e+02	
			         1.83000	1.32000e+02	
			         1.83167	1.18000e+02	
			         1.83333	1.02000e+02	
			         1.83500	8.50000e+01	
			         1.83667	6.70000e+01	
			         1.83833	5.00000e+01	
			         1.84000	3.30000e+01	
			         1.84167	1.70000e+01	
			         1.84333	3.00000e+00	
			         1.84500	-9.00000e+00	
			         1.84667	-1.90000e+01	
			         1.84833	-2.70000e+01	
			         1.85000	-3.30000e+01	
			         1.85167	-3.70000e+01	
			         1.85333	-4.00000e+01	
			         1.85500	-4.10000e+01	
			         1.85667	-4.10000e+01	
			         1.85833	-4.00000e+01	
			         1.86000	-3.80000e+01	
			         1.86167	-3.60000e+01	
			         1.86333	-3.40000e+01	
			         1.86500	-3.20000e+01	
			         1.86667	-3.10000e+01	
			         1.86833	-3.00000e+01	
			         1.87000	-2.90000e+01	
			         1.87167	-2.80000e+01	
			         1.87333	-2.70000e+01	
			         1.87500	-2.70000e+01	
			         1.87667	-2.70000e+01	
			         1.87833	-2.70000e+01	
			         1.88000	-2.60000e+01	
			         1.88167	-2.60000e+01	
			         1.88333	-2.60000e+01	
			         1.88500	-2.60000e+01	
			         1.88667	-2.50000e+01	
			         1.88833	-2.50000e+01	
			         1.89000	-2.40000e+01	
			         1.89167	-2.40000e+01	
			         1.89333	-2.30000e+01	
			         1.89500	-2.30000e+01	
			         1.89667	-2.30000e+01	
			         1.89833	-2.30000e+01	
			         1.90000	-2.20000e+01	
			         1.90167	-2.20000e+01	
			         1.90333	-2.20000e+01	
			         1.90500	-2.20000e+01	
			         1.90667	-2.20000e+01	
			         1.90833	-2.10000e+01	
			         1.91000	-2.00000e+01	
			         1.91167	-2.00000e+01	
			         1.91333	-1.90000e+01	
			         1.91500	-1.90000e+01	
			         1.91667	-1.80000e+01	
			         1.91833	-1.70000e+01	
			         1.92000	-1.60000e+01	
			         1.92167	-1.50000e+01	
			         1.92333	-1.50000e+01	
			         1.92500	-1.40000e+01	
			         1.92667	-1.40000e+01	
			         1.92833	-1.30000e+01	
			         1.93000	-1.30000e+01	
			         1.93167	-1.30000e+01	
			         1.93333	-1.30000e+01	
			         1.93500	-1.30000e+01	
			         1.93667	-1.30000e+01	
			         1.93833	-1.30000e+01	
			         1.94000	-1.30000e+01	
			         1.94167	-1.30000e+01	
			         1.94333	-1.30000e+01	
			         1.94500	-1.30000e+01	
			         1.94667	-1.20000e+01	
			         1.94833	-1.20000e+01	
			         1.95000	-1.20000e+01	
			         1.95167	-1.10000e+01	
			         1.95333	-1.10000e+01	
			         1.95500	-1.00000e+01	
			         1.95667	-1.00000e+01	
			         1.95833	-9.00000e+00	
			         1.96000	-9.00000e+00	
			         1.96167	-8.00000e+00	
			         1.96333	-8.00000e+00	
			         1.96500	-7.00000e+00	
			         1.96667	-7.00000e+00	
			         1.96833	-6.00000e+00	
			         1.97000	-6.00000e+00	
			         1.97167	-5.00000e+00	
			         1.97333	-4.00000e+00	
			         1.97500	-4.00000e+00	
			         1.97667	-3.00000e+00	
			         1.97833	-3.00000e+00	
			         1.98000	-2.00000e+00	
			         1.98167	-2.00000e+00	
			         1.98333	-2.00000e+00	
			         1.98500	-1.00000e+00	
			         1.98667	-1.00000e+00	
			         1.98833	-1.00000e+00	
			         1.99000	-1.00000e+00	
			         1.99167	-1.00000e+00	
			         1.99333	0.00000e+00	
			         1.99500	0.00000e+00	
			         1.99667	0.00000e+00	
			         1.99833	1.00000e+00	
			         2.00000	2.00000e+00	
			         2.00167	2.00000e+00	
			         2.00333	3.00000e+00	
			         2.00500	4.00000e+00	
			         2.00667	5.00000e+00	
			         2.00833	6.00000e+00	
			         2.01000	8.00000e+00	
			         2.01167	9.00000e+00	
			         2.01333	1.00000e+01	
			         2.01500	1.20000e+01	
			         2.01667	1.30000e+01	
			         2.01833	1.40000e+01	
			         2.02000	1.50000e+01	
			         2.02167	1.60000e+01	
			         2.02333	1.70000e+01	
			         2.02500	1.80000e+01	
			         2.02667	1.90000e+01	
			         2.02833	1.90000e+01	
			         2.03000	2.00000e+01	
			         2.03167	2.10000e+01	
			         2.03333	2.20000e+01	
			         2.03500	2.20000e+01	
			         2.03667	2.30000e+01	
			         2.03833	2.30000e+01	
			         2.04000	2.40000e+01	
			         2.04167	2.50000e+01	
			         2.04333	2.60000e+01	
			         2.04500	2.70000e+01	
			         2.04667	2.80000e+01	
			         2.04833	2.90000e+01	
			         2.05000	3.00000e+01	
			         2.05167	3.10000e+01	
			         2.05333	3.20000e+01	
			         2.05500	3.30000e+01	
			         2.05667	3.40000e+01	
			         2.05833	3.50000e+01	
			         2.06000	3.60000e+01	
			         2.06167	3.70000e+01	
			         2.06333	3.80000e+01	
			         2.06500	4.00000e+01	
			         2.06667	4.10000e+01	
			         2.06833	4.20000e+01	
			         2.07000	4.40000e+01	
			         2.07167	4.50000e+01	
			         2.07333	4.60000e+01	
			         2.07500	4.70000e+01	
			         2.07667	4.70000e+01	
			         2.07833	4.80000e+01	
			         2.08000	4.70000e+01	
			         2.08167	4.70000e+01	
			         2.08333	4.60000e+01	
			         2.08500	4.50000e+01	
			         2.08667	4.40000e+01	
			         2.08833	4.30000e+01	
			         2.09000	4.20000e+01	
			         2.09167	4.00000e+01	
			         2.09333	3.90000e+01	
			         2.09500	3.80000e+01	
			         2.09667	3.60000e+01	
			         2.09833	3.40000e+01	
			         2.10000	3.30000e+01	
			         2.10167	3.10000e+01	
			         2.10333	3.00000e+01	
			         2.10500	2.80000e+01	
			         2.10667	2.70000e+01	
			         2.10833	2.50000e+01	
			         2.11000	2.30000e+01	
			         2.11167	2.10000e+01	
			         2.11333	1.90000e+01	
			         2.11500	1.60000e+01	
			         2.11667	1.40000e+01	
			         2.11833	1.10000e+01	
			         2.12000	8.00000e+00	
			         2.12167	5.00000e+00	
			         2.12333	2.00000e+00	
			         2.12500	-2.00000e+00	
			         2.12667	-5.00000e+00	
			         2.12833	-9.00000e+00	
			         2.13000	-1.20000e+01	
			         2.13167	-1.50000e+01	
			         2.13333	-1.90000e+01	
			         2.13500	-2.20000e+01	
			         2.13667	-2.40000e+01	
			         2.13833	-2.70000e+01	
			         2.14000	-2.90000e+01	
			         2.14167	-3.10000e+01	
			         2.14333	-3.20000e+01	
			         2.14500	-3.40000e+01	
			         2.14667	-3.50000e+01	
			         2.14833	-3.60000e+01	
			         2.15000	-3.70000e+01	
			         2.15167	-3.80000e+01	
			         2.15333	-3.80000e+01	
			         2.15500	-3.90000e+01	
			         2.15667	-4.00000e+01	
			         2.15833	-4.00000e+01	
			         2.16000	-4.10000e+01	
			         2.16167	-4.10000e+01	
			         2.16333	-4.20000e+01	
			         2.16500	-4.20000e+01	
			         2.16667	-4.20000e+01	
			         2.16833	-4.20000e+01	
			         2.17000	-4.10000e+01	
			         2.17167	-4.10000e+01	
			         2.17333	-4.00000e+01	
			         2.17500	-4.00000e+01	
			         2.17667	-3.90000e+01	
			         2.17833	-3.80000e+01	
			         2.18000	-3.70000e+01	
			         2.18167	-3.60000e+01	
			         2.18333	-3.50000e+01	
			         2.18500	-3.40000e+01	
			         2.18667	-3.30000e+01	
			         2.18833	-3.20000e+01	
			         2.19000	-3.20000e+01	
			         2.19167	-3.20000e+01	
			         2.19333	-3.10000e+01	
			         2.19500	-3.10000e+01	
			         2.19667	-3.10000e+01	
			         2.19833	-3.00000e+01	
			         2.20000	-3.00000e+01	
			         2.20167	-3.00000e+01	
			         2.20333	-3.00000e+01	
			         2.20500	-3.00000e+01	
			         2.20667	-3.00000e+01	
			         2.20833	-2.90000e+01	
			         2.21000	-2.90000e+01	
			         2.21167	-2.80000e+01	
			         2.21333	-2.70000e+01	
			         2.21500	-2.60000e+01	
			         2.21667	-2.60000e+01	
			         2.21833	-2.50000e+01	
			         2.22000	-2.40000e+01	
			         2.22167	-2.40000e+01	
			         2.22333	-2.30000e+01	
			         2.22500	-2.30000e+01	
			         2.22667	-2.30000e+01	
			         2.22833	-2.30000e+01	
			         2.23000	-2.20000e+01	
			         2.23167	-2.20000e+01	
			         2.23333	-2.20000e+01	
			         2.23500	-2.20000e+01	
			         2.23667	-2.10000e+01	
			         2.23833	-2.00000e+01	
			         2.24000	-1.90000e+01	
			         2.24167	-1.90000e+01	
			         2.24333	-1.80000e+01	
			         2.24500	-1.70000e+01	
			         2.24667	-1.60000e+01	
			         2.24833	-1.50000e+01	
			         2.25000	-1.40000e+01	
			         2.25167	-1.30000e+01	
			         2.25333	-1.20000e+01	
			         2.25500	-1.10000e+01	
			         2.25667	-1.00000e+01	
			         2.25833	-9.00000e+00	
			         2.26000	-8.00000e+00	
			         2.26167	-7.00000e+00	
			         2.26333	-5.00000e+00	
			         2.26500	-4.00000e+00	
			         2.26667	-3.00000e+00	
			         2.26833	-2.00000e+00	
			         2.27000	-1.00000e+00	
			         2.27167	0.00000e+00	
			         2.27333	1.00000e+00	
			         2.27500	1.00000e+00	
			         2.27667	2.00000e+00	
			         2.27833	2.00000e+00	
			         2.28000	2.00000e+00	
			         2.28167	2.00000e+00	
			         2.28333	2.00000e+00	
			         2.28500	2.00000e+00	
			         2.28667	2.00000e+00	
			         2.28833	2.00000e+00	
			         2.29000	2.00000e+00	
			         2.29167	2.00000e+00	
			         2.29333	2.00000e+00	
			         2.29500	2.00000e+00	
			         2.29667	2.00000e+00	
			         2.29833	3.00000e+00	
			         2.30000	3.00000e+00	
			         2.30167	3.00000e+00	
			         2.30333	3.00000e+00	
			         2.30500	4.00000e+00	
			         2.30667	4.00000e+00	
			         2.30833	4.00000e+00	
			         2.31000	4.00000e+00	
			         2.31167	4.00000e+00	
			         2.31333	4.00000e+00	
			         2.31500	4.00000e+00	
			         2.31667	4.00000e+00	
			         2.31833	4.00000e+00	
			         2.32000	4.00000e+00	
			         2.32167	4.00000e+00	
			         2.32333	3.00000e+00	
			         2.32500	3.00000e+00	
			         2.32667	3.00000e+00	
			         2.32833	3.00000e+00	
			         2.33000	3.00000e+00	
			         2.33167	2.00000e+00	
			         2.33333	2.00000e+00	
			         2.33500	3.00000e+00	
			         2.33667	3.00000e+00	
			         2.33833	3.00000e+00	
			         2.34000	4.00000e+00	
			         2.34167	4.00000e+00	
			         2.34333	5.00000e+00	
			         2.34500	5.00000e+00	
			         2.34667	6.00000e+00	
			         2.34833	6.00000e+00	
			         2.35000	6.00000e+00	
			         2.35167	6.00000e+00	
			         2.35333	5.00000e+00	
			         2.35500	5.00000e+00	
			         2.35667	4.00000e+00	
			         2.35833	3.00000e+00	
			         2.36000	3.00000e+00	
			         2.36167	2.00000e+00	
			         2.36333	1.00000e+00	
			         2.36500	1.00000e+00	
			         2.36667	0.00000e+00	
			         2.36833	-1.00000e+00	
			         2.37000	-1.00000e+00	
			         2.37167	-2.00000e+00	
			         2.37333	-2.00000e+00	
			         2.37500	-2.00000e+00	
			         2.37667	-2.00000e+00	
			         2.37833	-2.00000e+00	
			         2.38000	-2.00000e+00	
			         2.38167	-2.00000e+00	
			         2.38333	-2.00000e+00	
			         2.38500	-2.00000e+00	
			         2.38667	-2.00000e+00	
			         2.38833	-2.00000e+00	
			         2.39000	-2.00000e+00	
			         2.39167	-2.00000e+00	
			         2.39333	-2.00000e+00	
			         2.39500	-2.00000e+00	
			         2.39667	-2.00000e+00	
			         2.39833	-3.00000e+00	
			         2.40000	-3.00000e+00	
			         2.40167	-3.00000e+00	
			         2.40333	-3.00000e+00	
			         2.40500	-3.00000e+00	
			         2.40667	-3.00000e+00	
			         2.40833	-4.00000e+00	
			         2.41000	-4.00000e+00	
			         2.41167	-4.00000e+00	
			         2.41333	-5.00000e+00	
			         2.41500	-5.00000e+00	
			         2.41667	-6.00000e+00	
			         2.41833	-6.00000e+00	
			         2.42000	-7.00000e+00	
			         2.42167	-7.00000e+00	
			         2.42333	-8.00000e+00	
			         2.42500	-8.00000e+00	
			         2.42667	-8.00000e+00	
			         2.42833	-8.00000e+00	
			         2.43000	-8.00000e+00	
			         2.43167	-7.00000e+00	
			         2.43333	-7.00000e+00	
			         2.43500	-6.00000e+00	
			         2.43667	-5.00000e+00	
			         2.43833	-4.00000e+00	
			         2.44000	-3.00000e+00	
			         2.44167	-2.00000e+00	
			         2.44333	-1.00000e+00	
			         2.44500	-1.00000e+00	
			         2.44667	0.00000e+00	
			         2.44833	0.00000e+00	
			         2.45000	0.00000e+00	
			         2.45167	0.00000e+00	
			         2.45333	0.00000e+00	
			         2.45500	0.00000e+00	
			         2.45667	-1.00000e+00	
			         2.45833	-1.00000e+00	
			         2.46000	-2.00000e+00	
			         2.46167	-2.00000e+00	
			         2.46333	-3.00000e+00	
			         2.46500	-4.00000e+00	
			         2.46667	-4.00000e+00	
			         2.46833	-5.00000e+00	
			         2.47000	-5.00000e+00	
			         2.47167	-5.00000e+00	
			         2.47333	-5.00000e+00	
			         2.47500	-4.00000e+00	
			         2.47667	-4.00000e+00	
			         2.47833	-4.00000e+00	
			         2.48000	-3.00000e+00	
			         2.48167	-3.00000e+00	
			         2.48333	-2.00000e+00	
			         2.48500	-1.00000e+00	
			         2.48667	-1.00000e+00	
			         2.48833	0.00000e+00	
			         2.49000	0.00000e+00	
			         2.49167	0.00000e+00	
			         2.49333	0.00000e+00	
			         2.49500	0.00000e+00	
			         2.49667	0.00000e+00	
			         2.49833	-1.00000e+00	
			         2.50000	-1.00000e+00	
			         2.50167	-2.00000e+00	
			         2.50333	-2.00000e+00	
			         2.50500	-2.00000e+00	
			         2.50667	-2.00000e+00	
			         2.50833	-2.00000e+00	
			         2.51000	-2.00000e+00	
			         2.51167	-1.00000e+00	
			         2.51333	-1.00000e+00	
			         2.51500	-1.00000e+00	
			         2.51667	0.00000e+00	
			         2.51833	0.00000e+00	
			         2.52000	0.00000e+00	
			         2.52167	0.00000e+00	
			         2.52333	1.00000e+00	
			         2.52500	0.00000e+00	
			         2.52667	0.00000e+00	
			         2.52833	0.00000e+00	
			         2.53000	-1.00000e+00	
			         2.53167	-1.00000e+00	
			         2.53333	-2.00000e+00	
			         2.53500	-2.00000e+00	
			         2.53667	-3.00000e+00	
			         2.53833	-3.00000e+00	
			         2.54000	-3.00000e+00	
			         2.54167	-3.00000e+00	
			         2.54333	-3.00000e+00	
			         2.54500	-3.00000e+00	
			         2.54667	-3.00000e+00	
			         2.54833	-3.00000e+00	
			         2.55000	-2.00000e+00	
			         2.55167	-2.00000e+00	
			         2.55333	-1.00000e+00	
			         2.55500	0.00000e+00	
			         2.55667	1.00000e+00	
			         2.55833	2.00000e+00	
			         2.56000	4.00000e+00	
			         2.56167	5.00000e+00	
			         2.56333	6.00000e+00	
			         2.56500	8.00000e+00	
			         2.56667	1.00000e+01	
			         2.56833	1.10000e+01	
			         2.57000	1.30000e+01	
			         2.57167	1.40000e+01	
			         2.57333	1.50000e+01	
			         2.57500	1.70000e+01	
			         2.57667	1.70000e+01	
			         2.57833	1.80000e+01	
			         2.58000	1.90000e+01	
			         2.58167	1.90000e+01	
			         2.58333	2.00000e+01	
			         2.58500	2.00000e+01	
			         2.58667	2.00000e+01	
			         2.58833	2.00000e+01	
			         2.59000	2.00000e+01	
			         2.59167	1.90000e+01	
			         2.59333	1.90000e+01	
			         2.59500	1.80000e+01	
			         2.59667	1.70000e+01	
			         2.59833	1.60000e+01	
			         2.60000	1.60000e+01	
			         2.60167	1.50000e+01	
			         2.60333	1.30000e+01	
			         2.60500	1.20000e+01	
			         2.60667	1.00000e+01	
			         2.60833	8.00000e+00	
			         2.61000	7.00000e+00	
			         2.61167	5.00000e+00	
			         2.61333	4.00000e+00	
			         2.61500	2.00000e+00	
			         2.61667	0.00000e+00	
			         2.61833	-1.00000e+00	
			         2.62000	-2.00000e+00	
			         2.62167	-4.00000e+00	
			         2.62333	-4.00000e+00	
			         2.62500	-5.00000e+00	
			         2.62667	-5.00000e+00	
			         2.62833	-5.00000e+00	
			         2.63000	-5.00000e+00	
			         2.63167	-5.00000e+00	
			         2.63333	-5.00000e+00	
			         2.63500	-4.00000e+00	
			         2.63667	-4.00000e+00	
			         2.63833	-4.00000e+00	
			         2.64000	-4.00000e+00	
			         2.64167	-4.00000e+00	
			         2.64333	-5.00000e+00	
			         2.64500	-5.00000e+00	
			         2.64667	-6.00000e+00	
			         2.64833	-6.00000e+00	
			         2.65000	-7.00000e+00	
			         2.65167	-7.00000e+00	
			         2.65333	-8.00000e+00	
			         2.65500	-9.00000e+00	
			         2.65667	-9.00000e+00	
			         2.65833	-1.00000e+01	
			         2.66000	-1.00000e+01	
			         2.66167	-1.00000e+01	
			         2.66333	-1.00000e+01	
			         2.66500	-9.00000e+00	
			         2.66667	-9.00000e+00	
			         2.66833	-9.00000e+00	
			         2.67000	-8.00000e+00	
			         2.67167	-7.00000e+00	
			         2.67333	-7.00000e+00	
			         2.67500	-6.00000e+00	
			         2.67667	-5.00000e+00	
			         2.67833	-4.00000e+00	
			         2.68000	-4.00000e+00	
			         2.68167	-3.00000e+00	
			         2.68333	-3.00000e+00	
			         2.68500	-3.00000e+00	
			         2.68667	-2.00000e+00	
			         2.68833	-1.00000e+00	
			         2.69000	0.00000e+00	
			         2.69167	2.00000e+00	
			         2.69333	5.00000e+00	
			         2.69500	9.00000e+00	
			         2.69667	1.40000e+01	
			         2.69833	2.00000e+01	
			         2.70000	2.70000e+01	
			         2.70167	3.50000e+01	
			         2.70333	4.50000e+01	
			         2.70500	5.50000e+01	
			         2.70667	6.70000e+01	
			         2.70833	8.00000e+01	
			         2.71000	9.30000e+01	
			         2.71167	1.07000e+02	
			         2.71333	1.19000e+02	
			         2.71500	1.30000e+02	
			         2.71667	1.39000e+02	
			         2.71833	1.47000e+02	
			         2.72000	1.52000e+02	
			         2.72167	1.54000e+02	
			         2.72333	1.54000e+02	
			         2.72500	1.50000e+02	
			         2.72667	1.43000e+02	
			         2.72833	1.33000e+02	
			         2.73000	1.21000e+02	
			         2.73167	1.06000e+02	
			         2.73333	8.90000e+01	
			         2.73500	7.20000e+01	
			         2.73667	5.50000e+01	
			         2.73833	3.80000e+01	
			         2.74000	2.10000e+01	
			         2.74167	6.00000e+00	
			         2.74333	-7.00000e+00	
			         2.74500	-1.90000e+01	
			         2.74667	-2.80000e+01	
			         2.74833	-3.50000e+01	
			         2.75000	-4.00000e+01	
			         2.75167	-4.30000e+01	
			         2.75333	-4.40000e+01	
			         2.75500	-4.40000e+01	
			         2.75667	-4.40000e+01	
			         2.75833	-4.20000e+01	
			         2.76000	-4.00000e+01	
			         2.76167	-3.80000e+01	
			         2.76333	-3.60000e+01	
			         2.76500	-3.50000e+01	
			         2.76667	-3.40000e+01	
			         2.76833	-3.30000e+01	
			         2.77000	-3.20000e+01	
			         2.77167	-3.20000e+01	
			         2.77333	-3.20000e+01	
			         2.77500	-3.20000e+01	
			         2.77667	-3.20000e+01	
			         2.77833	-3.20000e+01	
			         2.78000	-3.20000e+01	
			         2.78167	-3.20000e+01	
