Velocity (TVI), in cm/s

Time (s) :	Trace 1 : 		Ecg : 		
0.00553   	-3.30405e+00		         0.00000	-3.40000e+01	
0.01163   	-3.49011e+00		         0.00167	-3.00000e+01	
0.01774   	-3.27668e+00		         0.00333	-2.40000e+01	
0.02384   	-2.72926e+00		         0.00500	-1.40000e+01	
0.03022   	-2.23948e+00		         0.00667	-1.00000e+00	
0.03634   	-1.25282e+00		         0.00833	1.50000e+01	
0.04243   	1.65459e-01		         0.01000	3.40000e+01	
0.04853   	1.11728e+00		         0.01167	5.60000e+01	
0.05491   	1.71015e+00		         0.01333	7.90000e+01	
0.06101   	1.76359e+00		         0.01500	1.05000e+02	
0.06711   	1.46153e+00		         0.01667	1.30000e+02	
0.07322   	8.06958e-01		         0.01833	1.56000e+02	
0.07959   	6.17137e-01		         0.02000	1.80000e+02	
0.08570   	6.87582e-01		         0.02167	2.02000e+02	
0.09180   	1.23516e+00		         0.02333	2.20000e+02	
0.09791   	1.86311e+00		         0.02500	2.33000e+02	
0.10428   	2.82131e+00		         0.02667	2.41000e+02	
0.11039   	3.60939e+00		         0.02833	2.43000e+02	
0.11649   	4.28290e+00		         0.03000	2.39000e+02	
0.12260   	4.83706e+00		         0.03167	2.28000e+02	
0.12914   	5.11520e+00		         0.03333	2.12000e+02	
0.13507   	5.11906e+00		         0.03500	1.92000e+02	
0.14118   	4.91718e+00		         0.03667	1.68000e+02	
0.14729   	4.80446e+00		         0.03833	1.41000e+02	
0.15366   	4.64432e+00		         0.04000	1.12000e+02	
0.15976   	4.60339e+00		         0.04167	8.30000e+01	
0.16586   	4.64566e+00		         0.04333	5.40000e+01	
0.17197   	4.67885e+00		         0.04500	2.60000e+01	
0.17834   	4.64020e+00		         0.04667	0.00000e+00	
0.18445   	4.65282e+00		         0.04833	-2.30000e+01	
0.19055   	4.56094e+00		         0.05000	-4.30000e+01	
0.19666   	4.50214e+00		         0.05167	-6.00000e+01	
0.20303   	4.52008e+00		         0.05333	-7.40000e+01	
0.20914   	4.48413e+00		         0.05500	-8.40000e+01	
0.21524   	4.49956e+00		         0.05667	-9.10000e+01	
0.22135   	4.49872e+00		         0.05833	-9.50000e+01	
0.22772   	4.48246e+00		         0.06000	-9.70000e+01	
0.23382   	4.44768e+00		         0.06167	-9.70000e+01	
0.23993   	4.45296e+00		         0.06333	-9.60000e+01	
0.24603   	4.40330e+00		         0.06500	-9.30000e+01	
0.25241   	4.40852e+00		         0.06667	-8.90000e+01	
0.25851   	4.36211e+00		         0.06833	-8.40000e+01	
0.26461   	4.33238e+00		         0.07000	-7.90000e+01	
0.27072   	4.25343e+00		         0.07167	-7.30000e+01	
0.27709   	4.15039e+00		         0.07333	-6.80000e+01	
0.28320   	4.00656e+00		         0.07500	-6.30000e+01	
0.28930   	3.90632e+00		         0.07667	-5.80000e+01	
0.29541   	3.78974e+00		         0.07833	-5.40000e+01	
0.30178   	3.70262e+00		         0.08000	-5.10000e+01	
0.30789   	3.58772e+00		         0.08167	-4.80000e+01	
0.31399   	3.44869e+00		         0.08333	-4.50000e+01	
0.32010   	3.31311e+00		         0.08500	-4.30000e+01	
0.32647   	3.14355e+00		         0.08667	-4.10000e+01	
0.33257   	2.96394e+00		         0.08833	-4.00000e+01	
0.33868   	2.80501e+00		         0.09000	-3.80000e+01	
0.34498   	2.64582e+00		         0.09167	-3.70000e+01	
0.35116   	2.50067e+00		         0.09333	-3.60000e+01	
0.35726   	2.36384e+00		         0.09500	-3.40000e+01	
0.36337   	2.15212e+00		         0.09667	-3.30000e+01	
0.36947   	1.91399e+00		         0.09833	-3.20000e+01	
0.37584   	1.63688e+00		         0.10000	-3.10000e+01	
0.38195   	1.22265e+00		         0.10167	-3.10000e+01	
0.38805   	7.45496e-01		         0.10333	-3.00000e+01	
0.39416   	2.44338e-01		         0.10500	-2.90000e+01	
0.40053   	-8.02994e-02		         0.10667	-2.80000e+01	
0.40664   	2.06766e-01		         0.10833	-2.80000e+01	
0.41274   	3.18544e-01		         0.11000	-2.70000e+01	
0.41885   	6.70332e-01		         0.11167	-2.70000e+01	
0.42522   	1.06239e+00		         0.11333	-2.60000e+01	
0.43132   	1.27271e+00		         0.11500	-2.60000e+01	
0.43743   	9.31190e-01		         0.11667	-2.50000e+01	
0.44353   	7.78364e-01		         0.11833	-2.40000e+01	
0.44991   	4.31358e-01		         0.12000	-2.40000e+01	
0.45601   	6.78216e-02		         0.12167	-2.30000e+01	
0.46212   	-3.32544e-01		         0.12333	-2.20000e+01	
0.46822   	-7.59537e-01		         0.12500	-2.20000e+01	
0.47459   	-1.16525e+00		         0.12667	-2.10000e+01	
0.48070   	-1.62044e+00		         0.12833	-2.00000e+01	
0.48680   	-1.98571e+00		         0.13000	-2.00000e+01	
0.49291   	-2.36511e+00		         0.13167	-1.90000e+01	
0.49928   	-2.79518e+00		         0.13333	-1.90000e+01	
0.50539   	-3.28649e+00		         0.13500	-1.80000e+01	
0.51149   	-3.67462e+00		         0.13667	-1.80000e+01	
0.51759   	-4.17916e+00		         0.13833	-1.70000e+01	
0.52397   	-4.47976e+00		         0.14000	-1.70000e+01	
0.53007   	-4.70871e+00		         0.14167	-1.60000e+01	
0.53618   	-4.82683e+00		         0.14333	-1.60000e+01	
0.54228   	-4.92364e+00		         0.14500	-1.50000e+01	
0.54866   	-4.84073e+00		         0.14667	-1.40000e+01	
0.55476   	-4.83679e+00		         0.14833	-1.40000e+01	
0.56087   	-4.75911e+00		         0.15000	-1.30000e+01	
0.56697   	-4.58616e+00		         0.15167	-1.20000e+01	
0.57335   	-4.41241e+00		         0.15333	-1.20000e+01	
0.57945   	-4.31468e+00		         0.15500	-1.20000e+01	
0.58555   	-4.15304e+00		         0.15667	-1.10000e+01	
0.59166   	-3.95304e+00		         0.15833	-1.10000e+01	
0.59804   	-3.79020e+00		         0.16000	-1.00000e+01	
0.60414   	-3.60798e+00		         0.16167	-1.00000e+01	
0.61045   	-3.38077e+00		         0.16333	-1.00000e+01	
0.61634   	-3.14452e+00		         0.16500	-1.00000e+01	
0.62272   	-2.94984e+00		         0.16667	-1.00000e+01	
0.62882   	-2.70048e+00		         0.16833	-9.00000e+00	
0.63493   	-2.48963e+00		         0.17000	-9.00000e+00	
0.64103   	-2.21132e+00		         0.17167	-9.00000e+00	
0.64741   	-1.94428e+00		         0.17333	-8.00000e+00	
0.65351   	-1.70325e+00		         0.17500	-8.00000e+00	
0.65961   	-1.49881e+00		         0.17667	-7.00000e+00	
0.66572   	-1.24842e+00		         0.17833	-7.00000e+00	
0.67210   	-1.06682e+00		         0.18000	-6.00000e+00	
0.67820   	-9.58584e-01		         0.18167	-6.00000e+00	
0.68430   	-7.44158e-01		         0.18333	-5.00000e+00	
0.69041   	-6.65160e-01		         0.18500	-4.00000e+00	
0.69678   	-5.84225e-01		         0.18667	-4.00000e+00	
0.70289   	-5.45781e-01		         0.18833	-4.00000e+00	
0.70899   	-5.49235e-01		         0.19000	-3.00000e+00	
0.71510   	-6.26183e-01		         0.19167	-3.00000e+00	
0.72147   	-5.78525e-01		         0.19333	-3.00000e+00	
0.72757   	-5.81411e-01		         0.19500	-3.00000e+00	
0.73368   	-5.59073e-01		         0.19667	-3.00000e+00	
0.73978   	-4.67556e-01		         0.19833	-3.00000e+00	
0.74616   	-4.05959e-01		         0.20000	-3.00000e+00	
0.75226   	-3.48449e-01		         0.20167	-3.00000e+00	
0.75837   	-2.97753e-01		         0.20333	-3.00000e+00	
0.76447   	-2.48925e-01		         0.20500	-2.00000e+00	
0.77085   	-2.11262e-01		         0.20667	-2.00000e+00	
0.77695   	-1.82206e-01		         0.20833	-2.00000e+00	
0.78305   	-1.73986e-01		         0.21000	-2.00000e+00	
0.78916   	-1.62273e-01		         0.21167	-2.00000e+00	
0.79553   	-1.58154e-01		         0.21333	-2.00000e+00	
0.80164   	-1.51653e-01		         0.21500	-1.00000e+00	
0.80774   	-1.45389e-01		         0.21667	-1.00000e+00	
0.81385   	-1.36409e-01		         0.21833	-1.00000e+00	
0.82022   	-1.41234e-01		         0.22000	-1.00000e+00	
0.82649   	-1.39965e-01		         0.22167	-1.00000e+00	
0.83243   	-1.45238e-01		         0.22333	-1.00000e+00	
0.83853   	-1.55250e-01		         0.22500	-1.00000e+00	
0.84491   	-1.68915e-01		         0.22667	-1.00000e+00	
0.85101   	-1.69367e-01		         0.22833	-1.00000e+00	
0.85712   	-1.73604e-01		         0.23000	-1.00000e+00	
0.86322   	-1.87221e-01		         0.23167	-1.00000e+00	
0.86960   	-2.09829e-01		         0.23333	0.00000e+00	
0.87570   	-2.25518e-01		         0.23500	0.00000e+00	
0.88180   	-2.43116e-01		         0.23667	0.00000e+00	
0.88791   	-2.56349e-01		         0.23833	1.00000e+00	
0.89428   	-2.52860e-01		         0.24000	1.00000e+00	
0.90039   	-2.38596e-01		         0.24167	1.00000e+00	
0.90649   	-2.34883e-01		         0.24333	1.00000e+00	
0.91259   	-2.33032e-01		         0.24500	2.00000e+00	
0.91897   	-2.29473e-01		         0.24667	2.00000e+00	
0.92507   	-2.20584e-01		         0.24833	2.00000e+00	
0.93118   	-2.17388e-01		         0.25000	2.00000e+00	
0.93728   	-2.08548e-01		         0.25167	3.00000e+00	
0.94366   	-1.92718e-01		         0.25333	3.00000e+00	
0.94976   	-1.83452e-01		         0.25500	3.00000e+00	
0.95587   	-1.89264e-01		         0.25667	4.00000e+00	
0.96197   	-1.92979e-01		         0.25833	4.00000e+00	
0.96835   	-1.91058e-01		         0.26000	5.00000e+00	
0.97445   	-2.38175e-01		         0.26167	5.00000e+00	
0.98056   	-2.96976e-01		         0.26333	6.00000e+00	
0.98666   	-4.12006e-01		         0.26500	7.00000e+00	
0.99303   	-6.03988e-01		         0.26667	7.00000e+00	
0.99914   	-8.74669e-01		         0.26833	7.00000e+00	
1.00524   	-1.25998e+00		         0.27000	8.00000e+00	
1.01134   	-1.77260e+00		         0.27167	8.00000e+00	
1.01772   	-2.50496e+00		         0.27333	8.00000e+00	
1.02382   	-3.34589e+00		         0.27500	8.00000e+00	
1.02993   	-4.24622e+00		         0.27667	8.00000e+00	
1.03603   	-5.08073e+00		         0.27833	9.00000e+00	
1.04241   	-5.88091e+00		         0.28000	9.00000e+00	
1.04851   	-6.47328e+00		         0.28167	9.00000e+00	
1.05462   	-6.85586e+00		         0.28333	9.00000e+00	
1.06072   	-7.22200e+00		         0.28500	9.00000e+00	
1.06710   	-7.48077e+00		         0.28667	1.00000e+01	
1.07320   	-7.58713e+00		         0.28833	1.00000e+01	
1.07930   	-7.43211e+00		         0.29000	1.00000e+01	
1.08541   	-7.06261e+00		         0.29167	1.00000e+01	
1.09200   	-6.38832e+00		         0.29333	1.10000e+01	
1.09789   	-5.59669e+00		         0.29500	1.10000e+01	
1.10399   	-4.71864e+00		         0.29667	1.10000e+01	
1.11009   	-3.92784e+00		         0.29833	1.10000e+01	
1.11647   	-3.58080e+00		         0.30000	1.10000e+01	
1.12257   	-3.35785e+00		         0.30167	1.10000e+01	
1.12868   	-2.39470e+00		         0.30333	1.10000e+01	
1.13478   	-1.22260e+00		         0.30500	1.10000e+01	
1.14116   	-1.15417e-01		         0.30667	1.10000e+01	
1.14726   	1.10663e+00		         0.30833	1.20000e+01	
1.15336   	2.26253e+00		         0.31000	1.20000e+01	
1.15947   	2.05814e+00		         0.31167	1.20000e+01	
1.16585   	1.55230e+00		         0.31333	1.30000e+01	
1.17195   	8.64742e-01		         0.31500	1.30000e+01	
1.17805   	4.54669e-01		         0.31667	1.30000e+01	
1.18416   	3.18871e-01		         0.31833	1.30000e+01	
1.19053   	9.35170e-01		         0.32000	1.20000e+01	
1.19663   	1.68516e+00		         0.32167	1.20000e+01	
1.20274   	2.84959e+00		         0.32333	1.10000e+01	
1.20885   	3.98393e+00		         0.32500	1.10000e+01	
1.21522   	4.99542e+00		         0.32667	1.00000e+01	
1.22132   	5.82738e+00		         0.32833	9.00000e+00	
1.22743   	6.42015e+00		         0.33000	8.00000e+00	
1.23353   	6.75396e+00		         0.33167	7.00000e+00	
1.23991   	6.87257e+00		         0.33333	7.00000e+00	
1.24601   	6.78468e+00		         0.33500	6.00000e+00	
1.25212   	6.61629e+00		         0.33667	6.00000e+00	
1.25855   	6.43767e+00		         0.33833	6.00000e+00	
1.26460   	6.21448e+00		         0.34000	5.00000e+00	
1.27070   	5.97637e+00		         0.34167	5.00000e+00	
1.27680   	5.75390e+00		         0.34333	5.00000e+00	
1.28291   	5.54179e+00		         0.34500	5.00000e+00	
1.28928   	5.35034e+00		         0.34667	5.00000e+00	
1.29539   	5.18456e+00		         0.34833	5.00000e+00	
1.30149   	5.05725e+00		         0.35000	5.00000e+00	
1.30777   	4.98039e+00		         0.35167	5.00000e+00	
1.31397   	4.88429e+00		         0.35333	4.00000e+00	
1.32007   	4.85568e+00		         0.35500	4.00000e+00	
1.32618   	4.83970e+00		         0.35667	3.00000e+00	
1.33228   	4.83934e+00		         0.35833	3.00000e+00	
1.33866   	4.83465e+00		         0.36000	2.00000e+00	
1.34476   	4.82220e+00		         0.36167	1.00000e+00	
1.35087   	4.78566e+00		         0.36333	0.00000e+00	
1.35697   	4.73110e+00		         0.36500	-1.00000e+00	
1.36335   	4.67428e+00		         0.36667	-2.00000e+00	
1.36945   	4.59367e+00		         0.36833	-3.00000e+00	
1.37555   	4.50838e+00		         0.37000	-3.00000e+00	
1.38166   	4.43044e+00		         0.37167	-4.00000e+00	
1.38803   	4.32065e+00		         0.37333	-5.00000e+00	
1.39414   	4.20387e+00		         0.37500	-6.00000e+00	
1.40024   	4.07601e+00		         0.37667	-6.00000e+00	
1.40634   	3.92721e+00		         0.37833	-7.00000e+00	
1.41272   	3.76238e+00		         0.38000	-8.00000e+00	
1.41882   	3.59625e+00		         0.38167	-8.00000e+00	
1.42493   	3.42187e+00		         0.38333	-9.00000e+00	
1.43103   	3.26147e+00		         0.38500	-1.00000e+01	
1.43741   	3.11410e+00		         0.38667	-1.00000e+01	
1.44351   	2.92062e+00		         0.38833	-1.10000e+01	
1.44962   	2.74610e+00		         0.39000	-1.20000e+01	
1.45572   	2.52048e+00		         0.39167	-1.20000e+01	
1.46210   	2.29636e+00		         0.39333	-1.30000e+01	
1.46820   	2.01472e+00		         0.39500	-1.30000e+01	
1.47430   	1.70882e+00		         0.39667	-1.40000e+01	
1.48041   	1.37596e+00		         0.39833	-1.40000e+01	
1.48679   	1.01523e+00		         0.40000	-1.50000e+01	
1.49289   	4.88178e-01		         0.40167	-1.50000e+01	
1.49899   	-1.07432e-01		         0.40333	-1.60000e+01	
1.50510   	-6.40971e-01		         0.40500	-1.60000e+01	
1.51147   	-8.71263e-01		         0.40667	-1.60000e+01	
1.51757   	-9.05753e-01		         0.40833	-1.60000e+01	
1.52368   	-7.02434e-01		         0.41000	-1.60000e+01	
1.52978   	-4.57569e-01		         0.41167	-1.60000e+01	
1.53616   	-2.41666e-01		         0.41333	-1.60000e+01	
1.54226   	-2.44471e-01		         0.41500	-1.60000e+01	
1.54837   	-3.70438e-01		         0.41667	-1.60000e+01	
1.55447   	-5.76228e-01		         0.41833	-1.60000e+01	
1.56085   	-7.29928e-01		         0.42000	-1.70000e+01	
1.56695   	-8.71092e-01		         0.42167	-1.70000e+01	
1.57336   	-1.03823e+00		         0.42333	-1.70000e+01	
1.57916   	-1.32545e+00		         0.42500	-1.80000e+01	
1.58553   	-1.64479e+00		         0.42667	-1.80000e+01	
1.59164   	-1.94095e+00		         0.42833	-1.90000e+01	
1.59774   	-2.23325e+00		         0.43000	-1.90000e+01	
1.60385   	-2.53471e+00		         0.43167	-2.00000e+01	
1.61022   	-2.86398e+00		         0.43333	-2.00000e+01	
1.61632   	-3.20933e+00		         0.43500	-2.00000e+01	
1.62243   	-3.57702e+00		         0.43667	-2.00000e+01	
1.62854   	-4.01960e+00		         0.43833	-2.00000e+01	
1.63491   	-4.40429e+00		         0.44000	-2.00000e+01	
1.64101   	-4.57459e+00		         0.44167	-1.90000e+01	
1.64712   	-4.59913e+00		         0.44333	-1.90000e+01	
1.65322   	-4.53592e+00		         0.44500	-1.90000e+01	
1.65960   	-4.32045e+00		         0.44667	-1.80000e+01	
1.66570   	-4.12146e+00		         0.44833	-1.80000e+01	
1.67180   	-3.93253e+00		         0.45000	-1.80000e+01	
1.67791   	-3.81603e+00		         0.45167	-1.80000e+01	
1.68428   	-3.69099e+00		         0.45333	-1.70000e+01	
1.69039   	-3.61093e+00		         0.45500	-1.70000e+01	
1.69649   	-3.54569e+00		         0.45667	-1.70000e+01	
1.70260   	-3.48613e+00		         0.45833	-1.60000e+01	
1.70897   	-3.39434e+00		         0.46000	-1.60000e+01	
1.71507   	-3.35268e+00		         0.46167	-1.60000e+01	
1.72118   	-3.27617e+00		         0.46333	-1.60000e+01	
1.72728   	-3.21865e+00		         0.46500	-1.50000e+01	
1.73366   	-3.07718e+00		         0.46667	-1.50000e+01	
1.73976   	-2.94943e+00		         0.46833	-1.40000e+01	
1.74587   	-2.76955e+00		         0.47000	-1.40000e+01	
1.75197   	-2.57183e+00		         0.47167	-1.40000e+01	
1.75834   	-2.28430e+00		         0.47333	-1.30000e+01	
1.76445   	-2.04459e+00		         0.47500	-1.30000e+01	
1.77055   	-1.76442e+00		         0.47667	-1.30000e+01	
1.77666   	-1.49060e+00		         0.47833	-1.20000e+01	
1.78303   	-1.25080e+00		         0.48000	-1.20000e+01	
1.78929   	-1.12088e+00		         0.48167	-1.10000e+01	
1.79524   	-9.83438e-01		         0.48333	-1.10000e+01	
1.80135   	-8.82715e-01		         0.48500	-1.00000e+01	
1.80772   	-8.48002e-01		         0.48667	-1.00000e+01	
1.81382   	-8.66079e-01		         0.48833	-9.00000e+00	
1.81993   	-9.51601e-01		         0.49000	-9.00000e+00	
1.82603   	-1.03321e+00		         0.49167	-8.00000e+00	
1.83241   	-1.09481e+00		         0.49333	-7.00000e+00	
1.83851   	-1.06390e+00		         0.49500	-7.00000e+00	
1.84462   	-9.53104e-01		         0.49667	-6.00000e+00	
1.85072   	-7.57931e-01		         0.49833	-6.00000e+00	
1.85710   	-6.14342e-01		         0.50000	-6.00000e+00	
1.86320   	-5.09202e-01		         0.50167	-5.00000e+00	
1.86930   	-4.55807e-01		         0.50333	-5.00000e+00	
1.87541   	-3.96319e-01		         0.50500	-5.00000e+00	
1.88178   	-3.30150e-01		         0.50667	-4.00000e+00	
1.88788   	-2.51610e-01		         0.50833	-4.00000e+00	
1.89399   	-1.77577e-01		         0.51000	-4.00000e+00	
1.90010   	-1.06721e-01		         0.51167	-4.00000e+00	
1.90647   	-7.91815e-02		         0.51333	-3.00000e+00	
1.91257   	-6.23576e-02		         0.51500	-3.00000e+00	
1.91868   	-6.63083e-02		         0.51667	-3.00000e+00	
1.92478   	-8.51439e-02		         0.51833	-2.00000e+00	
1.93116   	-1.12899e-01		         0.52000	-1.00000e+00	
1.93726   	-1.41665e-01		         0.52167	-1.00000e+00	
1.94337   	-1.61330e-01		         0.52333	0.00000e+00	
1.94947   	-1.80692e-01		         0.52500	0.00000e+00	
1.95585   	-1.92345e-01		         0.52667	1.00000e+00	
1.96195   	-2.03178e-01		         0.52833	1.00000e+00	
1.96805   	-2.22917e-01		         0.53000	2.00000e+00	
1.97416   	-2.44871e-01		         0.53167	2.00000e+00	
1.98053   	-2.58114e-01		         0.53333	2.00000e+00	
1.98664   	-2.61335e-01		         0.53500	2.00000e+00	
1.99274   	-2.83016e-01		         0.53667	2.00000e+00	
1.99885   	-2.61988e-01		         0.53833	2.00000e+00	
2.00522   	-2.53618e-01		         0.54000	2.00000e+00	
2.01132   	-2.41015e-01		         0.54167	2.00000e+00	
2.01743   	-2.37973e-01		         0.54333	2.00000e+00	
2.02353   	-2.12698e-01		         0.54500	2.00000e+00	
2.02991   	-2.16011e-01		         0.54667	1.00000e+00	
2.03601   	-2.03637e-01		         0.54833	1.00000e+00	
2.04212   	-2.04344e-01		         0.55000	1.00000e+00	
2.04822   	-1.96104e-01		         0.55167	1.00000e+00	
2.05460   	-1.88490e-01		         0.55333	1.00000e+00	
2.06070   	-1.80085e-01		         0.55500	1.00000e+00	
2.06680   	-1.82711e-01		         0.55667	0.00000e+00	
2.07291   	-1.79175e-01		         0.55833	0.00000e+00	
2.07929   	-1.73682e-01		         0.56000	0.00000e+00	
2.08539   	-1.75954e-01		         0.56167	0.00000e+00	
2.09149   	-1.82661e-01		         0.56333	0.00000e+00	
2.09760   	-1.80609e-01		         0.56500	0.00000e+00	
2.10397   	-1.75121e-01		         0.56667	-1.00000e+00	
2.11007   	-1.93524e-01		         0.56833	-1.00000e+00	
2.11618   	-2.50418e-01		         0.57000	-1.00000e+00	
2.12228   	-3.76719e-01		         0.57167	-2.00000e+00	
2.12866   	-5.85460e-01		         0.57333	-2.00000e+00	
2.13476   	-9.35181e-01		         0.57500	-2.00000e+00	
2.14087   	-1.44011e+00		         0.57667	-1.00000e+00	
2.14697   	-2.10390e+00		         0.57833	-1.00000e+00	
2.15335   	-2.93081e+00		         0.58000	-1.00000e+00	
2.15945   	-3.91685e+00		         0.58167	-1.00000e+00	
2.16555   	-4.87743e+00		         0.58333	-1.00000e+00	
2.17166   	-5.68189e+00		         0.58500	-1.00000e+00	
2.17804   	-6.40579e+00		         0.58667	-1.00000e+00	
2.18414   	-6.94981e+00		         0.58833	-1.00000e+00	
2.19024   	-7.27972e+00		         0.59000	-1.00000e+00	
2.19635   	-7.48077e+00		         0.59167	-1.00000e+00	
2.20272   	-7.60199e+00		         0.59333	-1.00000e+00	
2.20882   	-7.56622e+00		         0.59500	-2.00000e+00	
2.21493   	-7.21033e+00		         0.59667	-2.00000e+00	
2.22107   	-6.52552e+00		         0.59833	-3.00000e+00	
2.22741   	-5.75464e+00		         0.60000	-4.00000e+00	
2.23351   	-4.98843e+00		         0.60167	-4.00000e+00	
2.23962   	-4.20401e+00		         0.60333	-5.00000e+00	
2.24572   	-3.62208e+00		         0.60500	-5.00000e+00	
2.25210   	-3.31671e+00		         0.60667	-6.00000e+00	
2.25820   	-3.86784e+00		         0.60833	-6.00000e+00	
2.26431   	-2.75743e+00		         0.61000	-6.00000e+00	
2.27041   	-1.45490e+00		         0.61167	-6.00000e+00	
2.27679   	-1.63414e-01		         0.61333	-7.00000e+00	
2.28289   	9.12934e-01		         0.61500	-7.00000e+00	
2.28899   	2.42588e+00		         0.61667	-6.00000e+00	
2.29510   	2.01923e+00		         0.61833	-6.00000e+00	
2.30147   	1.24553e+00		         0.62000	-6.00000e+00	
2.30757   	4.30813e-01		         0.62167	-6.00000e+00	
2.31368   	1.02578e-01		         0.62333	-5.00000e+00	
2.31978   	4.00443e-01		         0.62500	-5.00000e+00	
2.32616   	1.11978e+00		         0.62667	-5.00000e+00	
2.33227   	2.19376e+00		         0.62833	-5.00000e+00	
2.33837   	3.54944e+00		         0.63000	-4.00000e+00	
2.34447   	4.83347e+00		         0.63167	-4.00000e+00	
2.35085   	5.88983e+00		         0.63333	-4.00000e+00	
2.35695   	6.76865e+00		         0.63500	-4.00000e+00	
2.36305   	7.29052e+00		         0.63667	-4.00000e+00	
2.36916   	7.37592e+00		         0.63833	-4.00000e+00	
2.37554   	7.22872e+00		         0.64000	-4.00000e+00	
2.38164   	6.92004e+00		         0.64167	-5.00000e+00	
2.38774   	6.49677e+00		         0.64333	-5.00000e+00	
2.39385   	6.19592e+00		         0.64500	-5.00000e+00	
2.40022   	6.01275e+00		         0.64667	-5.00000e+00	
2.40632   	5.80309e+00		         0.64833	-5.00000e+00	
2.41243   	5.64690e+00		         0.65000	-5.00000e+00	
2.41853   	5.57569e+00		         0.65167	-6.00000e+00	
2.42491   	5.45295e+00		         0.65333	-6.00000e+00	
2.43101   	5.39293e+00		         0.65500	-6.00000e+00	
2.43712   	5.32581e+00		         0.65667	-6.00000e+00	
2.44322   	5.26993e+00		         0.65833	-6.00000e+00	
2.44960   	5.23028e+00		         0.66000	-6.00000e+00	
2.45570   	5.23878e+00		         0.66167	-7.00000e+00	
2.46181   	5.21234e+00		         0.66333	-7.00000e+00	
2.46791   	5.17314e+00		         0.66500	-7.00000e+00	
2.47429   	5.15004e+00		         0.66667	-7.00000e+00	
2.48039   	5.06987e+00		         0.66833	-7.00000e+00	
2.48649   	4.99724e+00		         0.67000	-7.00000e+00	
2.49260   	4.88030e+00		         0.67167	-6.00000e+00	
2.49897   	4.78830e+00		         0.67333	-6.00000e+00	
2.50507   	4.66326e+00		         0.67500	-6.00000e+00	
2.51118   	4.55918e+00		         0.67667	-6.00000e+00	
2.51728   	4.45168e+00		         0.67833	-5.00000e+00	
2.52366   	4.30039e+00		         0.68000	-5.00000e+00	
2.52976   	4.17377e+00		         0.68167	-5.00000e+00	
2.53587   	4.06880e+00		         0.68333	-4.00000e+00	
2.54197   	3.92581e+00		         0.68500	-4.00000e+00	
2.54835   	3.75289e+00		         0.68667	-3.00000e+00	
2.55445   	3.64314e+00		         0.68833	-3.00000e+00	
2.56056   	3.47792e+00		         0.69000	-3.00000e+00	
2.56666   	3.29913e+00		         0.69167	-2.00000e+00	
2.57303   	3.14335e+00		         0.69333	-2.00000e+00	
2.57914   	2.94841e+00		         0.69500	-2.00000e+00	
2.58524   	2.79135e+00		         0.69667	-1.00000e+00	
2.59135   	2.60032e+00		         0.69833	-1.00000e+00	
2.59772   	2.36075e+00		         0.70000	0.00000e+00	
2.60382   	2.06554e+00		         0.70167	0.00000e+00	
2.60993   	1.75842e+00		         0.70333	0.00000e+00	
2.61604   	1.38118e+00		         0.70500	0.00000e+00	
2.62241   	9.67709e-01		         0.70667	1.00000e+00	
2.62851   	4.32903e-01		         0.70833	1.00000e+00	
2.63462   	-1.37198e-01		         0.71000	1.00000e+00	
2.64072   	-6.31851e-01		         0.71167	1.00000e+00	
2.64710   	-8.47580e-01		         0.71333	1.00000e+00	
2.65320   	-7.70859e-01		         0.71500	0.00000e+00	
2.65931   	-5.50016e-01		         0.71667	0.00000e+00	
2.66541   	-2.96028e-01		         0.71833	0.00000e+00	
2.67178   	6.07507e-02		         0.72000	0.00000e+00	
2.67789   	1.38049e-01		         0.72167	0.00000e+00	
2.68399   	-1.86575e-02		         0.72333	-1.00000e+00	
2.69010   	-3.63086e-04		         0.72500	-1.00000e+00	
2.69647   	-1.15734e-01		         0.72667	-1.00000e+00	
2.70257   	-3.48462e-01		         0.72833	-1.00000e+00	
2.70868   	-6.10798e-01		         0.73000	-1.00000e+00	
2.71478   	-7.83901e-01		         0.73167	-1.00000e+00	
2.72116   	-1.14534e+00		         0.73333	-1.00000e+00	
2.72727   	-1.37631e+00		         0.73500	-1.00000e+00	
2.73337   	-1.85141e+00		         0.73667	-1.00000e+00	
2.73947   	-2.16178e+00		         0.73833	-1.00000e+00	
2.74585   	-2.62001e+00		         0.74000	-1.00000e+00	
2.75228   	-3.01977e+00		         0.74167	-1.00000e+00	
2.75806   	-3.53673e+00		         0.74333	-1.00000e+00	
2.76416   	-3.76346e+00		         0.74500	0.00000e+00	
2.77053   	-4.09656e+00		         0.74667	0.00000e+00	
2.77664   	-4.32427e+00		         0.74833	0.00000e+00	
2.78274   	-4.53361e+00		         0.75000	0.00000e+00	
2.78885   	-4.52070e+00		         0.75167	0.00000e+00	
2.79522   	-4.49535e+00		         0.75333	0.00000e+00	
2.80132   	-4.44314e+00		         0.75500	0.00000e+00	
2.80743   	-4.37511e+00		         0.75667	-1.00000e+00	
2.81353   	-4.23183e+00		         0.75833	-1.00000e+00	
2.81991   	-4.05994e+00		         0.76000	-1.00000e+00	
2.82601   	-3.89521e+00		         0.76167	-2.00000e+00	
2.83212   	-3.68010e+00		         0.76333	-2.00000e+00	
2.83822   	-3.52279e+00		         0.76500	-2.00000e+00	
2.84460   	-3.40978e+00		         0.76667	-3.00000e+00	
2.85070   	-3.31063e+00		         0.76833	-3.00000e+00	
2.85681   	-3.20229e+00		         0.77000	-3.00000e+00	
2.86291   	-3.05665e+00		         0.77167	-4.00000e+00	
2.86928   	-2.82861e+00		         0.77333	-4.00000e+00	
2.87539   	-2.56964e+00		         0.77500	-4.00000e+00	
2.88149   	-2.29753e+00		         0.77667	-4.00000e+00	
2.88760   	-2.06463e+00		         0.77833	-4.00000e+00	
2.89397   	-1.85456e+00		         0.78000	-3.00000e+00	
2.90007   	-1.64834e+00		         0.78167	-3.00000e+00	
2.90618   	-1.48964e+00		         0.78333	-3.00000e+00	
2.91229   	-1.35920e+00		         0.78500	-3.00000e+00	
2.91866   	-1.17980e+00		         0.78667	-3.00000e+00	
2.92477   	-1.06487e+00		         0.78833	-3.00000e+00	
2.93087   	-9.60097e-01		         0.79000	-3.00000e+00	
2.93697   	-8.43611e-01		         0.79167	-2.00000e+00	
2.94335   	-7.51878e-01		         0.79333	-2.00000e+00	
2.94945   	-7.29858e-01		         0.79500	-2.00000e+00	
2.95555   	-7.17864e-01		         0.79667	-2.00000e+00	
2.96166   	-7.20905e-01		         0.79833	-2.00000e+00	
2.96803   	-6.88325e-01		         0.80000	-1.00000e+00	
2.97414   	-6.30635e-01		         0.80167	-1.00000e+00	
2.98024   	-5.40192e-01		         0.80333	-1.00000e+00	
2.98635   	-4.30979e-01		         0.80500	-1.00000e+00	
2.99272   	-3.03273e-01		         0.80667	-1.00000e+00	
2.99882   	-2.51740e-01		         0.80833	0.00000e+00	
3.00493   	-2.14610e-01		         0.81000	0.00000e+00	
3.01103   	-1.70777e-01		         0.81167	0.00000e+00	
3.01778   	-1.54021e-01		         0.81333	0.00000e+00	
3.02351   	-1.30081e-01		         0.81500	0.00000e+00	
3.02962   	-1.33672e-01		         0.81667	0.00000e+00	
3.03572   	-1.29192e-01		         0.81833	0.00000e+00	
3.04210   	-1.39405e-01		         0.82000	-1.00000e+00	
3.04820   	-1.42327e-01		         0.82167	-1.00000e+00	
3.05430   	-1.69539e-01		         0.82333	-1.00000e+00	
3.06041   	-1.75431e-01		         0.82500	-1.00000e+00	
3.06678   	-2.24830e-01		         0.82667	-2.00000e+00	
3.07289   	-2.68119e-01		         0.82833	-2.00000e+00	
3.07899   	-3.21703e-01		         0.83000	-2.00000e+00	
3.08510   	-3.55178e-01		         0.83167	-2.00000e+00	
3.09147   	-4.00615e-01		         0.83333	-3.00000e+00	
3.09757   	-4.17482e-01		         0.83500	-3.00000e+00	
3.10368   	-4.29830e-01		         0.83667	-3.00000e+00	
3.10978   	-4.19637e-01		         0.83833	-3.00000e+00	
3.11616   	-4.15682e-01		         0.84000	-2.00000e+00	
3.12226   	-3.98604e-01		         0.84167	-2.00000e+00	
3.12837   	-3.86196e-01		         0.84333	-2.00000e+00	
3.13447   	-3.98398e-01		         0.84500	-2.00000e+00	
3.14085   	-3.64215e-01		         0.84667	-1.00000e+00	
3.14695   	-3.33577e-01		         0.84833	-1.00000e+00	
3.15305   	-3.42204e-01		         0.85000	-1.00000e+00	
3.15916   	-2.84506e-01		         0.85167	-1.00000e+00	
3.16553   	-2.69160e-01		         0.85333	-1.00000e+00	
3.17164   	-2.99468e-01		         0.85500	-1.00000e+00	
3.17775   	-3.15067e-01		         0.85667	-1.00000e+00	
3.18385   	-2.83861e-01		         0.85833	-1.00000e+00	
3.19022   	-3.06586e-01		         0.86000	0.00000e+00	
3.19633   	-2.74807e-01		         0.86167	0.00000e+00	
3.20243   	-2.23353e-01		         0.86333	0.00000e+00	
3.20854   	-1.93422e-01		         0.86500	0.00000e+00	
3.21491   	-1.63249e-01		         0.86667	0.00000e+00	
3.22101   	-1.34246e-01		         0.86833	0.00000e+00	
3.22712   	-1.08050e-01		         0.87000	1.00000e+00	
3.23322   	-1.28645e-01		         0.87167	1.00000e+00	
3.23960   	-1.92000e-01		         0.87333	1.00000e+00	
3.24570   	-2.59657e-01		         0.87500	1.00000e+00	
3.25180   	-4.22866e-01		         0.87667	1.00000e+00	
3.25791   	-6.78409e-01		         0.87833	1.00000e+00	
3.26428   	-9.99759e-01		         0.88000	1.00000e+00	
3.27039   	-1.40749e+00		         0.88167	1.00000e+00	
3.27649   	-1.96811e+00		         0.88333	0.00000e+00	
3.28260   	-2.71431e+00		         0.88500	0.00000e+00	
3.28898   	-3.55392e+00		         0.88667	0.00000e+00	
3.29507   	-4.51083e+00		         0.88833	-1.00000e+00	
3.30118   	-5.39166e+00		         0.89000	-1.00000e+00	
3.30729   	-6.25974e+00		         0.89167	-1.00000e+00	
3.31366   	-6.84134e+00		         0.89333	-1.00000e+00	
3.31976   	-7.19837e+00		         0.89500	-1.00000e+00	
3.32587   	-7.28767e+00		         0.89667	-1.00000e+00	
3.33197   	-7.26869e+00		         0.89833	-1.00000e+00	
3.33835   	-6.94627e+00		         0.90000	0.00000e+00	
3.34445   	-6.54184e+00		         0.90167	0.00000e+00	
3.35055   	-6.01038e+00		         0.90333	0.00000e+00	
3.35666   	-5.39253e+00		         0.90500	0.00000e+00	
3.36304   	-4.74560e+00		         0.90667	0.00000e+00	
3.36914   	-4.33474e+00		         0.90833	1.00000e+00	
3.37524   	-4.14524e+00		         0.91000	1.00000e+00	
3.38135   	-3.94654e+00		         0.91167	1.00000e+00	
3.38773   	-3.73417e+00		         0.91333	1.00000e+00	
3.39382   	-3.63803e+00		         0.91500	1.00000e+00	
3.39993   	-2.60337e+00		         0.91667	1.00000e+00	
3.40604   	-2.11065e+00		         0.91833	0.00000e+00	
3.41241   	-1.58330e+00		         0.92000	0.00000e+00	
			         0.92167	0.00000e+00	
			         0.92333	-1.00000e+00	
			         0.92500	-1.00000e+00	
			         0.92667	-1.00000e+00	
			         0.92833	-2.00000e+00	
			         0.93000	-2.00000e+00	
			         0.93167	-2.00000e+00	
			         0.93333	-2.00000e+00	
			         0.93500	-2.00000e+00	
			         0.93667	-2.00000e+00	
			         0.93833	-2.00000e+00	
			         0.94000	-2.00000e+00	
			         0.94167	-1.00000e+00	
			         0.94333	-1.00000e+00	
			         0.94500	0.00000e+00	
			         0.94667	0.00000e+00	
			         0.94833	1.00000e+00	
			         0.95000	2.00000e+00	
			         0.95167	2.00000e+00	
			         0.95333	3.00000e+00	
			         0.95500	4.00000e+00	
			         0.95667	5.00000e+00	
			         0.95833	5.00000e+00	
			         0.96000	6.00000e+00	
			         0.96167	7.00000e+00	
			         0.96333	8.00000e+00	
			         0.96500	9.00000e+00	
			         0.96667	1.00000e+01	
			         0.96833	1.00000e+01	
			         0.97000	1.10000e+01	
			         0.97167	1.20000e+01	
			         0.97333	1.30000e+01	
			         0.97500	1.30000e+01	
			         0.97667	1.40000e+01	
			         0.97833	1.50000e+01	
			         0.98000	1.60000e+01	
			         0.98167	1.60000e+01	
			         0.98333	1.70000e+01	
			         0.98500	1.80000e+01	
			         0.98667	1.80000e+01	
			         0.98833	1.90000e+01	
			         0.99000	1.90000e+01	
			         0.99167	1.90000e+01	
			         0.99333	1.90000e+01	
			         0.99500	1.80000e+01	
			         0.99667	1.70000e+01	
			         0.99833	1.70000e+01	
			         1.00000	1.50000e+01	
			         1.00167	1.40000e+01	
			         1.00333	1.30000e+01	
			         1.00500	1.20000e+01	
			         1.00667	1.10000e+01	
			         1.00833	1.00000e+01	
			         1.01000	1.00000e+01	
			         1.01167	1.00000e+01	
			         1.01333	9.00000e+00	
			         1.01500	9.00000e+00	
			         1.01667	9.00000e+00	
			         1.01833	9.00000e+00	
			         1.02000	9.00000e+00	
			         1.02167	9.00000e+00	
			         1.02333	9.00000e+00	
			         1.02500	9.00000e+00	
			         1.02667	8.00000e+00	
			         1.02833	8.00000e+00	
			         1.03000	7.00000e+00	
			         1.03167	5.00000e+00	
			         1.03333	4.00000e+00	
			         1.03500	3.00000e+00	
			         1.03667	1.00000e+00	
			         1.03833	0.00000e+00	
			         1.04000	-2.00000e+00	
			         1.04167	-3.00000e+00	
			         1.04333	-5.00000e+00	
			         1.04500	-6.00000e+00	
			         1.04667	-7.00000e+00	
			         1.04833	-8.00000e+00	
			         1.05000	-9.00000e+00	
			         1.05167	-9.00000e+00	
			         1.05333	-1.00000e+01	
			         1.05500	-1.00000e+01	
			         1.05667	-1.10000e+01	
			         1.05833	-1.10000e+01	
			         1.06000	-1.10000e+01	
			         1.06167	-1.10000e+01	
			         1.06333	-1.10000e+01	
			         1.06500	-1.10000e+01	
			         1.06667	-1.10000e+01	
			         1.06833	-1.10000e+01	
			         1.07000	-1.10000e+01	
			         1.07167	-1.00000e+01	
			         1.07333	-1.00000e+01	
			         1.07500	-1.00000e+01	
			         1.07667	-1.10000e+01	
			         1.07833	-1.10000e+01	
			         1.08000	-1.20000e+01	
			         1.08167	-1.40000e+01	
			         1.08333	-1.60000e+01	
			         1.08500	-1.90000e+01	
			         1.08667	-2.20000e+01	
			         1.08833	-2.60000e+01	
			         1.09000	-3.00000e+01	
			         1.09167	-3.40000e+01	
			         1.09333	-3.70000e+01	
			         1.09500	-4.00000e+01	
			         1.09667	-4.20000e+01	
			         1.09833	-4.20000e+01	
			         1.10000	-4.10000e+01	
			         1.10167	-3.70000e+01	
			         1.10333	-3.00000e+01	
			         1.10500	-1.90000e+01	
			         1.10667	-6.00000e+00	
			         1.10833	1.20000e+01	
			         1.11000	3.30000e+01	
			         1.11167	5.80000e+01	
			         1.11333	8.60000e+01	
			         1.11500	1.15000e+02	
			         1.11667	1.46000e+02	
			         1.11833	1.77000e+02	
			         1.12000	2.06000e+02	
			         1.12167	2.34000e+02	
			         1.12333	2.58000e+02	
			         1.12500	2.77000e+02	
			         1.12667	2.91000e+02	
			         1.12833	2.98000e+02	
			         1.13000	2.98000e+02	
			         1.13167	2.91000e+02	
			         1.13333	2.78000e+02	
			         1.13500	2.59000e+02	
			         1.13667	2.35000e+02	
			         1.13833	2.06000e+02	
			         1.14000	1.75000e+02	
			         1.14167	1.43000e+02	
			         1.14333	1.09000e+02	
			         1.14500	7.60000e+01	
			         1.14667	4.40000e+01	
			         1.14833	1.50000e+01	
			         1.15000	-1.10000e+01	
			         1.15167	-3.30000e+01	
			         1.15333	-5.30000e+01	
			         1.15500	-6.80000e+01	
			         1.15667	-8.10000e+01	
			         1.15833	-9.00000e+01	
			         1.16000	-9.70000e+01	
			         1.16167	-1.01000e+02	
			         1.16333	-1.02000e+02	
			         1.16500	-1.02000e+02	
			         1.16667	-1.01000e+02	
			         1.16833	-9.80000e+01	
			         1.17000	-9.40000e+01	
			         1.17167	-8.90000e+01	
			         1.17333	-8.40000e+01	
			         1.17500	-7.90000e+01	
			         1.17667	-7.50000e+01	
			         1.17833	-7.00000e+01	
			         1.18000	-6.60000e+01	
			         1.18167	-6.20000e+01	
			         1.18333	-5.90000e+01	
			         1.18500	-5.70000e+01	
			         1.18667	-5.50000e+01	
			         1.18833	-5.30000e+01	
			         1.19000	-5.20000e+01	
			         1.19167	-5.10000e+01	
			         1.19333	-5.00000e+01	
			         1.19500	-4.90000e+01	
			         1.19667	-4.80000e+01	
			         1.19833	-4.80000e+01	
			         1.20000	-4.70000e+01	
			         1.20167	-4.60000e+01	
			         1.20333	-4.50000e+01	
			         1.20500	-4.30000e+01	
			         1.20667	-4.20000e+01	
			         1.20833	-4.10000e+01	
			         1.21000	-3.90000e+01	
			         1.21167	-3.80000e+01	
			         1.21333	-3.70000e+01	
			         1.21500	-3.60000e+01	
			         1.21667	-3.50000e+01	
			         1.21833	-3.40000e+01	
			         1.22000	-3.30000e+01	
			         1.22167	-3.20000e+01	
			         1.22333	-3.20000e+01	
			         1.22500	-3.10000e+01	
			         1.22667	-3.00000e+01	
			         1.22833	-3.00000e+01	
			         1.23000	-3.00000e+01	
			         1.23167	-2.90000e+01	
			         1.23333	-2.90000e+01	
			         1.23500	-2.80000e+01	
			         1.23667	-2.80000e+01	
			         1.23833	-2.70000e+01	
			         1.24000	-2.60000e+01	
			         1.24167	-2.60000e+01	
			         1.24333	-2.50000e+01	
			         1.24500	-2.40000e+01	
			         1.24667	-2.40000e+01	
			         1.24833	-2.30000e+01	
			         1.25000	-2.30000e+01	
			         1.25167	-2.20000e+01	
			         1.25333	-2.20000e+01	
			         1.25500	-2.20000e+01	
			         1.25667	-2.10000e+01	
			         1.25833	-2.10000e+01	
			         1.26000	-2.10000e+01	
			         1.26167	-2.10000e+01	
			         1.26333	-2.10000e+01	
			         1.26500	-2.00000e+01	
			         1.26667	-2.00000e+01	
			         1.26833	-1.90000e+01	
			         1.27000	-1.90000e+01	
			         1.27167	-1.80000e+01	
			         1.27333	-1.70000e+01	
			         1.27500	-1.60000e+01	
			         1.27667	-1.50000e+01	
			         1.27833	-1.40000e+01	
			         1.28000	-1.30000e+01	
			         1.28167	-1.20000e+01	
			         1.28333	-1.10000e+01	
			         1.28500	-1.00000e+01	
			         1.28667	-1.00000e+01	
			         1.28833	-1.00000e+01	
			         1.29000	-9.00000e+00	
			         1.29167	-1.00000e+01	
			         1.29333	-1.00000e+01	
			         1.29500	-1.00000e+01	
			         1.29667	-1.00000e+01	
			         1.29833	-1.00000e+01	
			         1.30000	-1.00000e+01	
			         1.30167	-1.00000e+01	
			         1.30333	-1.00000e+01	
			         1.30500	-1.00000e+01	
			         1.30667	-9.00000e+00	
			         1.30833	-9.00000e+00	
			         1.31000	-9.00000e+00	
			         1.31167	-8.00000e+00	
			         1.31333	-7.00000e+00	
			         1.31500	-7.00000e+00	
			         1.31667	-7.00000e+00	
			         1.31833	-7.00000e+00	
			         1.32000	-7.00000e+00	
			         1.32167	-7.00000e+00	
			         1.32333	-7.00000e+00	
			         1.32500	-7.00000e+00	
			         1.32667	-7.00000e+00	
			         1.32833	-7.00000e+00	
			         1.33000	-6.00000e+00	
			         1.33167	-6.00000e+00	
			         1.33333	-6.00000e+00	
			         1.33500	-5.00000e+00	
			         1.33667	-5.00000e+00	
			         1.33833	-4.00000e+00	
			         1.34000	-4.00000e+00	
			         1.34167	-3.00000e+00	
			         1.34333	-3.00000e+00	
			         1.34500	-2.00000e+00	
			         1.34667	-2.00000e+00	
			         1.34833	-2.00000e+00	
			         1.35000	-1.00000e+00	
			         1.35167	-1.00000e+00	
			         1.35333	-1.00000e+00	
			         1.35500	-1.00000e+00	
			         1.35667	-1.00000e+00	
			         1.35833	0.00000e+00	
			         1.36000	0.00000e+00	
			         1.36167	0.00000e+00	
			         1.36333	0.00000e+00	
			         1.36500	1.00000e+00	
			         1.36667	1.00000e+00	
			         1.36833	2.00000e+00	
			         1.37000	2.00000e+00	
			         1.37167	3.00000e+00	
			         1.37333	3.00000e+00	
			         1.37500	3.00000e+00	
			         1.37667	3.00000e+00	
			         1.37833	4.00000e+00	
			         1.38000	4.00000e+00	
			         1.38167	4.00000e+00	
			         1.38333	4.00000e+00	
			         1.38500	4.00000e+00	
			         1.38667	4.00000e+00	
			         1.38833	4.00000e+00	
			         1.39000	4.00000e+00	
			         1.39167	4.00000e+00	
			         1.39333	5.00000e+00	
			         1.39500	5.00000e+00	
			         1.39667	6.00000e+00	
			         1.39833	6.00000e+00	
			         1.40000	7.00000e+00	
			         1.40167	7.00000e+00	
			         1.40333	7.00000e+00	
			         1.40500	8.00000e+00	
			         1.40667	8.00000e+00	
			         1.40833	8.00000e+00	
			         1.41000	8.00000e+00	
			         1.41167	7.00000e+00	
			         1.41333	7.00000e+00	
			         1.41500	7.00000e+00	
			         1.41667	6.00000e+00	
			         1.41833	6.00000e+00	
			         1.42000	6.00000e+00	
			         1.42167	6.00000e+00	
			         1.42333	6.00000e+00	
			         1.42500	6.00000e+00	
			         1.42667	6.00000e+00	
			         1.42833	7.00000e+00	
			         1.43000	7.00000e+00	
			         1.43167	7.00000e+00	
			         1.43333	7.00000e+00	
			         1.43500	7.00000e+00	
			         1.43667	7.00000e+00	
			         1.43833	7.00000e+00	
			         1.44000	6.00000e+00	
			         1.44167	5.00000e+00	
			         1.44333	5.00000e+00	
			         1.44500	4.00000e+00	
			         1.44667	3.00000e+00	
			         1.44833	3.00000e+00	
			         1.45000	2.00000e+00	
			         1.45167	1.00000e+00	
			         1.45333	1.00000e+00	
			         1.45500	1.00000e+00	
			         1.45667	1.00000e+00	
			         1.45833	0.00000e+00	
			         1.46000	0.00000e+00	
			         1.46167	0.00000e+00	
			         1.46333	0.00000e+00	
			         1.46500	0.00000e+00	
			         1.46667	-1.00000e+00	
			         1.46833	-1.00000e+00	
			         1.47000	-1.00000e+00	
			         1.47167	-1.00000e+00	
			         1.47333	-1.00000e+00	
			         1.47500	-1.00000e+00	
			         1.47667	-1.00000e+00	
			         1.47833	-2.00000e+00	
			         1.48000	-2.00000e+00	
			         1.48167	-2.00000e+00	
			         1.48333	-3.00000e+00	
			         1.48500	-3.00000e+00	
			         1.48667	-4.00000e+00	
			         1.48833	-4.00000e+00	
			         1.49000	-5.00000e+00	
			         1.49167	-6.00000e+00	
			         1.49333	-7.00000e+00	
			         1.49500	-8.00000e+00	
			         1.49667	-8.00000e+00	
			         1.49833	-9.00000e+00	
			         1.50000	-9.00000e+00	
			         1.50167	-1.00000e+01	
			         1.50333	-1.00000e+01	
			         1.50500	-1.00000e+01	
			         1.50667	-1.10000e+01	
			         1.50833	-1.10000e+01	
			         1.51000	-1.10000e+01	
			         1.51167	-1.10000e+01	
			         1.51333	-1.20000e+01	
			         1.51500	-1.20000e+01	
			         1.51667	-1.20000e+01	
			         1.51833	-1.30000e+01	
			         1.52000	-1.30000e+01	
			         1.52167	-1.40000e+01	
			         1.52333	-1.40000e+01	
			         1.52500	-1.40000e+01	
			         1.52667	-1.50000e+01	
			         1.52833	-1.50000e+01	
			         1.53000	-1.40000e+01	
			         1.53167	-1.40000e+01	
			         1.53333	-1.40000e+01	
			         1.53500	-1.40000e+01	
			         1.53667	-1.30000e+01	
			         1.53833	-1.30000e+01	
			         1.54000	-1.20000e+01	
			         1.54167	-1.20000e+01	
			         1.54333	-1.10000e+01	
			         1.54500	-1.10000e+01	
			         1.54667	-1.10000e+01	
			         1.54833	-1.20000e+01	
			         1.55000	-1.20000e+01	
			         1.55167	-1.20000e+01	
			         1.55333	-1.30000e+01	
			         1.55500	-1.30000e+01	
			         1.55667	-1.30000e+01	
			         1.55833	-1.40000e+01	
			         1.56000	-1.40000e+01	
			         1.56167	-1.50000e+01	
			         1.56333	-1.50000e+01	
			         1.56500	-1.50000e+01	
			         1.56667	-1.60000e+01	
			         1.56833	-1.60000e+01	
			         1.57000	-1.60000e+01	
			         1.57167	-1.60000e+01	
			         1.57333	-1.60000e+01	
			         1.57500	-1.60000e+01	
			         1.57667	-1.60000e+01	
			         1.57833	-1.60000e+01	
			         1.58000	-1.50000e+01	
			         1.58167	-1.50000e+01	
			         1.58333	-1.50000e+01	
			         1.58500	-1.40000e+01	
			         1.58667	-1.40000e+01	
			         1.58833	-1.40000e+01	
			         1.59000	-1.30000e+01	
			         1.59167	-1.30000e+01	
			         1.59333	-1.30000e+01	
			         1.59500	-1.20000e+01	
			         1.59667	-1.20000e+01	
			         1.59833	-1.20000e+01	
			         1.60000	-1.10000e+01	
			         1.60167	-1.10000e+01	
			         1.60333	-1.10000e+01	
			         1.60500	-1.10000e+01	
			         1.60667	-1.00000e+01	
			         1.60833	-1.00000e+01	
			         1.61000	-1.00000e+01	
			         1.61167	-1.00000e+01	
			         1.61333	-1.00000e+01	
			         1.61500	-1.00000e+01	
			         1.61667	-9.00000e+00	
			         1.61833	-9.00000e+00	
			         1.62000	-9.00000e+00	
			         1.62167	-8.00000e+00	
			         1.62333	-8.00000e+00	
			         1.62500	-7.00000e+00	
			         1.62667	-6.00000e+00	
			         1.62833	-5.00000e+00	
			         1.63000	-5.00000e+00	
			         1.63167	-4.00000e+00	
			         1.63333	-3.00000e+00	
			         1.63500	-3.00000e+00	
			         1.63667	-3.00000e+00	
			         1.63833	-3.00000e+00	
			         1.64000	-3.00000e+00	
			         1.64167	-3.00000e+00	
			         1.64333	-3.00000e+00	
			         1.64500	-3.00000e+00	
			         1.64667	-4.00000e+00	
			         1.64833	-4.00000e+00	
			         1.65000	-4.00000e+00	
			         1.65167	-5.00000e+00	
			         1.65333	-5.00000e+00	
			         1.65500	-5.00000e+00	
			         1.65667	-5.00000e+00	
			         1.65833	-4.00000e+00	
			         1.66000	-4.00000e+00	
			         1.66167	-4.00000e+00	
			         1.66333	-4.00000e+00	
			         1.66500	-4.00000e+00	
			         1.66667	-3.00000e+00	
			         1.66833	-3.00000e+00	
			         1.67000	-3.00000e+00	
			         1.67167	-3.00000e+00	
			         1.67333	-3.00000e+00	
			         1.67500	-3.00000e+00	
			         1.67667	-3.00000e+00	
			         1.67833	-3.00000e+00	
			         1.68000	-3.00000e+00	
			         1.68167	-3.00000e+00	
			         1.68333	-3.00000e+00	
			         1.68500	-4.00000e+00	
			         1.68667	-4.00000e+00	
			         1.68833	-4.00000e+00	
			         1.69000	-4.00000e+00	
			         1.69167	-4.00000e+00	
			         1.69333	-5.00000e+00	
			         1.69500	-5.00000e+00	
			         1.69667	-5.00000e+00	
			         1.69833	-6.00000e+00	
			         1.70000	-6.00000e+00	
			         1.70167	-6.00000e+00	
			         1.70333	-6.00000e+00	
			         1.70500	-6.00000e+00	
			         1.70667	-5.00000e+00	
			         1.70833	-5.00000e+00	
			         1.71000	-4.00000e+00	
			         1.71167	-4.00000e+00	
			         1.71333	-3.00000e+00	
			         1.71500	-3.00000e+00	
			         1.71667	-3.00000e+00	
			         1.71833	-3.00000e+00	
			         1.72000	-3.00000e+00	
			         1.72167	-3.00000e+00	
			         1.72333	-4.00000e+00	
			         1.72500	-4.00000e+00	
			         1.72667	-5.00000e+00	
			         1.72833	-5.00000e+00	
			         1.73000	-6.00000e+00	
			         1.73167	-6.00000e+00	
			         1.73333	-6.00000e+00	
			         1.73500	-6.00000e+00	
			         1.73667	-6.00000e+00	
			         1.73833	-5.00000e+00	
			         1.74000	-5.00000e+00	
			         1.74167	-4.00000e+00	
			         1.74333	-4.00000e+00	
			         1.74500	-3.00000e+00	
			         1.74667	-3.00000e+00	
			         1.74833	-3.00000e+00	
			         1.75000	-3.00000e+00	
			         1.75167	-3.00000e+00	
			         1.75333	-3.00000e+00	
			         1.75500	-3.00000e+00	
			         1.75667	-3.00000e+00	
			         1.75833	-3.00000e+00	
			         1.76000	-3.00000e+00	
			         1.76167	-4.00000e+00	
			         1.76333	-4.00000e+00	
			         1.76500	-4.00000e+00	
			         1.76667	-4.00000e+00	
			         1.76833	-4.00000e+00	
			         1.77000	-4.00000e+00	
			         1.77167	-4.00000e+00	
			         1.77333	-4.00000e+00	
			         1.77500	-4.00000e+00	
			         1.77667	-4.00000e+00	
			         1.77833	-4.00000e+00	
			         1.78000	-3.00000e+00	
			         1.78167	-3.00000e+00	
			         1.78333	-2.00000e+00	
			         1.78500	-2.00000e+00	
			         1.78667	-1.00000e+00	
			         1.78833	-1.00000e+00	
			         1.79000	0.00000e+00	
			         1.79167	0.00000e+00	
			         1.79333	0.00000e+00	
			         1.79500	0.00000e+00	
			         1.79667	0.00000e+00	
			         1.79833	-1.00000e+00	
			         1.80000	-1.00000e+00	
			         1.80167	-1.00000e+00	
			         1.80333	-2.00000e+00	
			         1.80500	-2.00000e+00	
			         1.80667	-2.00000e+00	
			         1.80833	-2.00000e+00	
			         1.81000	-2.00000e+00	
			         1.81167	-2.00000e+00	
			         1.81333	-1.00000e+00	
			         1.81500	-1.00000e+00	
			         1.81667	-1.00000e+00	
			         1.81833	0.00000e+00	
			         1.82000	0.00000e+00	
			         1.82167	1.00000e+00	
			         1.82333	1.00000e+00	
			         1.82500	1.00000e+00	
			         1.82667	1.00000e+00	
			         1.82833	1.00000e+00	
			         1.83000	1.00000e+00	
			         1.83167	2.00000e+00	
			         1.83333	2.00000e+00	
			         1.83500	2.00000e+00	
			         1.83667	2.00000e+00	
			         1.83833	2.00000e+00	
			         1.84000	2.00000e+00	
			         1.84167	2.00000e+00	
			         1.84333	2.00000e+00	
			         1.84500	2.00000e+00	
			         1.84667	2.00000e+00	
			         1.84833	2.00000e+00	
			         1.85000	2.00000e+00	
			         1.85167	2.00000e+00	
			         1.85333	2.00000e+00	
			         1.85500	2.00000e+00	
			         1.85667	1.00000e+00	
			         1.85833	1.00000e+00	
			         1.86000	1.00000e+00	
			         1.86167	1.00000e+00	
			         1.86333	1.00000e+00	
			         1.86500	1.00000e+00	
			         1.86667	1.00000e+00	
			         1.86833	1.00000e+00	
			         1.87000	1.00000e+00	
			         1.87167	1.00000e+00	
			         1.87333	0.00000e+00	
			         1.87500	0.00000e+00	
			         1.87667	0.00000e+00	
			         1.87833	0.00000e+00	
			         1.88000	0.00000e+00	
			         1.88167	0.00000e+00	
			         1.88333	0.00000e+00	
			         1.88500	0.00000e+00	
			         1.88667	0.00000e+00	
			         1.88833	0.00000e+00	
			         1.89000	1.00000e+00	
			         1.89167	1.00000e+00	
			         1.89333	1.00000e+00	
			         1.89500	2.00000e+00	
			         1.89667	3.00000e+00	
			         1.89833	3.00000e+00	
			         1.90000	4.00000e+00	
			         1.90167	4.00000e+00	
			         1.90333	4.00000e+00	
			         1.90500	4.00000e+00	
			         1.90667	4.00000e+00	
			         1.90833	3.00000e+00	
			         1.91000	3.00000e+00	
			         1.91167	2.00000e+00	
			         1.91333	2.00000e+00	
			         1.91500	1.00000e+00	
			         1.91667	1.00000e+00	
			         1.91833	0.00000e+00	
			         1.92000	0.00000e+00	
			         1.92167	0.00000e+00	
			         1.92333	0.00000e+00	
			         1.92500	-1.00000e+00	
			         1.92667	-1.00000e+00	
			         1.92833	-1.00000e+00	
			         1.93000	-1.00000e+00	
			         1.93167	-1.00000e+00	
			         1.93333	-1.00000e+00	
			         1.93500	-1.00000e+00	
			         1.93667	-1.00000e+00	
			         1.93833	-1.00000e+00	
			         1.94000	-1.00000e+00	
			         1.94167	-1.00000e+00	
			         1.94333	-1.00000e+00	
			         1.94500	0.00000e+00	
			         1.94667	0.00000e+00	
			         1.94833	1.00000e+00	
			         1.95000	1.00000e+00	
			         1.95167	2.00000e+00	
			         1.95333	2.00000e+00	
			         1.95500	3.00000e+00	
			         1.95667	3.00000e+00	
			         1.95833	3.00000e+00	
			         1.96000	4.00000e+00	
			         1.96167	4.00000e+00	
			         1.96333	4.00000e+00	
			         1.96500	4.00000e+00	
			         1.96667	5.00000e+00	
			         1.96833	5.00000e+00	
			         1.97000	5.00000e+00	
			         1.97167	5.00000e+00	
			         1.97333	5.00000e+00	
			         1.97500	5.00000e+00	
			         1.97667	5.00000e+00	
			         1.97833	5.00000e+00	
			         1.98000	5.00000e+00	
			         1.98167	5.00000e+00	
			         1.98333	4.00000e+00	
			         1.98500	4.00000e+00	
			         1.98667	4.00000e+00	
			         1.98833	4.00000e+00	
			         1.99000	3.00000e+00	
			         1.99167	3.00000e+00	
			         1.99333	3.00000e+00	
			         1.99500	3.00000e+00	
			         1.99667	3.00000e+00	
			         1.99833	2.00000e+00	
			         2.00000	2.00000e+00	
			         2.00167	2.00000e+00	
			         2.00333	2.00000e+00	
			         2.00500	2.00000e+00	
			         2.00667	2.00000e+00	
			         2.00833	2.00000e+00	
			         2.01000	1.00000e+00	
			         2.01167	1.00000e+00	
			         2.01333	1.00000e+00	
			         2.01500	1.00000e+00	
			         2.01667	1.00000e+00	
			         2.01833	1.00000e+00	
			         2.02000	1.00000e+00	
			         2.02167	2.00000e+00	
			         2.02333	2.00000e+00	
			         2.02500	2.00000e+00	
			         2.02667	2.00000e+00	
			         2.02833	2.00000e+00	
			         2.03000	2.00000e+00	
			         2.03167	2.00000e+00	
			         2.03333	2.00000e+00	
			         2.03500	2.00000e+00	
			         2.03667	3.00000e+00	
			         2.03833	3.00000e+00	
			         2.04000	3.00000e+00	
			         2.04167	3.00000e+00	
			         2.04333	3.00000e+00	
			         2.04500	3.00000e+00	
			         2.04667	4.00000e+00	
			         2.04833	4.00000e+00	
			         2.05000	4.00000e+00	
			         2.05167	4.00000e+00	
			         2.05333	4.00000e+00	
			         2.05500	4.00000e+00	
			         2.05667	4.00000e+00	
			         2.05833	4.00000e+00	
			         2.06000	3.00000e+00	
			         2.06167	3.00000e+00	
			         2.06333	3.00000e+00	
			         2.06500	3.00000e+00	
			         2.06667	3.00000e+00	
			         2.06833	3.00000e+00	
			         2.07000	3.00000e+00	
			         2.07167	3.00000e+00	
			         2.07333	3.00000e+00	
			         2.07500	4.00000e+00	
			         2.07667	4.00000e+00	
			         2.07833	5.00000e+00	
			         2.08000	5.00000e+00	
			         2.08167	6.00000e+00	
			         2.08333	7.00000e+00	
			         2.08500	8.00000e+00	
			         2.08667	9.00000e+00	
			         2.08833	9.00000e+00	
			         2.09000	1.00000e+01	
			         2.09167	1.10000e+01	
			         2.09333	1.10000e+01	
			         2.09500	1.10000e+01	
			         2.09667	1.20000e+01	
			         2.09833	1.20000e+01	
			         2.10000	1.20000e+01	
			         2.10167	1.20000e+01	
			         2.10333	1.20000e+01	
			         2.10500	1.20000e+01	
			         2.10667	1.20000e+01	
			         2.10833	1.20000e+01	
			         2.11000	1.30000e+01	
			         2.11167	1.30000e+01	
			         2.11333	1.40000e+01	
			         2.11500	1.40000e+01	
			         2.11667	1.50000e+01	
			         2.11833	1.50000e+01	
			         2.12000	1.60000e+01	
			         2.12167	1.60000e+01	
			         2.12333	1.70000e+01	
			         2.12500	1.70000e+01	
			         2.12667	1.80000e+01	
			         2.12833	1.80000e+01	
			         2.13000	1.80000e+01	
			         2.13167	1.80000e+01	
			         2.13333	1.70000e+01	
			         2.13500	1.70000e+01	
			         2.13667	1.60000e+01	
			         2.13833	1.60000e+01	
			         2.14000	1.50000e+01	
			         2.14167	1.40000e+01	
			         2.14333	1.30000e+01	
			         2.14500	1.30000e+01	
			         2.14667	1.20000e+01	
			         2.14833	1.10000e+01	
			         2.15000	1.00000e+01	
			         2.15167	9.00000e+00	
			         2.15333	8.00000e+00	
			         2.15500	7.00000e+00	
			         2.15667	7.00000e+00	
			         2.15833	6.00000e+00	
			         2.16000	5.00000e+00	
			         2.16167	4.00000e+00	
			         2.16333	3.00000e+00	
			         2.16500	2.00000e+00	
			         2.16667	2.00000e+00	
			         2.16833	1.00000e+00	
			         2.17000	0.00000e+00	
			         2.17167	-1.00000e+00	
			         2.17333	-2.00000e+00	
			         2.17500	-4.00000e+00	
			         2.17667	-5.00000e+00	
			         2.17833	-6.00000e+00	
			         2.18000	-8.00000e+00	
			         2.18167	-9.00000e+00	
			         2.18333	-1.00000e+01	
			         2.18500	-1.10000e+01	
			         2.18667	-1.20000e+01	
			         2.18833	-1.20000e+01	
			         2.19000	-1.30000e+01	
			         2.19167	-1.30000e+01	
			         2.19333	-1.30000e+01	
			         2.19500	-1.30000e+01	
			         2.19667	-1.30000e+01	
			         2.19833	-1.30000e+01	
			         2.20000	-1.20000e+01	
			         2.20167	-1.20000e+01	
			         2.20333	-1.20000e+01	
			         2.20500	-1.20000e+01	
			         2.20667	-1.20000e+01	
			         2.20833	-1.20000e+01	
			         2.21000	-1.30000e+01	
			         2.21167	-1.40000e+01	
			         2.21333	-1.50000e+01	
			         2.21500	-1.60000e+01	
			         2.21667	-1.80000e+01	
			         2.21833	-2.00000e+01	
			         2.22000	-2.30000e+01	
			         2.22167	-2.60000e+01	
			         2.22333	-3.00000e+01	
			         2.22500	-3.30000e+01	
			         2.22667	-3.70000e+01	
			         2.22833	-4.00000e+01	
			         2.23000	-4.30000e+01	
			         2.23167	-4.40000e+01	
			         2.23333	-4.40000e+01	
			         2.23500	-4.10000e+01	
			         2.23667	-3.60000e+01	
			         2.23833	-2.70000e+01	
			         2.24000	-1.50000e+01	
			         2.24167	1.00000e+00	
			         2.24333	2.10000e+01	
			         2.24500	4.50000e+01	
			         2.24667	7.20000e+01	
			         2.24833	1.02000e+02	
			         2.25000	1.34000e+02	
			         2.25167	1.66000e+02	
			         2.25333	1.97000e+02	
			         2.25500	2.27000e+02	
			         2.25667	2.54000e+02	
			         2.25833	2.76000e+02	
			         2.26000	2.93000e+02	
			         2.26167	3.03000e+02	
			         2.26333	3.05000e+02	
			         2.26500	3.00000e+02	
			         2.26667	2.88000e+02	
			         2.26833	2.69000e+02	
			         2.27000	2.45000e+02	
			         2.27167	2.17000e+02	
			         2.27333	1.85000e+02	
			         2.27500	1.50000e+02	
			         2.27667	1.15000e+02	
			         2.27833	8.00000e+01	
			         2.28000	4.60000e+01	
			         2.28167	1.50000e+01	
			         2.28333	-1.30000e+01	
			         2.28500	-3.70000e+01	
			         2.28667	-5.80000e+01	
			         2.28833	-7.50000e+01	
			         2.29000	-8.90000e+01	
			         2.29167	-9.90000e+01	
			         2.29333	-1.06000e+02	
			         2.29500	-1.10000e+02	
			         2.29667	-1.12000e+02	
			         2.29833	-1.12000e+02	
			         2.30000	-1.10000e+02	
			         2.30167	-1.07000e+02	
			         2.30333	-1.03000e+02	
			         2.30500	-9.80000e+01	
			         2.30667	-9.20000e+01	
			         2.30833	-8.70000e+01	
			         2.31000	-8.10000e+01	
			         2.31167	-7.60000e+01	
			         2.31333	-7.20000e+01	
			         2.31500	-6.80000e+01	
			         2.31667	-6.40000e+01	
			         2.31833	-6.10000e+01	
			         2.32000	-5.90000e+01	
			         2.32167	-5.70000e+01	
			         2.32333	-5.50000e+01	
			         2.32500	-5.40000e+01	
			         2.32667	-5.30000e+01	
			         2.32833	-5.20000e+01	
			         2.33000	-5.10000e+01	
			         2.33167	-5.00000e+01	
			         2.33333	-4.90000e+01	
			         2.33500	-4.80000e+01	
			         2.33667	-4.70000e+01	
			         2.33833	-4.60000e+01	
			         2.34000	-4.50000e+01	
			         2.34167	-4.40000e+01	
			         2.34333	-4.30000e+01	
			         2.34500	-4.20000e+01	
			         2.34667	-4.00000e+01	
			         2.34833	-3.90000e+01	
			         2.35000	-3.90000e+01	
			         2.35167	-3.80000e+01	
			         2.35333	-3.70000e+01	
			         2.35500	-3.60000e+01	
			         2.35667	-3.60000e+01	
			         2.35833	-3.50000e+01	
			         2.36000	-3.50000e+01	
			         2.36167	-3.40000e+01	
			         2.36333	-3.30000e+01	
			         2.36500	-3.20000e+01	
			         2.36667	-3.20000e+01	
			         2.36833	-3.10000e+01	
			         2.37000	-3.00000e+01	
			         2.37167	-2.90000e+01	
			         2.37333	-2.90000e+01	
			         2.37500	-2.80000e+01	
			         2.37667	-2.80000e+01	
			         2.37833	-2.70000e+01	
			         2.38000	-2.70000e+01	
			         2.38167	-2.70000e+01	
			         2.38333	-2.70000e+01	
			         2.38500	-2.60000e+01	
			         2.38667	-2.60000e+01	
			         2.38833	-2.50000e+01	
			         2.39000	-2.50000e+01	
			         2.39167	-2.40000e+01	
			         2.39333	-2.30000e+01	
			         2.39500	-2.20000e+01	
			         2.39667	-2.00000e+01	
			         2.39833	-1.90000e+01	
			         2.40000	-1.80000e+01	
			         2.40167	-1.60000e+01	
			         2.40333	-1.50000e+01	
			         2.40500	-1.40000e+01	
			         2.40667	-1.30000e+01	
			         2.40833	-1.20000e+01	
			         2.41000	-1.10000e+01	
			         2.41167	-1.10000e+01	
			         2.41333	-1.00000e+01	
			         2.41500	-1.00000e+01	
			         2.41667	-9.00000e+00	
			         2.41833	-9.00000e+00	
			         2.42000	-9.00000e+00	
			         2.42167	-9.00000e+00	
			         2.42333	-9.00000e+00	
			         2.42500	-9.00000e+00	
			         2.42667	-8.00000e+00	
			         2.42833	-8.00000e+00	
			         2.43000	-7.00000e+00	
			         2.43167	-7.00000e+00	
			         2.43333	-6.00000e+00	
			         2.43500	-6.00000e+00	
			         2.43667	-6.00000e+00	
			         2.43833	-5.00000e+00	
			         2.44000	-5.00000e+00	
			         2.44167	-4.00000e+00	
			         2.44333	-4.00000e+00	
			         2.44500	-4.00000e+00	
			         2.44667	-3.00000e+00	
			         2.44833	-3.00000e+00	
			         2.45000	-3.00000e+00	
			         2.45167	-2.00000e+00	
			         2.45333	-2.00000e+00	
			         2.45500	-2.00000e+00	
			         2.45667	-1.00000e+00	
			         2.45833	-1.00000e+00	
			         2.46000	-1.00000e+00	
			         2.46167	-1.00000e+00	
			         2.46333	-1.00000e+00	
			         2.46500	-1.00000e+00	
			         2.46667	-1.00000e+00	
			         2.46833	-1.00000e+00	
			         2.47000	-1.00000e+00	
			         2.47167	-2.00000e+00	
			         2.47333	-2.00000e+00	
			         2.47500	-2.00000e+00	
			         2.47667	-2.00000e+00	
			         2.47833	-2.00000e+00	
			         2.48000	-1.00000e+00	
			         2.48167	-1.00000e+00	
			         2.48333	0.00000e+00	
			         2.48500	1.00000e+00	
			         2.48667	2.00000e+00	
			         2.48833	3.00000e+00	
			         2.49000	4.00000e+00	
			         2.49167	5.00000e+00	
			         2.49333	5.00000e+00	
			         2.49500	6.00000e+00	
			         2.49667	7.00000e+00	
			         2.49833	8.00000e+00	
			         2.50000	8.00000e+00	
			         2.50167	9.00000e+00	
			         2.50333	9.00000e+00	
			         2.50500	1.00000e+01	
			         2.50667	1.00000e+01	
			         2.50833	1.10000e+01	
			         2.51000	1.10000e+01	
			         2.51167	1.10000e+01	
			         2.51333	1.20000e+01	
			         2.51500	1.20000e+01	
			         2.51667	1.30000e+01	
			         2.51833	1.30000e+01	
			         2.52000	1.40000e+01	
			         2.52167	1.40000e+01	
			         2.52333	1.50000e+01	
			         2.52500	1.50000e+01	
			         2.52667	1.50000e+01	
			         2.52833	1.60000e+01	
			         2.53000	1.60000e+01	
			         2.53167	1.60000e+01	
			         2.53333	1.70000e+01	
			         2.53500	1.70000e+01	
			         2.53667	1.70000e+01	
			         2.53833	1.80000e+01	
			         2.54000	1.80000e+01	
			         2.54167	1.80000e+01	
			         2.54333	1.70000e+01	
			         2.54500	1.70000e+01	
			         2.54667	1.70000e+01	
			         2.54833	1.70000e+01	
			         2.55000	1.70000e+01	
			         2.55167	1.60000e+01	
			         2.55333	1.60000e+01	
			         2.55500	1.60000e+01	
			         2.55667	1.50000e+01	
			         2.55833	1.50000e+01	
			         2.56000	1.40000e+01	
			         2.56167	1.40000e+01	
			         2.56333	1.40000e+01	
			         2.56500	1.30000e+01	
			         2.56667	1.30000e+01	
			         2.56833	1.20000e+01	
			         2.57000	1.20000e+01	
			         2.57167	1.10000e+01	
			         2.57333	1.10000e+01	
			         2.57500	1.00000e+01	
			         2.57667	9.00000e+00	
			         2.57833	9.00000e+00	
			         2.58000	8.00000e+00	
			         2.58167	8.00000e+00	
			         2.58333	7.00000e+00	
			         2.58500	6.00000e+00	
			         2.58667	6.00000e+00	
			         2.58833	5.00000e+00	
			         2.59000	5.00000e+00	
			         2.59167	5.00000e+00	
			         2.59333	4.00000e+00	
			         2.59500	4.00000e+00	
			         2.59667	4.00000e+00	
			         2.59833	3.00000e+00	
			         2.60000	3.00000e+00	
			         2.60167	2.00000e+00	
			         2.60333	2.00000e+00	
			         2.60500	2.00000e+00	
			         2.60667	2.00000e+00	
			         2.60833	1.00000e+00	
			         2.61000	1.00000e+00	
			         2.61167	1.00000e+00	
			         2.61333	0.00000e+00	
			         2.61500	0.00000e+00	
			         2.61667	0.00000e+00	
			         2.61833	-1.00000e+00	
			         2.62000	-1.00000e+00	
			         2.62167	-1.00000e+00	
			         2.62333	-1.00000e+00	
			         2.62500	-1.00000e+00	
			         2.62667	-2.00000e+00	
			         2.62833	-2.00000e+00	
			         2.63000	-2.00000e+00	
			         2.63167	-2.00000e+00	
			         2.63333	-3.00000e+00	
			         2.63500	-3.00000e+00	
			         2.63667	-3.00000e+00	
			         2.63833	-3.00000e+00	
			         2.64000	-4.00000e+00	
			         2.64167	-4.00000e+00	
			         2.64333	-5.00000e+00	
			         2.64500	-5.00000e+00	
			         2.64667	-5.00000e+00	
			         2.64833	-6.00000e+00	
			         2.65000	-6.00000e+00	
			         2.65167	-6.00000e+00	
			         2.65333	-6.00000e+00	
			         2.65500	-7.00000e+00	
			         2.65667	-7.00000e+00	
			         2.65833	-7.00000e+00	
			         2.66000	-7.00000e+00	
			         2.66167	-8.00000e+00	
			         2.66333	-8.00000e+00	
			         2.66500	-8.00000e+00	
			         2.66667	-8.00000e+00	
			         2.66833	-8.00000e+00	
			         2.67000	-8.00000e+00	
			         2.67167	-8.00000e+00	
			         2.67333	-8.00000e+00	
			         2.67500	-8.00000e+00	
			         2.67667	-8.00000e+00	
			         2.67833	-8.00000e+00	
			         2.68000	-8.00000e+00	
			         2.68167	-9.00000e+00	
			         2.68333	-9.00000e+00	
			         2.68500	-9.00000e+00	
			         2.68667	-1.00000e+01	
			         2.68833	-1.00000e+01	
			         2.69000	-1.10000e+01	
			         2.69167	-1.10000e+01	
			         2.69333	-1.20000e+01	
			         2.69500	-1.20000e+01	
			         2.69667	-1.30000e+01	
			         2.69833	-1.30000e+01	
			         2.70000	-1.30000e+01	
			         2.70167	-1.30000e+01	
			         2.70333	-1.40000e+01	
			         2.70500	-1.40000e+01	
			         2.70667	-1.40000e+01	
			         2.70833	-1.30000e+01	
			         2.71000	-1.30000e+01	
			         2.71167	-1.20000e+01	
			         2.71333	-1.20000e+01	
			         2.71500	-1.10000e+01	
			         2.71667	-1.00000e+01	
			         2.71833	-1.00000e+01	
			         2.72000	-9.00000e+00	
			         2.72167	-8.00000e+00	
			         2.72333	-7.00000e+00	
			         2.72500	-7.00000e+00	
			         2.72667	-6.00000e+00	
			         2.72833	-5.00000e+00	
			         2.73000	-5.00000e+00	
			         2.73167	-4.00000e+00	
			         2.73333	-4.00000e+00	
			         2.73500	-4.00000e+00	
			         2.73667	-4.00000e+00	
			         2.73833	-4.00000e+00	
			         2.74000	-4.00000e+00	
			         2.74167	-4.00000e+00	
			         2.74333	-4.00000e+00	
			         2.74500	-4.00000e+00	
			         2.74667	-4.00000e+00	
			         2.74833	-4.00000e+00	
			         2.75000	-4.00000e+00	
			         2.75167	-4.00000e+00	
			         2.75333	-4.00000e+00	
			         2.75500	-4.00000e+00	
			         2.75667	-4.00000e+00	
			         2.75833	-3.00000e+00	
			         2.76000	-3.00000e+00	
			         2.76167	-2.00000e+00	
			         2.76333	-2.00000e+00	
			         2.76500	-1.00000e+00	
			         2.76667	0.00000e+00	
			         2.76833	0.00000e+00	
			         2.77000	1.00000e+00	
			         2.77167	1.00000e+00	
			         2.77333	2.00000e+00	
			         2.77500	2.00000e+00	
			         2.77667	2.00000e+00	
			         2.77833	2.00000e+00	
			         2.78000	2.00000e+00	
			         2.78167	2.00000e+00	
			         2.78333	2.00000e+00	
			         2.78500	2.00000e+00	
			         2.78667	2.00000e+00	
			         2.78833	2.00000e+00	
			         2.79000	1.00000e+00	
			         2.79167	1.00000e+00	
			         2.79333	1.00000e+00	
			         2.79500	1.00000e+00	
			         2.79667	2.00000e+00	
			         2.79833	2.00000e+00	
			         2.80000	2.00000e+00	
			         2.80167	2.00000e+00	
			         2.80333	2.00000e+00	
			         2.80500	2.00000e+00	
			         2.80667	2.00000e+00	
			         2.80833	2.00000e+00	
			         2.81000	2.00000e+00	
			         2.81167	2.00000e+00	
			         2.81333	1.00000e+00	
			         2.81500	1.00000e+00	
			         2.81667	1.00000e+00	
			         2.81833	0.00000e+00	
			         2.82000	0.00000e+00	
			         2.82167	-1.00000e+00	
			         2.82333	-1.00000e+00	
			         2.82500	-1.00000e+00	
			         2.82667	-2.00000e+00	
			         2.82833	-2.00000e+00	
			         2.83000	-2.00000e+00	
			         2.83167	-2.00000e+00	
			         2.83333	-2.00000e+00	
			         2.83500	-2.00000e+00	
			         2.83667	-2.00000e+00	
			         2.83833	-2.00000e+00	
			         2.84000	-2.00000e+00	
			         2.84167	-2.00000e+00	
			         2.84333	-2.00000e+00	
			         2.84500	-2.00000e+00	
			         2.84667	-2.00000e+00	
			         2.84833	-2.00000e+00	
			         2.85000	-2.00000e+00	
			         2.85167	-2.00000e+00	
			         2.85333	-3.00000e+00	
			         2.85500	-3.00000e+00	
			         2.85667	-4.00000e+00	
			         2.85833	-4.00000e+00	
			         2.86000	-5.00000e+00	
			         2.86167	-5.00000e+00	
			         2.86333	-5.00000e+00	
			         2.86500	-6.00000e+00	
			         2.86667	-6.00000e+00	
			         2.86833	-6.00000e+00	
			         2.87000	-6.00000e+00	
			         2.87167	-5.00000e+00	
			         2.87333	-5.00000e+00	
			         2.87500	-5.00000e+00	
			         2.87667	-4.00000e+00	
			         2.87833	-4.00000e+00	
			         2.88000	-4.00000e+00	
			         2.88167	-4.00000e+00	
			         2.88333	-4.00000e+00	
			         2.88500	-3.00000e+00	
			         2.88667	-3.00000e+00	
			         2.88833	-3.00000e+00	
			         2.89000	-3.00000e+00	
			         2.89167	-3.00000e+00	
			         2.89333	-3.00000e+00	
			         2.89500	-3.00000e+00	
			         2.89667	-3.00000e+00	
			         2.89833	-2.00000e+00	
			         2.90000	-2.00000e+00	
			         2.90167	-2.00000e+00	
			         2.90333	-2.00000e+00	
			         2.90500	-2.00000e+00	
			         2.90667	-2.00000e+00	
			         2.90833	-3.00000e+00	
			         2.91000	-3.00000e+00	
			         2.91167	-3.00000e+00	
			         2.91333	-3.00000e+00	
			         2.91500	-4.00000e+00	
			         2.91667	-4.00000e+00	
			         2.91833	-4.00000e+00	
			         2.92000	-4.00000e+00	
			         2.92167	-5.00000e+00	
			         2.92333	-4.00000e+00	
			         2.92500	-4.00000e+00	
			         2.92667	-4.00000e+00	
			         2.92833	-3.00000e+00	
			         2.93000	-3.00000e+00	
			         2.93167	-2.00000e+00	
			         2.93333	-2.00000e+00	
			         2.93500	-2.00000e+00	
			         2.93667	-2.00000e+00	
			         2.93833	-2.00000e+00	
			         2.94000	-1.00000e+00	
			         2.94167	-1.00000e+00	
			         2.94333	-1.00000e+00	
			         2.94500	-1.00000e+00	
			         2.94667	-1.00000e+00	
			         2.94833	-1.00000e+00	
			         2.95000	-1.00000e+00	
			         2.95167	-1.00000e+00	
			         2.95333	-1.00000e+00	
			         2.95500	-1.00000e+00	
			         2.95667	-1.00000e+00	
			         2.95833	-1.00000e+00	
			         2.96000	-1.00000e+00	
			         2.96167	-2.00000e+00	
			         2.96333	-2.00000e+00	
			         2.96500	-2.00000e+00	
			         2.96667	-2.00000e+00	
			         2.96833	-3.00000e+00	
			         2.97000	-3.00000e+00	
			         2.97167	-3.00000e+00	
			         2.97333	-3.00000e+00	
			         2.97500	-3.00000e+00	
			         2.97667	-2.00000e+00	
			         2.97833	-2.00000e+00	
			         2.98000	-2.00000e+00	
			         2.98167	-2.00000e+00	
			         2.98333	-2.00000e+00	
			         2.98500	-1.00000e+00	
			         2.98667	-1.00000e+00	
			         2.98833	-1.00000e+00	
			         2.99000	-1.00000e+00	
			         2.99167	-1.00000e+00	
			         2.99333	-1.00000e+00	
			         2.99500	-2.00000e+00	
			         2.99667	-2.00000e+00	
			         2.99833	-2.00000e+00	
			         3.00000	-3.00000e+00	
			         3.00167	-3.00000e+00	
			         3.00333	-3.00000e+00	
			         3.00500	-3.00000e+00	
			         3.00667	-3.00000e+00	
			         3.00833	-3.00000e+00	
			         3.01000	-2.00000e+00	
			         3.01167	-2.00000e+00	
			         3.01333	-1.00000e+00	
			         3.01500	0.00000e+00	
			         3.01667	1.00000e+00	
			         3.01833	2.00000e+00	
			         3.02000	3.00000e+00	
			         3.02167	3.00000e+00	
			         3.02333	4.00000e+00	
			         3.02500	5.00000e+00	
			         3.02667	5.00000e+00	
			         3.02833	5.00000e+00	
			         3.03000	4.00000e+00	
			         3.03167	4.00000e+00	
			         3.03333	3.00000e+00	
			         3.03500	3.00000e+00	
			         3.03667	2.00000e+00	
			         3.03833	1.00000e+00	
			         3.04000	1.00000e+00	
			         3.04167	0.00000e+00	
			         3.04333	0.00000e+00	
			         3.04500	-1.00000e+00	
			         3.04667	-1.00000e+00	
			         3.04833	-1.00000e+00	
			         3.05000	-1.00000e+00	
			         3.05167	-1.00000e+00	
			         3.05333	-1.00000e+00	
			         3.05500	-1.00000e+00	
			         3.05667	-1.00000e+00	
			         3.05833	-1.00000e+00	
			         3.06000	-1.00000e+00	
			         3.06167	-1.00000e+00	
			         3.06333	0.00000e+00	
			         3.06500	0.00000e+00	
			         3.06667	0.00000e+00	
			         3.06833	0.00000e+00	
			         3.07000	1.00000e+00	
			         3.07167	1.00000e+00	
			         3.07333	2.00000e+00	
			         3.07500	2.00000e+00	
			         3.07667	2.00000e+00	
			         3.07833	2.00000e+00	
			         3.08000	2.00000e+00	
			         3.08167	3.00000e+00	
			         3.08333	3.00000e+00	
			         3.08500	3.00000e+00	
			         3.08667	3.00000e+00	
			         3.08833	3.00000e+00	
			         3.09000	3.00000e+00	
			         3.09167	3.00000e+00	
			         3.09333	3.00000e+00	
			         3.09500	3.00000e+00	
			         3.09667	4.00000e+00	
			         3.09833	4.00000e+00	
			         3.10000	4.00000e+00	
			         3.10167	4.00000e+00	
			         3.10333	4.00000e+00	
			         3.10500	4.00000e+00	
			         3.10667	3.00000e+00	
			         3.10833	3.00000e+00	
			         3.11000	3.00000e+00	
			         3.11167	2.00000e+00	
			         3.11333	2.00000e+00	
			         3.11500	1.00000e+00	
			         3.11667	1.00000e+00	
			         3.11833	1.00000e+00	
			         3.12000	1.00000e+00	
			         3.12167	1.00000e+00	
			         3.12333	1.00000e+00	
			         3.12500	1.00000e+00	
			         3.12667	1.00000e+00	
			         3.12833	2.00000e+00	
			         3.13000	2.00000e+00	
			         3.13167	2.00000e+00	
			         3.13333	2.00000e+00	
			         3.13500	2.00000e+00	
			         3.13667	2.00000e+00	
			         3.13833	1.00000e+00	
			         3.14000	1.00000e+00	
			         3.14167	0.00000e+00	
			         3.14333	0.00000e+00	
			         3.14500	-1.00000e+00	
			         3.14667	-2.00000e+00	
			         3.14833	-3.00000e+00	
			         3.15000	-3.00000e+00	
			         3.15167	-4.00000e+00	
			         3.15333	-4.00000e+00	
			         3.15500	-5.00000e+00	
			         3.15667	-5.00000e+00	
			         3.15833	-5.00000e+00	
			         3.16000	-5.00000e+00	
			         3.16167	-5.00000e+00	
			         3.16333	-5.00000e+00	
			         3.16500	-4.00000e+00	
			         3.16667	-4.00000e+00	
			         3.16833	-3.00000e+00	
			         3.17000	-3.00000e+00	
			         3.17167	-3.00000e+00	
			         3.17333	-3.00000e+00	
			         3.17500	-3.00000e+00	
			         3.17667	-3.00000e+00	
			         3.17833	-4.00000e+00	
			         3.18000	-4.00000e+00	
			         3.18167	-5.00000e+00	
			         3.18333	-5.00000e+00	
			         3.18500	-6.00000e+00	
			         3.18667	-6.00000e+00	
			         3.18833	-7.00000e+00	
			         3.19000	-7.00000e+00	
			         3.19167	-8.00000e+00	
			         3.19333	-8.00000e+00	
			         3.19500	-8.00000e+00	
			         3.19667	-7.00000e+00	
			         3.19833	-7.00000e+00	
			         3.20000	-7.00000e+00	
			         3.20167	-6.00000e+00	
			         3.20333	-6.00000e+00	
			         3.20500	-6.00000e+00	
			         3.20667	-5.00000e+00	
			         3.20833	-4.00000e+00	
			         3.21000	-4.00000e+00	
			         3.21167	-3.00000e+00	
			         3.21333	-2.00000e+00	
			         3.21500	-2.00000e+00	
			         3.21667	-2.00000e+00	
			         3.21833	-1.00000e+00	
			         3.22000	-1.00000e+00	
			         3.22167	-1.00000e+00	
			         3.22333	-1.00000e+00	
			         3.22500	-1.00000e+00	
			         3.22667	0.00000e+00	
			         3.22833	0.00000e+00	
			         3.23000	0.00000e+00	
			         3.23167	0.00000e+00	
			         3.23333	1.00000e+00	
			         3.23500	1.00000e+00	
			         3.23667	2.00000e+00	
			         3.23833	3.00000e+00	
			         3.24000	4.00000e+00	
			         3.24167	5.00000e+00	
			         3.24333	6.00000e+00	
			         3.24500	7.00000e+00	
			         3.24667	9.00000e+00	
			         3.24833	1.00000e+01	
			         3.25000	1.00000e+01	
			         3.25167	1.10000e+01	
			         3.25333	1.20000e+01	
			         3.25500	1.20000e+01	
			         3.25667	1.20000e+01	
			         3.25833	1.20000e+01	
			         3.26000	1.20000e+01	
			         3.26167	1.20000e+01	
			         3.26333	1.20000e+01	
			         3.26500	1.20000e+01	
			         3.26667	1.10000e+01	
			         3.26833	1.10000e+01	
			         3.27000	1.00000e+01	
			         3.27167	1.00000e+01	
			         3.27333	9.00000e+00	
			         3.27500	8.00000e+00	
			         3.27667	8.00000e+00	
			         3.27833	8.00000e+00	
			         3.28000	7.00000e+00	
			         3.28167	6.00000e+00	
			         3.28333	6.00000e+00	
			         3.28500	5.00000e+00	
			         3.28667	5.00000e+00	
			         3.28833	4.00000e+00	
			         3.29000	3.00000e+00	
			         3.29167	2.00000e+00	
			         3.29333	2.00000e+00	
			         3.29500	1.00000e+00	
			         3.29667	0.00000e+00	
			         3.29833	-1.00000e+00	
			         3.30000	-2.00000e+00	
			         3.30167	-4.00000e+00	
			         3.30333	-5.00000e+00	
			         3.30500	-7.00000e+00	
			         3.30667	-8.00000e+00	
			         3.30833	-1.00000e+01	
			         3.31000	-1.20000e+01	
			         3.31167	-1.30000e+01	
			         3.31333	-1.50000e+01	
			         3.31500	-1.70000e+01	
			         3.31667	-1.80000e+01	
			         3.31833	-1.90000e+01	
			         3.32000	-2.00000e+01	
			         3.32167	-2.10000e+01	
			         3.32333	-2.20000e+01	
			         3.32500	-2.20000e+01	
			         3.32667	-2.20000e+01	
			         3.32833	-2.20000e+01	
			         3.33000	-2.20000e+01	
			         3.33167	-2.10000e+01	
			         3.33333	-2.10000e+01	
			         3.33500	-2.00000e+01	
			         3.33667	-2.00000e+01	
			         3.33833	-1.90000e+01	
			         3.34000	-1.90000e+01	
			         3.34167	-1.90000e+01	
			         3.34333	-1.90000e+01	
			         3.34500	-2.00000e+01	
			         3.34667	-2.10000e+01	
			         3.34833	-2.20000e+01	
			         3.35000	-2.40000e+01	
			         3.35167	-2.70000e+01	
			         3.35333	-3.00000e+01	
			         3.35500	-3.40000e+01	
			         3.35667	-3.80000e+01	
			         3.35833	-4.20000e+01	
			         3.36000	-4.50000e+01	
			         3.36167	-4.80000e+01	
			         3.36333	-5.00000e+01	
			         3.36500	-5.10000e+01	
			         3.36667	-4.90000e+01	
			         3.36833	-4.60000e+01	
			         3.37000	-3.90000e+01	
			         3.37167	-2.90000e+01	
			         3.37333	-1.60000e+01	
			         3.37500	1.00000e+00	
			         3.37667	2.20000e+01	
			         3.37833	4.60000e+01	
			         3.38000	7.20000e+01	
			         3.38167	1.00000e+02	
			         3.38333	1.29000e+02	
			         3.38500	1.58000e+02	
			         3.38667	1.86000e+02	
			         3.38833	2.11000e+02	
			         3.39000	2.33000e+02	
			         3.39167	2.50000e+02	
			         3.39333	2.61000e+02	
			         3.39500	2.65000e+02	
			         3.39667	2.63000e+02	
			         3.39833	2.54000e+02	
			         3.40000	2.38000e+02	
			         3.40167	2.18000e+02	
			         3.40333	1.93000e+02	
			         3.40500	1.64000e+02	
			         3.40667	1.33000e+02	
			         3.40833	1.01000e+02	
			         3.41000	6.80000e+01	
			         3.41167	3.70000e+01	
			         3.41333	8.00000e+00	
			         3.41500	-1.80000e+01	
			         3.41667	-4.10000e+01	
			         3.41833	-6.10000e+01	
			         3.42000	-7.60000e+01	
			         3.42167	-8.90000e+01	
			         3.42333	-9.70000e+01	
			         3.42500	-1.03000e+02	
			         3.42667	-1.06000e+02	
			         3.42833	-1.07000e+02	
			         3.43000	-1.05000e+02	
			         3.43167	-1.02000e+02	
			         3.43333	-9.70000e+01	
			         3.43500	-9.20000e+01	
			         3.43667	-8.60000e+01	
			         3.43833	-8.00000e+01	
			         3.44000	-7.40000e+01	
			         3.44167	-6.80000e+01	
			         3.44333	-6.20000e+01	
			         3.44500	-5.70000e+01	
			         3.44667	-5.30000e+01	
			         3.44833	-4.90000e+01	
			         3.45000	-4.60000e+01	
			         3.45167	-4.40000e+01	
			         3.45333	-4.10000e+01	
			         3.45500	-3.90000e+01	
			         3.45667	-3.80000e+01	
