Velocity (TVI), in cm/s

Time (s) :	Trace 1 : 		Ecg : 		
0.02359   	-2.69362e+00		         0.00000	-1.00000e+01	
0.02998   	-1.97661e+00		         0.00167	-8.00000e+00	
0.03610   	-1.05567e+00		         0.00333	-7.00000e+00	
0.04222   	-1.24313e-02		         0.00500	-6.00000e+00	
0.04835   	1.28626e+00		         0.00667	-4.00000e+00	
0.05474   	2.44908e+00		         0.00833	-2.00000e+00	
0.06086   	1.95975e+00		         0.01000	0.00000e+00	
0.06698   	1.36619e+00		         0.01167	2.00000e+00	
0.07310   	8.63210e-01		         0.01333	6.00000e+00	
0.07949   	3.78122e-01		         0.01500	1.00000e+01	
0.08562   	5.36352e-01		         0.01667	1.70000e+01	
0.09174   	1.93895e+00		         0.01833	2.60000e+01	
0.09786   	3.02264e+00		         0.02000	3.70000e+01	
0.10425   	4.10524e+00		         0.02167	5.10000e+01	
0.11037   	5.09839e+00		         0.02333	6.80000e+01	
0.11649   	5.72289e+00		         0.02500	8.70000e+01	
0.12261   	6.05187e+00		         0.02667	1.09000e+02	
0.12901   	6.27001e+00		         0.02833	1.31000e+02	
0.13513   	6.28564e+00		         0.03000	1.54000e+02	
0.14125   	6.06113e+00		         0.03167	1.76000e+02	
0.14737   	5.77207e+00		         0.03333	1.96000e+02	
0.15376   	5.55020e+00		         0.03500	2.13000e+02	
0.15989   	5.31910e+00		         0.03667	2.26000e+02	
0.16600   	5.07228e+00		         0.03833	2.34000e+02	
0.17223   	5.06324e+00		         0.04000	2.36000e+02	
0.17852   	5.09330e+00		         0.04167	2.32000e+02	
0.18464   	5.08522e+00		         0.04333	2.22000e+02	
0.19076   	5.13421e+00		         0.04500	2.07000e+02	
0.19688   	5.25003e+00		         0.04667	1.87000e+02	
0.20327   	5.20692e+00		         0.04833	1.63000e+02	
0.20939   	5.12272e+00		         0.05000	1.36000e+02	
0.21552   	5.09803e+00		         0.05167	1.08000e+02	
0.22164   	4.98561e+00		         0.05333	7.90000e+01	
0.22803   	4.87558e+00		         0.05500	5.10000e+01	
0.23415   	4.82979e+00		         0.05667	2.40000e+01	
0.24027   	4.74597e+00		         0.05833	0.00000e+00	
0.24639   	4.61498e+00		         0.06000	-2.20000e+01	
0.25278   	4.52922e+00		         0.06167	-4.10000e+01	
0.25891   	4.38153e+00		         0.06333	-5.70000e+01	
0.26503   	4.18738e+00		         0.06500	-6.90000e+01	
0.27115   	4.05784e+00		         0.06667	-7.90000e+01	
0.27754   	3.89147e+00		         0.06833	-8.60000e+01	
0.28366   	3.72577e+00		         0.07000	-9.10000e+01	
0.28978   	3.58695e+00		         0.07167	-9.40000e+01	
0.29591   	3.54996e+00		         0.07333	-9.60000e+01	
0.30230   	3.39689e+00		         0.07500	-9.50000e+01	
0.30842   	3.30157e+00		         0.07667	-9.40000e+01	
0.31454   	3.19014e+00		         0.07833	-9.20000e+01	
0.32066   	3.11632e+00		         0.08000	-8.90000e+01	
0.32706   	2.86479e+00		         0.08167	-8.60000e+01	
0.33318   	2.72833e+00		         0.08333	-8.20000e+01	
0.33929   	2.51811e+00		         0.08500	-7.90000e+01	
0.34542   	2.31702e+00		         0.08667	-7.50000e+01	
0.35181   	2.09117e+00		         0.08833	-7.20000e+01	
0.35793   	1.91181e+00		         0.09000	-6.90000e+01	
0.36405   	1.68487e+00		         0.09167	-6.60000e+01	
0.37017   	1.43293e+00		         0.09333	-6.40000e+01	
0.37657   	1.12183e+00		         0.09500	-6.10000e+01	
0.38269   	7.40971e-01		         0.09667	-5.90000e+01	
0.38881   	2.78197e-01		         0.09833	-5.70000e+01	
0.39493   	-3.04733e-01		         0.10000	-5.50000e+01	
0.40132   	-9.20500e-01		         0.10167	-5.40000e+01	
0.40744   	-1.28744e+00		         0.10333	-5.20000e+01	
0.41356   	-1.32671e+00		         0.10500	-5.10000e+01	
0.41968   	-1.12458e+00		         0.10667	-4.90000e+01	
0.42608   	-4.47268e-01		         0.10833	-4.80000e+01	
0.43220   	3.63068e-01		         0.11000	-4.60000e+01	
0.43832   	9.88516e-01		         0.11167	-4.50000e+01	
0.44444   	1.58047e+00		         0.11333	-4.40000e+01	
0.45083   	1.96097e+00		         0.11500	-4.20000e+01	
0.45695   	2.09680e+00		         0.11667	-4.10000e+01	
0.46308   	2.15545e+00		         0.11833	-3.90000e+01	
0.46920   	2.29329e+00		         0.12000	-3.80000e+01	
0.47559   	2.19855e+00		         0.12167	-3.70000e+01	
0.48171   	1.98549e+00		         0.12333	-3.60000e+01	
0.48822   	1.78288e+00		         0.12500	-3.40000e+01	
0.49395   	1.44279e+00		         0.12667	-3.30000e+01	
0.50035   	8.68305e-01		         0.12833	-3.20000e+01	
0.50647   	1.88089e-02		         0.13000	-3.10000e+01	
0.51259   	-6.22558e-01		         0.13167	-2.90000e+01	
0.51871   	-1.58788e+00		         0.13333	-2.80000e+01	
0.52510   	-2.44182e+00		         0.13500	-2.70000e+01	
0.53122   	-3.17078e+00		         0.13667	-2.60000e+01	
0.53758   	-3.66748e+00		         0.13833	-2.50000e+01	
0.54347   	-4.20358e+00		         0.14000	-2.50000e+01	
0.54986   	-4.49222e+00		         0.14167	-2.40000e+01	
0.55598   	-4.67537e+00		         0.14333	-2.40000e+01	
0.56210   	-4.76850e+00		         0.14500	-2.30000e+01	
0.56822   	-4.74160e+00		         0.14667	-2.30000e+01	
0.57461   	-4.58470e+00		         0.14833	-2.20000e+01	
0.58074   	-4.36499e+00		         0.15000	-2.20000e+01	
0.58686   	-4.10375e+00		         0.15167	-2.20000e+01	
0.59298   	-3.83513e+00		         0.15333	-2.10000e+01	
0.59937   	-3.58426e+00		         0.15500	-2.00000e+01	
0.60549   	-3.39864e+00		         0.15667	-2.00000e+01	
0.61161   	-3.22959e+00		         0.15833	-1.90000e+01	
0.61773   	-3.01896e+00		         0.16000	-1.80000e+01	
0.62413   	-2.78569e+00		         0.16167	-1.80000e+01	
0.63025   	-2.57536e+00		         0.16333	-1.70000e+01	
0.63637   	-2.33827e+00		         0.16500	-1.60000e+01	
0.64249   	-2.05544e+00		         0.16667	-1.50000e+01	
0.64888   	-1.83549e+00		         0.16833	-1.40000e+01	
0.65500   	-1.64587e+00		         0.17000	-1.30000e+01	
0.66113   	-1.40681e+00		         0.17167	-1.30000e+01	
0.66724   	-1.17139e+00		         0.17333	-1.20000e+01	
0.67364   	-9.26355e-01		         0.17500	-1.20000e+01	
0.67976   	-6.92911e-01		         0.17667	-1.10000e+01	
0.68588   	-4.27271e-01		         0.17833	-1.10000e+01	
0.69200   	-1.94773e-01		         0.18000	-1.10000e+01	
0.69839   	3.59287e-02		         0.18167	-1.10000e+01	
0.70451   	1.36725e-01		         0.18333	-1.00000e+01	
0.71064   	1.99809e-01		         0.18500	-1.00000e+01	
0.71676   	1.99768e-01		         0.18667	-1.00000e+01	
0.72315   	1.62216e-01		         0.18833	-1.00000e+01	
0.72927   	9.55531e-02		         0.19000	-1.00000e+01	
0.73539   	3.11391e-02		         0.19167	-1.00000e+01	
0.74151   	-3.35552e-02		         0.19333	-9.00000e+00	
0.74791   	-7.97655e-02		         0.19500	-9.00000e+00	
0.75403   	-1.07453e-01		         0.19667	-9.00000e+00	
0.76015   	-1.69037e-01		         0.19833	-8.00000e+00	
0.76627   	-2.10682e-01		         0.20000	-7.00000e+00	
0.77266   	-2.27557e-01		         0.20167	-7.00000e+00	
0.77878   	-2.77331e-01		         0.20333	-6.00000e+00	
0.78490   	-3.03276e-01		         0.20500	-6.00000e+00	
0.79103   	-3.23147e-01		         0.20667	-5.00000e+00	
0.79742   	-3.26049e-01		         0.20833	-4.00000e+00	
0.80354   	-3.45657e-01		         0.21000	-4.00000e+00	
0.80966   	-3.41249e-01		         0.21167	-3.00000e+00	
0.81578   	-3.37795e-01		         0.21333	-2.00000e+00	
0.82217   	-3.38102e-01		         0.21500	-2.00000e+00	
0.82830   	-3.30077e-01		         0.21667	-1.00000e+00	
0.83442   	-3.55685e-01		         0.21833	-1.00000e+00	
0.84054   	-3.80722e-01		         0.22000	-1.00000e+00	
0.84693   	-4.29677e-01		         0.22167	0.00000e+00	
0.85327   	-4.51685e-01		         0.22333	0.00000e+00	
0.85917   	-4.77287e-01		         0.22500	0.00000e+00	
0.86529   	-4.73975e-01		         0.22667	0.00000e+00	
0.87169   	-4.65233e-01		         0.22833	1.00000e+00	
0.87781   	-4.51048e-01		         0.23000	1.00000e+00	
0.88393   	-4.51279e-01		         0.23167	1.00000e+00	
0.89005   	-4.52484e-01		         0.23333	1.00000e+00	
0.89645   	-4.53158e-01		         0.23500	1.00000e+00	
0.90256   	-4.58452e-01		         0.23667	1.00000e+00	
0.90869   	-4.55793e-01		         0.23833	1.00000e+00	
0.91481   	-4.44194e-01		         0.24000	1.00000e+00	
0.92120   	-4.51488e-01		         0.24167	2.00000e+00	
0.92732   	-4.81192e-01		         0.24333	2.00000e+00	
0.93344   	-5.49334e-01		         0.24500	3.00000e+00	
0.93956   	-7.43744e-01		         0.24667	3.00000e+00	
0.94595   	-1.06145e+00		         0.24833	4.00000e+00	
0.95208   	-1.48617e+00		         0.25000	4.00000e+00	
0.95820   	-2.15141e+00		         0.25167	5.00000e+00	
0.96432   	-2.89129e+00		         0.25333	5.00000e+00	
0.97071   	-3.70437e+00		         0.25500	6.00000e+00	
0.97683   	-4.59845e+00		         0.25667	6.00000e+00	
0.98295   	-5.44517e+00		         0.25833	7.00000e+00	
0.98908   	-6.25847e+00		         0.26000	7.00000e+00	
0.99547   	-7.03266e+00		         0.26167	7.00000e+00	
1.00159   	-7.59923e+00		         0.26333	7.00000e+00	
1.00771   	-8.20336e+00		         0.26500	8.00000e+00	
1.01383   	-8.49375e+00		         0.26667	8.00000e+00	
1.02022   	-8.48361e+00		         0.26833	8.00000e+00	
1.02634   	-8.24171e+00		         0.27000	9.00000e+00	
1.03246   	-7.77914e+00		         0.27167	1.00000e+01	
1.03859   	-6.90484e+00		         0.27333	1.00000e+01	
1.04498   	-5.97970e+00		         0.27500	1.10000e+01	
1.05110   	-4.97222e+00		         0.27667	1.20000e+01	
1.05722   	-4.02205e+00		         0.27833	1.30000e+01	
1.06334   	-3.45322e+00		         0.28000	1.40000e+01	
1.06973   	-2.99658e+00		         0.28167	1.50000e+01	
1.07586   	-2.49488e+00		         0.28333	1.60000e+01	
1.08198   	-2.17282e+00		         0.28500	1.70000e+01	
1.08810   	-2.12706e+00		         0.28667	1.80000e+01	
1.09449   	-1.48331e+00		         0.28833	1.90000e+01	
1.10061   	-5.40289e-01		         0.29000	2.00000e+01	
1.10673   	5.01790e-01		         0.29167	2.00000e+01	
1.11286   	1.66110e+00		         0.29333	2.10000e+01	
1.11924   	2.56078e+00		         0.29500	2.20000e+01	
1.12537   	2.34725e+00		         0.29667	2.30000e+01	
1.13149   	1.82732e+00		         0.29833	2.30000e+01	
1.13761   	8.85619e-01		         0.30000	2.40000e+01	
1.14400   	1.47578e-01		         0.30167	2.50000e+01	
1.15012   	2.66027e-01		         0.30333	2.50000e+01	
1.15624   	1.30250e+00		         0.30500	2.60000e+01	
1.16237   	2.51289e+00		         0.30667	2.60000e+01	
1.16876   	3.79401e+00		         0.30833	2.70000e+01	
1.17488   	4.81752e+00		         0.31000	2.70000e+01	
1.18100   	5.51876e+00		         0.31167	2.80000e+01	
1.18712   	5.90852e+00		         0.31333	2.90000e+01	
1.19351   	6.06455e+00		         0.31500	2.90000e+01	
1.19963   	5.98953e+00		         0.31667	3.00000e+01	
1.20576   	5.93966e+00		         0.31833	3.00000e+01	
1.21188   	5.74683e+00		         0.32000	3.10000e+01	
1.21827   	5.58008e+00		         0.32167	3.10000e+01	
1.22439   	5.32998e+00		         0.32333	3.10000e+01	
1.23051   	5.24833e+00		         0.32500	3.20000e+01	
1.23663   	5.17155e+00		         0.32667	3.20000e+01	
1.24303   	5.18337e+00		         0.32833	3.30000e+01	
1.24915   	5.12076e+00		         0.33000	3.30000e+01	
1.25527   	5.14542e+00		         0.33167	3.30000e+01	
1.26139   	5.14456e+00		         0.33333	3.40000e+01	
1.26778   	5.03998e+00		         0.33500	3.40000e+01	
1.27390   	4.87516e+00		         0.33667	3.50000e+01	
1.28003   	4.75842e+00		         0.33833	3.50000e+01	
1.28614   	4.60936e+00		         0.34000	3.60000e+01	
1.29254   	4.50690e+00		         0.34167	3.60000e+01	
1.29866   	4.43436e+00		         0.34333	3.70000e+01	
1.30478   	4.35556e+00		         0.34500	3.70000e+01	
1.31090   	4.32867e+00		         0.34667	3.60000e+01	
1.31751   	4.32254e+00		         0.34833	3.60000e+01	
1.32342   	4.24750e+00		         0.35000	3.50000e+01	
1.32954   	4.14940e+00		         0.35167	3.50000e+01	
1.33566   	3.99926e+00		         0.35333	3.40000e+01	
1.34205   	3.82261e+00		         0.35500	3.20000e+01	
1.34817   	3.70384e+00		         0.35667	3.10000e+01	
1.35429   	3.56736e+00		         0.35833	2.90000e+01	
1.36041   	3.41834e+00		         0.36000	2.80000e+01	
1.36681   	3.36830e+00		         0.36167	2.60000e+01	
1.37293   	3.27502e+00		         0.36333	2.40000e+01	
1.37905   	3.12866e+00		         0.36500	2.30000e+01	
1.38517   	2.93921e+00		         0.36667	2.10000e+01	
1.39156   	2.74747e+00		         0.36833	1.90000e+01	
1.39768   	2.55260e+00		         0.37000	1.80000e+01	
1.40380   	2.37830e+00		         0.37167	1.60000e+01	
1.40993   	2.16342e+00		         0.37333	1.40000e+01	
1.41632   	1.99528e+00		         0.37500	1.20000e+01	
1.42244   	1.86431e+00		         0.37667	1.00000e+01	
1.42856   	1.64772e+00		         0.37833	8.00000e+00	
1.43468   	1.41940e+00		         0.38000	6.00000e+00	
1.44108   	1.11973e+00		         0.38167	4.00000e+00	
1.44719   	7.58040e-01		         0.38333	1.00000e+00	
1.45332   	2.88896e-01		         0.38500	-1.00000e+00	
1.45944   	-3.15197e-01		         0.38667	-3.00000e+00	
1.46583   	-9.30206e-01		         0.38833	-6.00000e+00	
1.47195   	-1.49620e+00		         0.39000	-8.00000e+00	
1.47807   	-1.57869e+00		         0.39167	-1.00000e+01	
1.48419   	-1.10957e+00		         0.39333	-1.20000e+01	
1.49059   	-3.22467e-01		         0.39500	-1.40000e+01	
1.49671   	5.41601e-01		         0.39667	-1.60000e+01	
1.50283   	1.38149e+00		         0.39833	-1.80000e+01	
1.50895   	2.07183e+00		         0.40000	-2.00000e+01	
1.51534   	2.20998e+00		         0.40167	-2.10000e+01	
1.52147   	2.15574e+00		         0.40333	-2.20000e+01	
1.52759   	2.20678e+00		         0.40500	-2.40000e+01	
1.53371   	2.37703e+00		         0.40667	-2.50000e+01	
1.54010   	2.22081e+00		         0.40833	-2.60000e+01	
1.54622   	2.04372e+00		         0.41000	-2.70000e+01	
1.55234   	1.72649e+00		         0.41167	-2.90000e+01	
1.55846   	1.26567e+00		         0.41333	-3.00000e+01	
1.56485   	7.47554e-01		         0.41500	-3.10000e+01	
1.57098   	-2.29656e-02		         0.41667	-3.20000e+01	
1.57710   	-8.13629e-01		         0.41833	-3.30000e+01	
1.58335   	-1.50042e+00		         0.42000	-3.30000e+01	
1.58961   	-2.20937e+00		         0.42167	-3.40000e+01	
1.59573   	-3.00550e+00		         0.42333	-3.50000e+01	
1.60185   	-3.51816e+00		         0.42500	-3.50000e+01	
1.60798   	-3.97381e+00		         0.42667	-3.50000e+01	
1.61437   	-4.28079e+00		         0.42833	-3.50000e+01	
1.62049   	-4.59153e+00		         0.43000	-3.50000e+01	
1.62661   	-4.75123e+00		         0.43167	-3.50000e+01	
1.63273   	-4.78327e+00		         0.43333	-3.40000e+01	
1.63912   	-4.61605e+00		         0.43500	-3.40000e+01	
1.64524   	-4.46517e+00		         0.43667	-3.30000e+01	
1.65136   	-4.19139e+00		         0.43833	-3.20000e+01	
1.65749   	-3.90017e+00		         0.44000	-3.20000e+01	
1.66388   	-3.61565e+00		         0.44167	-3.10000e+01	
1.67000   	-3.40662e+00		         0.44333	-3.00000e+01	
1.67612   	-3.12395e+00		         0.44500	-2.90000e+01	
1.68224   	-2.89507e+00		         0.44667	-2.80000e+01	
1.68864   	-2.66935e+00		         0.44833	-2.70000e+01	
1.69476   	-2.49111e+00		         0.45000	-2.60000e+01	
1.70088   	-2.28321e+00		         0.45167	-2.50000e+01	
1.70700   	-2.13050e+00		         0.45333	-2.40000e+01	
1.71339   	-1.87061e+00		         0.45500	-2.30000e+01	
1.71951   	-1.63476e+00		         0.45667	-2.20000e+01	
1.72563   	-1.36642e+00		         0.45833	-2.10000e+01	
1.73175   	-1.09116e+00		         0.46000	-2.00000e+01	
1.73815   	-8.16523e-01		         0.46167	-1.90000e+01	
1.74427   	-6.18440e-01		         0.46333	-1.90000e+01	
1.75039   	-4.11296e-01		         0.46500	-1.80000e+01	
1.75651   	-2.21497e-01		         0.46667	-1.70000e+01	
1.76290   	-5.71268e-02		         0.46833	-1.70000e+01	
1.76902   	4.25480e-02		         0.47000	-1.60000e+01	
1.77515   	1.10686e-01		         0.47167	-1.60000e+01	
1.78127   	1.48707e-01		         0.47333	-1.50000e+01	
1.78766   	1.49002e-01		         0.47500	-1.50000e+01	
1.79378   	1.20520e-01		         0.47667	-1.50000e+01	
1.79990   	9.26851e-02		         0.47833	-1.40000e+01	
1.80602   	4.48818e-02		         0.48000	-1.40000e+01	
1.81242   	-9.98408e-04		         0.48167	-1.30000e+01	
1.81854   	-6.40086e-02		         0.48333	-1.30000e+01	
1.82466   	-1.52621e-01		         0.48500	-1.30000e+01	
1.83078   	-2.34216e-01		         0.48667	-1.20000e+01	
1.83718   	-3.05301e-01		         0.48833	-1.20000e+01	
1.84329   	-3.64831e-01		         0.49000	-1.10000e+01	
1.84941   	-3.85587e-01		         0.49167	-1.10000e+01	
1.85553   	-3.82584e-01		         0.49333	-1.00000e+01	
1.86193   	-3.74412e-01		         0.49500	-9.00000e+00	
1.86805   	-3.54456e-01		         0.49667	-9.00000e+00	
1.87417   	-3.29935e-01		         0.49833	-8.00000e+00	
1.88029   	-3.19722e-01		         0.50000	-8.00000e+00	
1.88668   	-3.37099e-01		         0.50167	-7.00000e+00	
1.89280   	-3.61997e-01		         0.50333	-7.00000e+00	
1.89892   	-3.97301e-01		         0.50500	-6.00000e+00	
1.90505   	-4.44455e-01		         0.50667	-6.00000e+00	
1.91144   	-4.71980e-01		         0.50833	-6.00000e+00	
1.91756   	-4.77591e-01		         0.51000	-5.00000e+00	
1.92368   	-4.64439e-01		         0.51167	-5.00000e+00	
1.92980   	-4.55237e-01		         0.51333	-5.00000e+00	
1.93619   	-4.38097e-01		         0.51500	-5.00000e+00	
1.94232   	-4.43204e-01		         0.51667	-5.00000e+00	
1.94862   	-4.33653e-01		         0.51833	-5.00000e+00	
1.95456   	-4.40995e-01		         0.52000	-6.00000e+00	
1.96095   	-4.46082e-01		         0.52167	-6.00000e+00	
1.96706   	-4.77106e-01		         0.52333	-6.00000e+00	
1.97319   	-5.71296e-01		         0.52500	-6.00000e+00	
1.97931   	-7.18394e-01		         0.52667	-6.00000e+00	
1.98571   	-8.86902e-01		         0.52833	-5.00000e+00	
1.99183   	-1.13343e+00		         0.53000	-5.00000e+00	
1.99833   	-1.65657e+00		         0.53167	-5.00000e+00	
2.00406   	-2.31390e+00		         0.53333	-4.00000e+00	
2.01046   	-3.04703e+00		         0.53500	-4.00000e+00	
2.01658   	-3.94731e+00		         0.53667	-3.00000e+00	
2.02271   	-4.90657e+00		         0.53833	-3.00000e+00	
2.02883   	-5.73175e+00		         0.54000	-2.00000e+00	
2.03522   	-6.56631e+00		         0.54167	-1.00000e+00	
2.04134   	-7.34602e+00		         0.54333	-1.00000e+00	
2.04746   	-7.87833e+00		         0.54500	0.00000e+00	
2.05358   	-8.16909e+00		         0.54667	0.00000e+00	
2.05998   	-8.36227e+00		         0.54833	0.00000e+00	
2.06610   	-8.27787e+00		         0.55000	0.00000e+00	
2.07222   	-7.92773e+00		         0.55167	0.00000e+00	
2.07834   	-7.27169e+00		         0.55333	0.00000e+00	
2.08473   	-6.38828e+00		         0.55500	-1.00000e+00	
2.09085   	-5.29722e+00		         0.55667	-1.00000e+00	
2.09697   	-4.27391e+00		         0.55833	-2.00000e+00	
2.10310   	-3.38853e+00		         0.56000	-3.00000e+00	
2.10949   	-2.94954e+00		         0.56167	-3.00000e+00	
2.11561   	-2.69177e+00		         0.56333	-4.00000e+00	
2.12173   	-2.93608e+00		         0.56500	-5.00000e+00	
2.12785   	-2.47583e+00		         0.56667	-6.00000e+00	
2.13424   	-2.20996e+00		         0.56833	-6.00000e+00	
2.14037   	-1.39684e+00		         0.57000	-6.00000e+00	
2.14648   	-3.39233e-01		         0.57167	-7.00000e+00	
2.15261   	1.30640e+00		         0.57333	-7.00000e+00	
2.15900   	2.17891e+00		         0.57500	-7.00000e+00	
2.16512   	2.53173e+00		         0.57667	-8.00000e+00	
2.17124   	1.85383e+00		         0.57833	-8.00000e+00	
2.17736   	1.14016e+00		         0.58000	-8.00000e+00	
2.18375   	3.96263e-01		         0.58167	-8.00000e+00	
2.18988   	-9.61365e-02		         0.58333	-8.00000e+00	
2.19600   	4.96596e-01		         0.58500	-8.00000e+00	
2.20212   	1.86686e+00		         0.58667	-9.00000e+00	
2.20851   	3.01916e+00		         0.58833	-9.00000e+00	
2.21471   	4.06097e+00		         0.59000	-9.00000e+00	
2.22075   	5.06207e+00		         0.59167	-9.00000e+00	
2.22688   	5.56304e+00		         0.59333	-9.00000e+00	
2.23327   	5.95653e+00		         0.59500	-9.00000e+00	
2.23939   	6.05988e+00		         0.59667	-9.00000e+00	
2.24551   	6.05224e+00		         0.59833	-9.00000e+00	
2.25163   	5.84567e+00		         0.60000	-9.00000e+00	
2.25802   	5.66106e+00		         0.60167	-8.00000e+00	
2.26451   	5.36864e+00		         0.60333	-8.00000e+00	
2.27027   	5.17148e+00		         0.60500	-8.00000e+00	
2.27639   	4.99901e+00		         0.60667	-8.00000e+00	
2.28278   	4.92802e+00		         0.60833	-7.00000e+00	
2.28890   	4.95238e+00		         0.61000	-7.00000e+00	
2.29502   	4.97847e+00		         0.61167	-7.00000e+00	
2.30115   	4.96862e+00		         0.61333	-7.00000e+00	
2.30754   	5.00277e+00		         0.61500	-7.00000e+00	
2.31366   	4.98789e+00		         0.61667	-7.00000e+00	
2.31978   	4.87790e+00		         0.61833	-7.00000e+00	
2.32590   	4.79387e+00		         0.62000	-7.00000e+00	
2.33229   	4.73540e+00		         0.62167	-7.00000e+00	
2.33841   	4.60508e+00		         0.62333	-7.00000e+00	
2.34453   	4.53613e+00		         0.62500	-7.00000e+00	
2.35065   	4.41624e+00		         0.62667	-7.00000e+00	
2.35705   	4.31127e+00		         0.62833	-7.00000e+00	
2.36317   	4.26337e+00		         0.63000	-7.00000e+00	
2.36929   	4.17441e+00		         0.63167	-6.00000e+00	
2.37541   	4.03430e+00		         0.63333	-6.00000e+00	
2.38180   	3.95293e+00		         0.63500	-6.00000e+00	
2.38793   	3.83289e+00		         0.63667	-6.00000e+00	
2.39404   	3.67283e+00		         0.63833	-5.00000e+00	
2.40017   	3.53715e+00		         0.64000	-5.00000e+00	
2.40656   	3.31654e+00		         0.64167	-5.00000e+00	
2.41268   	3.19099e+00		         0.64333	-5.00000e+00	
2.41880   	3.04153e+00		         0.64500	-5.00000e+00	
2.42492   	2.91776e+00		         0.64667	-5.00000e+00	
2.43131   	2.79101e+00		         0.64833	-5.00000e+00	
2.43744   	2.70957e+00		         0.65000	-4.00000e+00	
2.44356   	2.55439e+00		         0.65167	-4.00000e+00	
2.44968   	2.35523e+00		         0.65333	-4.00000e+00	
2.45607   	2.15779e+00		         0.65500	-4.00000e+00	
2.46219   	1.95597e+00		         0.65667	-4.00000e+00	
2.46831   	1.71863e+00		         0.65833	-4.00000e+00	
2.47444   	1.44769e+00		         0.66000	-4.00000e+00	
2.48083   	1.17069e+00		         0.66167	-4.00000e+00	
2.48695   	8.25418e-01		         0.66333	-4.00000e+00	
2.49306   	4.10384e-01		         0.66500	-4.00000e+00	
2.49919   	-8.68719e-02		         0.66667	-4.00000e+00	
2.50558   	-7.14056e-01		         0.66833	-4.00000e+00	
2.51170   	-1.15821e+00		         0.67000	-4.00000e+00	
2.51783   	-1.33036e+00		         0.67167	-4.00000e+00	
2.52395   	-7.80985e-01		         0.67333	-4.00000e+00	
2.53034   	-3.39081e-01		         0.67500	-4.00000e+00	
2.53646   	4.41390e-01		         0.67667	-4.00000e+00	
2.54258   	1.16144e+00		         0.67833	-4.00000e+00	
2.54870   	1.73193e+00		         0.68000	-4.00000e+00	
2.55510   	1.72213e+00		         0.68167	-3.00000e+00	
2.56121   	1.92976e+00		         0.68333	-3.00000e+00	
2.56734   	1.98635e+00		         0.68500	-2.00000e+00	
2.57346   	2.17349e+00		         0.68667	-2.00000e+00	
2.57985   	2.18151e+00		         0.68833	-2.00000e+00	
2.58598   	2.00961e+00		         0.69000	-1.00000e+00	
2.59209   	1.86039e+00		         0.69167	-1.00000e+00	
2.59821   	1.56215e+00		         0.69333	-1.00000e+00	
2.60461   	1.05653e+00		         0.69500	-1.00000e+00	
2.61073   	4.28230e-01		         0.69667	-1.00000e+00	
2.61685   	-1.49014e-01		         0.69833	-1.00000e+00	
2.62297   	-9.61052e-01		         0.70000	-2.00000e+00	
2.62936   	-1.74231e+00		         0.70167	-2.00000e+00	
2.63549   	-2.51765e+00		         0.70333	-3.00000e+00	
2.64161   	-3.14969e+00		         0.70500	-3.00000e+00	
2.64773   	-3.69655e+00		         0.70667	-4.00000e+00	
2.65412   	-4.09934e+00		         0.70833	-5.00000e+00	
2.66024   	-4.33134e+00		         0.71000	-5.00000e+00	
2.66636   	-4.53783e+00		         0.71167	-5.00000e+00	
2.67248   	-4.62630e+00		         0.71333	-5.00000e+00	
2.67904   	-4.59202e+00		         0.71500	-5.00000e+00	
2.68500   	-4.38496e+00		         0.71667	-5.00000e+00	
2.69112   	-4.21594e+00		         0.71833	-5.00000e+00	
2.69724   	-3.97275e+00		         0.72000	-4.00000e+00	
2.70363   	-3.70993e+00		         0.72167	-4.00000e+00	
2.70975   	-3.53290e+00		         0.72333	-4.00000e+00	
2.71587   	-3.31549e+00		         0.72500	-3.00000e+00	
2.72200   	-3.15314e+00		         0.72667	-3.00000e+00	
2.72839   	-2.94296e+00		         0.72833	-2.00000e+00	
2.73451   	-2.68023e+00		         0.73000	-2.00000e+00	
2.74063   	-2.39286e+00		         0.73167	-2.00000e+00	
2.74675   	-2.21560e+00		         0.73333	-1.00000e+00	
2.75314   	-1.92272e+00		         0.73500	-1.00000e+00	
2.75926   	-1.69363e+00		         0.73667	-1.00000e+00	
2.76539   	-1.45081e+00		         0.73833	-1.00000e+00	
2.77151   	-1.19590e+00		         0.74000	-1.00000e+00	
2.77790   	-8.86861e-01		         0.74167	-2.00000e+00	
2.78402   	-6.27832e-01		         0.74333	-2.00000e+00	
2.79014   	-3.78362e-01		         0.74500	-2.00000e+00	
2.79626   	-1.84164e-01		         0.74667	-2.00000e+00	
2.80266   	-3.78549e-02		         0.74833	-2.00000e+00	
2.80878   	5.46289e-02		         0.75000	-2.00000e+00	
2.81490   	1.22936e-01		         0.75167	-2.00000e+00	
2.82102   	1.41389e-01		         0.75333	-2.00000e+00	
2.82741   	1.43353e-01		         0.75500	-1.00000e+00	
2.83354   	1.11507e-01		         0.75667	-1.00000e+00	
2.83966   	3.49216e-02		         0.75833	-1.00000e+00	
2.84577   	-3.21277e-02		         0.76000	-1.00000e+00	
2.85217   	-7.52592e-02		         0.76167	-1.00000e+00	
2.85829   	-1.45928e-01		         0.76333	-1.00000e+00	
2.86441   	-2.02071e-01		         0.76500	-1.00000e+00	
2.87053   	-1.98436e-01		         0.76667	-1.00000e+00	
2.87692   	-2.06467e-01		         0.76833	-2.00000e+00	
2.88305   	-2.33893e-01		         0.77000	-2.00000e+00	
2.88917   	-2.48656e-01		         0.77167	-3.00000e+00	
2.89529   	-2.58475e-01		         0.77333	-3.00000e+00	
2.90168   	-2.65949e-01		         0.77500	-3.00000e+00	
2.90780   	-3.03143e-01		         0.77667	-3.00000e+00	
2.91392   	-3.34829e-01		         0.77833	-3.00000e+00	
2.92005   	-3.49681e-01		         0.78000	-4.00000e+00	
2.92643   	-3.51736e-01		         0.78167	-4.00000e+00	
2.93256   	-3.87233e-01		         0.78333	-4.00000e+00	
2.93868   	-3.97645e-01		         0.78500	-4.00000e+00	
2.94480   	-4.12308e-01		         0.78667	-4.00000e+00	
2.95120   	-4.47534e-01		         0.78833	-4.00000e+00	
2.95731   	-4.82308e-01		         0.79000	-3.00000e+00	
2.96343   	-4.94810e-01		         0.79167	-3.00000e+00	
2.96956   	-5.14863e-01		         0.79333	-3.00000e+00	
2.97595   	-5.08969e-01		         0.79500	-2.00000e+00	
2.98207   	-4.94969e-01		         0.79667	-2.00000e+00	
2.98819   	-4.92857e-01		         0.79833	-2.00000e+00	
2.99445   	-4.93698e-01		         0.80000	-2.00000e+00	
3.00070   	-5.02757e-01		         0.80167	-1.00000e+00	
3.00683   	-5.57529e-01		         0.80333	-1.00000e+00	
3.01295   	-6.78724e-01		         0.80500	-1.00000e+00	
3.01906   	-8.18823e-01		         0.80667	0.00000e+00	
3.02546   	-1.07489e+00		         0.80833	0.00000e+00	
3.03158   	-1.45315e+00		         0.81000	0.00000e+00	
3.03770   	-2.03557e+00		         0.81167	0.00000e+00	
3.04382   	-2.68058e+00		         0.81333	0.00000e+00	
3.05022   	-3.44771e+00		         0.81500	0.00000e+00	
3.05634   	-4.19596e+00		         0.81667	-1.00000e+00	
3.06246   	-5.02728e+00		         0.81833	-1.00000e+00	
3.06858   	-5.81929e+00		         0.82000	-1.00000e+00	
3.07497   	-6.65807e+00		         0.82167	-1.00000e+00	
3.08109   	-7.45296e+00		         0.82333	-1.00000e+00	
3.08721   	-8.09950e+00		         0.82500	-1.00000e+00	
3.09333   	-8.34846e+00		         0.82667	-1.00000e+00	
3.09973   	-8.37510e+00		         0.82833	-1.00000e+00	
3.10585   	-8.07758e+00		         0.83000	-1.00000e+00	
3.11197   	-7.55903e+00		         0.83167	-1.00000e+00	
3.11809   	-6.78927e+00		         0.83333	0.00000e+00	
3.12448   	-5.97822e+00		         0.83500	0.00000e+00	
3.13060   	-5.04269e+00		         0.83667	0.00000e+00	
3.13673   	-4.17797e+00		         0.83833	1.00000e+00	
3.14285   	-3.43543e+00		         0.84000	1.00000e+00	
3.14924   	-2.92057e+00		         0.84167	1.00000e+00	
3.15536   	-2.61695e+00		         0.84333	2.00000e+00	
3.16148   	-2.48109e+00		         0.84500	2.00000e+00	
3.16760   	-2.45974e+00		         0.84667	2.00000e+00	
3.17400   	-2.06746e+00		         0.84833	2.00000e+00	
3.18012   	-1.29709e+00		         0.85000	2.00000e+00	
3.18624   	-1.71789e-01		         0.85167	2.00000e+00	
3.19236   	9.91353e-01		         0.85333	2.00000e+00	
3.19875   	2.29110e+00		         0.85500	2.00000e+00	
3.20488   	3.04606e+00		         0.85667	2.00000e+00	
3.21099   	3.56727e+00		         0.85833	2.00000e+00	
			         0.86000	2.00000e+00	
			         0.86167	2.00000e+00	
			         0.86333	2.00000e+00	
			         0.86500	2.00000e+00	
			         0.86667	2.00000e+00	
			         0.86833	2.00000e+00	
			         0.87000	2.00000e+00	
			         0.87167	2.00000e+00	
			         0.87333	2.00000e+00	
			         0.87500	3.00000e+00	
			         0.87667	3.00000e+00	
			         0.87833	4.00000e+00	
			         0.88000	4.00000e+00	
			         0.88167	5.00000e+00	
			         0.88333	6.00000e+00	
			         0.88500	8.00000e+00	
			         0.88667	9.00000e+00	
			         0.88833	1.10000e+01	
			         0.89000	1.20000e+01	
			         0.89167	1.40000e+01	
			         0.89333	1.50000e+01	
			         0.89500	1.70000e+01	
			         0.89667	1.90000e+01	
			         0.89833	2.00000e+01	
			         0.90000	2.20000e+01	
			         0.90167	2.30000e+01	
			         0.90333	2.50000e+01	
			         0.90500	2.60000e+01	
			         0.90667	2.70000e+01	
			         0.90833	2.70000e+01	
			         0.91000	2.80000e+01	
			         0.91167	2.80000e+01	
			         0.91333	2.80000e+01	
			         0.91500	2.70000e+01	
			         0.91667	2.70000e+01	
			         0.91833	2.60000e+01	
			         0.92000	2.50000e+01	
			         0.92167	2.40000e+01	
			         0.92333	2.30000e+01	
			         0.92500	2.10000e+01	
			         0.92667	2.00000e+01	
			         0.92833	1.80000e+01	
			         0.93000	1.60000e+01	
			         0.93167	1.50000e+01	
			         0.93333	1.30000e+01	
			         0.93500	1.20000e+01	
			         0.93667	1.10000e+01	
			         0.93833	1.00000e+01	
			         0.94000	9.00000e+00	
			         0.94167	9.00000e+00	
			         0.94333	9.00000e+00	
			         0.94500	9.00000e+00	
			         0.94667	9.00000e+00	
			         0.94833	1.00000e+01	
			         0.95000	1.10000e+01	
			         0.95167	1.20000e+01	
			         0.95333	1.20000e+01	
			         0.95500	1.30000e+01	
			         0.95667	1.40000e+01	
			         0.95833	1.40000e+01	
			         0.96000	1.50000e+01	
			         0.96167	1.50000e+01	
			         0.96333	1.40000e+01	
			         0.96500	1.40000e+01	
			         0.96667	1.30000e+01	
			         0.96833	1.20000e+01	
			         0.97000	1.00000e+01	
			         0.97167	9.00000e+00	
			         0.97333	7.00000e+00	
			         0.97500	6.00000e+00	
			         0.97667	4.00000e+00	
			         0.97833	2.00000e+00	
			         0.98000	0.00000e+00	
			         0.98167	-1.00000e+00	
			         0.98333	-3.00000e+00	
			         0.98500	-5.00000e+00	
			         0.98667	-6.00000e+00	
			         0.98833	-7.00000e+00	
			         0.99000	-8.00000e+00	
			         0.99167	-9.00000e+00	
			         0.99333	-1.00000e+01	
			         0.99500	-1.10000e+01	
			         0.99667	-1.10000e+01	
			         0.99833	-1.20000e+01	
			         1.00000	-1.30000e+01	
			         1.00167	-1.30000e+01	
			         1.00333	-1.30000e+01	
			         1.00500	-1.40000e+01	
			         1.00667	-1.40000e+01	
			         1.00833	-1.50000e+01	
			         1.01000	-1.50000e+01	
			         1.01167	-1.60000e+01	
			         1.01333	-1.60000e+01	
			         1.01500	-1.70000e+01	
			         1.01667	-1.80000e+01	
			         1.01833	-1.80000e+01	
			         1.02000	-1.80000e+01	
			         1.02167	-1.90000e+01	
			         1.02333	-1.90000e+01	
			         1.02500	-1.90000e+01	
			         1.02667	-1.90000e+01	
			         1.02833	-1.90000e+01	
			         1.03000	-1.90000e+01	
			         1.03167	-1.80000e+01	
			         1.03333	-1.80000e+01	
			         1.03500	-1.70000e+01	
			         1.03667	-1.70000e+01	
			         1.03833	-1.70000e+01	
			         1.04000	-1.70000e+01	
			         1.04167	-1.60000e+01	
			         1.04333	-1.70000e+01	
			         1.04500	-1.70000e+01	
			         1.04667	-1.70000e+01	
			         1.04833	-1.70000e+01	
			         1.05000	-1.70000e+01	
			         1.05167	-1.70000e+01	
			         1.05333	-1.70000e+01	
			         1.05500	-1.60000e+01	
			         1.05667	-1.60000e+01	
			         1.05833	-1.50000e+01	
			         1.06000	-1.30000e+01	
			         1.06167	-1.20000e+01	
			         1.06333	-1.00000e+01	
			         1.06500	-8.00000e+00	
			         1.06667	-6.00000e+00	
			         1.06833	-4.00000e+00	
			         1.07000	-2.00000e+00	
			         1.07167	0.00000e+00	
			         1.07333	2.00000e+00	
			         1.07500	4.00000e+00	
			         1.07667	7.00000e+00	
			         1.07833	1.10000e+01	
			         1.08000	1.60000e+01	
			         1.08167	2.20000e+01	
			         1.08333	3.10000e+01	
			         1.08500	4.20000e+01	
			         1.08667	5.70000e+01	
			         1.08833	7.30000e+01	
			         1.09000	9.20000e+01	
			         1.09167	1.13000e+02	
			         1.09333	1.35000e+02	
			         1.09500	1.58000e+02	
			         1.09667	1.79000e+02	
			         1.09833	1.99000e+02	
			         1.10000	2.15000e+02	
			         1.10167	2.27000e+02	
			         1.10333	2.34000e+02	
			         1.10500	2.35000e+02	
			         1.10667	2.31000e+02	
			         1.10833	2.20000e+02	
			         1.11000	2.04000e+02	
			         1.11167	1.84000e+02	
			         1.11333	1.60000e+02	
			         1.11500	1.34000e+02	
			         1.11667	1.06000e+02	
			         1.11833	7.70000e+01	
			         1.12000	4.90000e+01	
			         1.12167	2.30000e+01	
			         1.12333	-1.00000e+00	
			         1.12500	-2.30000e+01	
			         1.12667	-4.10000e+01	
			         1.12833	-5.70000e+01	
			         1.13000	-7.00000e+01	
			         1.13167	-8.00000e+01	
			         1.13333	-8.70000e+01	
			         1.13500	-9.20000e+01	
			         1.13667	-9.50000e+01	
			         1.13833	-9.70000e+01	
			         1.14000	-9.70000e+01	
			         1.14167	-9.50000e+01	
			         1.14333	-9.20000e+01	
			         1.14500	-8.90000e+01	
			         1.14667	-8.50000e+01	
			         1.14833	-8.10000e+01	
			         1.15000	-7.70000e+01	
			         1.15167	-7.30000e+01	
			         1.15333	-6.90000e+01	
			         1.15500	-6.60000e+01	
			         1.15667	-6.30000e+01	
			         1.15833	-6.00000e+01	
			         1.16000	-5.70000e+01	
			         1.16167	-5.50000e+01	
			         1.16333	-5.30000e+01	
			         1.16500	-5.10000e+01	
			         1.16667	-5.00000e+01	
			         1.16833	-4.80000e+01	
			         1.17000	-4.70000e+01	
			         1.17167	-4.50000e+01	
			         1.17333	-4.40000e+01	
			         1.17500	-4.30000e+01	
			         1.17667	-4.20000e+01	
			         1.17833	-4.10000e+01	
			         1.18000	-3.90000e+01	
			         1.18167	-3.80000e+01	
			         1.18333	-3.70000e+01	
			         1.18500	-3.60000e+01	
			         1.18667	-3.50000e+01	
			         1.18833	-3.40000e+01	
			         1.19000	-3.30000e+01	
			         1.19167	-3.20000e+01	
			         1.19333	-3.10000e+01	
			         1.19500	-3.10000e+01	
			         1.19667	-3.00000e+01	
			         1.19833	-2.90000e+01	
			         1.20000	-2.80000e+01	
			         1.20167	-2.80000e+01	
			         1.20333	-2.70000e+01	
			         1.20500	-2.60000e+01	
			         1.20667	-2.60000e+01	
			         1.20833	-2.50000e+01	
			         1.21000	-2.50000e+01	
			         1.21167	-2.40000e+01	
			         1.21333	-2.40000e+01	
			         1.21500	-2.40000e+01	
			         1.21667	-2.30000e+01	
			         1.21833	-2.30000e+01	
			         1.22000	-2.20000e+01	
			         1.22167	-2.10000e+01	
			         1.22333	-2.10000e+01	
			         1.22500	-2.00000e+01	
			         1.22667	-1.90000e+01	
			         1.22833	-1.80000e+01	
			         1.23000	-1.70000e+01	
			         1.23167	-1.70000e+01	
			         1.23333	-1.60000e+01	
			         1.23500	-1.40000e+01	
			         1.23667	-1.30000e+01	
			         1.23833	-1.20000e+01	
			         1.24000	-1.10000e+01	
			         1.24167	-1.00000e+01	
			         1.24333	-9.00000e+00	
			         1.24500	-9.00000e+00	
			         1.24667	-8.00000e+00	
			         1.24833	-8.00000e+00	
			         1.25000	-7.00000e+00	
			         1.25167	-7.00000e+00	
			         1.25333	-7.00000e+00	
			         1.25500	-7.00000e+00	
			         1.25667	-7.00000e+00	
			         1.25833	-7.00000e+00	
			         1.26000	-8.00000e+00	
			         1.26167	-8.00000e+00	
			         1.26333	-9.00000e+00	
			         1.26500	-9.00000e+00	
			         1.26667	-9.00000e+00	
			         1.26833	-9.00000e+00	
			         1.27000	-9.00000e+00	
			         1.27167	-9.00000e+00	
			         1.27333	-9.00000e+00	
			         1.27500	-9.00000e+00	
			         1.27667	-9.00000e+00	
			         1.27833	-9.00000e+00	
			         1.28000	-8.00000e+00	
			         1.28167	-8.00000e+00	
			         1.28333	-7.00000e+00	
			         1.28500	-7.00000e+00	
			         1.28667	-6.00000e+00	
			         1.28833	-5.00000e+00	
			         1.29000	-5.00000e+00	
			         1.29167	-4.00000e+00	
			         1.29333	-3.00000e+00	
			         1.29500	-2.00000e+00	
			         1.29667	-1.00000e+00	
			         1.29833	-1.00000e+00	
			         1.30000	0.00000e+00	
			         1.30167	1.00000e+00	
			         1.30333	2.00000e+00	
			         1.30500	3.00000e+00	
			         1.30667	3.00000e+00	
			         1.30833	4.00000e+00	
			         1.31000	4.00000e+00	
			         1.31167	5.00000e+00	
			         1.31333	6.00000e+00	
			         1.31500	6.00000e+00	
			         1.31667	7.00000e+00	
			         1.31833	7.00000e+00	
			         1.32000	7.00000e+00	
			         1.32167	8.00000e+00	
			         1.32333	8.00000e+00	
			         1.32500	9.00000e+00	
			         1.32667	9.00000e+00	
			         1.32833	9.00000e+00	
			         1.33000	1.00000e+01	
			         1.33167	1.00000e+01	
			         1.33333	1.10000e+01	
			         1.33500	1.10000e+01	
			         1.33667	1.10000e+01	
			         1.33833	1.20000e+01	
			         1.34000	1.20000e+01	
			         1.34167	1.30000e+01	
			         1.34333	1.40000e+01	
			         1.34500	1.50000e+01	
			         1.34667	1.50000e+01	
			         1.34833	1.60000e+01	
			         1.35000	1.70000e+01	
			         1.35167	1.80000e+01	
			         1.35333	1.90000e+01	
			         1.35500	2.10000e+01	
			         1.35667	2.20000e+01	
			         1.35833	2.30000e+01	
			         1.36000	2.40000e+01	
			         1.36167	2.50000e+01	
			         1.36333	2.70000e+01	
			         1.36500	2.80000e+01	
			         1.36667	2.90000e+01	
			         1.36833	3.00000e+01	
			         1.37000	3.10000e+01	
			         1.37167	3.20000e+01	
			         1.37333	3.30000e+01	
			         1.37500	3.30000e+01	
			         1.37667	3.40000e+01	
			         1.37833	3.40000e+01	
			         1.38000	3.50000e+01	
			         1.38167	3.50000e+01	
			         1.38333	3.50000e+01	
			         1.38500	3.60000e+01	
			         1.38667	3.60000e+01	
			         1.38833	3.70000e+01	
			         1.39000	3.70000e+01	
			         1.39167	3.80000e+01	
			         1.39333	3.80000e+01	
			         1.39500	3.90000e+01	
			         1.39667	3.90000e+01	
			         1.39833	4.00000e+01	
			         1.40000	4.00000e+01	
			         1.40167	4.00000e+01	
			         1.40333	4.10000e+01	
			         1.40500	4.00000e+01	
			         1.40667	4.00000e+01	
			         1.40833	4.00000e+01	
			         1.41000	3.90000e+01	
			         1.41167	3.90000e+01	
			         1.41333	3.80000e+01	
			         1.41500	3.80000e+01	
			         1.41667	3.70000e+01	
			         1.41833	3.60000e+01	
			         1.42000	3.50000e+01	
			         1.42167	3.40000e+01	
			         1.42333	3.20000e+01	
			         1.42500	3.10000e+01	
			         1.42667	2.90000e+01	
			         1.42833	2.80000e+01	
			         1.43000	2.60000e+01	
			         1.43167	2.40000e+01	
			         1.43333	2.20000e+01	
			         1.43500	1.90000e+01	
			         1.43667	1.70000e+01	
			         1.43833	1.40000e+01	
			         1.44000	1.20000e+01	
			         1.44167	1.00000e+01	
			         1.44333	7.00000e+00	
			         1.44500	5.00000e+00	
			         1.44667	3.00000e+00	
			         1.44833	0.00000e+00	
			         1.45000	-2.00000e+00	
			         1.45167	-4.00000e+00	
			         1.45333	-6.00000e+00	
			         1.45500	-8.00000e+00	
			         1.45667	-9.00000e+00	
			         1.45833	-1.10000e+01	
			         1.46000	-1.30000e+01	
			         1.46167	-1.40000e+01	
			         1.46333	-1.50000e+01	
			         1.46500	-1.70000e+01	
			         1.46667	-1.80000e+01	
			         1.46833	-1.90000e+01	
			         1.47000	-2.00000e+01	
			         1.47167	-2.00000e+01	
			         1.47333	-2.10000e+01	
			         1.47500	-2.20000e+01	
			         1.47667	-2.20000e+01	
			         1.47833	-2.30000e+01	
			         1.48000	-2.30000e+01	
			         1.48167	-2.40000e+01	
			         1.48333	-2.40000e+01	
			         1.48500	-2.40000e+01	
			         1.48667	-2.50000e+01	
			         1.48833	-2.50000e+01	
			         1.49000	-2.50000e+01	
			         1.49167	-2.50000e+01	
			         1.49333	-2.60000e+01	
			         1.49500	-2.60000e+01	
			         1.49667	-2.60000e+01	
			         1.49833	-2.70000e+01	
			         1.50000	-2.70000e+01	
			         1.50167	-2.70000e+01	
			         1.50333	-2.70000e+01	
			         1.50500	-2.70000e+01	
			         1.50667	-2.70000e+01	
			         1.50833	-2.70000e+01	
			         1.51000	-2.60000e+01	
			         1.51167	-2.50000e+01	
			         1.51333	-2.50000e+01	
			         1.51500	-2.40000e+01	
			         1.51667	-2.30000e+01	
			         1.51833	-2.30000e+01	
			         1.52000	-2.20000e+01	
			         1.52167	-2.10000e+01	
			         1.52333	-2.00000e+01	
			         1.52500	-1.90000e+01	
			         1.52667	-1.90000e+01	
			         1.52833	-1.80000e+01	
			         1.53000	-1.70000e+01	
			         1.53167	-1.70000e+01	
			         1.53333	-1.60000e+01	
			         1.53500	-1.50000e+01	
			         1.53667	-1.40000e+01	
			         1.53833	-1.30000e+01	
			         1.54000	-1.30000e+01	
			         1.54167	-1.20000e+01	
			         1.54333	-1.10000e+01	
			         1.54500	-1.10000e+01	
			         1.54667	-1.00000e+01	
			         1.54833	-9.00000e+00	
			         1.55000	-9.00000e+00	
			         1.55167	-8.00000e+00	
			         1.55333	-8.00000e+00	
			         1.55500	-7.00000e+00	
			         1.55667	-6.00000e+00	
			         1.55833	-6.00000e+00	
			         1.56000	-5.00000e+00	
			         1.56167	-5.00000e+00	
			         1.56333	-4.00000e+00	
			         1.56500	-3.00000e+00	
			         1.56667	-2.00000e+00	
			         1.56833	-1.00000e+00	
			         1.57000	-1.00000e+00	
			         1.57167	0.00000e+00	
			         1.57333	0.00000e+00	
			         1.57500	1.00000e+00	
			         1.57667	1.00000e+00	
			         1.57833	1.00000e+00	
			         1.58000	2.00000e+00	
			         1.58167	2.00000e+00	
			         1.58333	2.00000e+00	
			         1.58500	1.00000e+00	
			         1.58667	1.00000e+00	
			         1.58833	1.00000e+00	
			         1.59000	1.00000e+00	
			         1.59167	0.00000e+00	
			         1.59333	0.00000e+00	
			         1.59500	0.00000e+00	
			         1.59667	-1.00000e+00	
			         1.59833	-1.00000e+00	
			         1.60000	-1.00000e+00	
			         1.60167	-2.00000e+00	
			         1.60333	-2.00000e+00	
			         1.60500	-3.00000e+00	
			         1.60667	-3.00000e+00	
			         1.60833	-3.00000e+00	
			         1.61000	-4.00000e+00	
			         1.61167	-4.00000e+00	
			         1.61333	-4.00000e+00	
			         1.61500	-5.00000e+00	
			         1.61667	-5.00000e+00	
			         1.61833	-5.00000e+00	
			         1.62000	-5.00000e+00	
			         1.62167	-5.00000e+00	
			         1.62333	-5.00000e+00	
			         1.62500	-6.00000e+00	
			         1.62667	-6.00000e+00	
			         1.62833	-7.00000e+00	
			         1.63000	-7.00000e+00	
			         1.63167	-8.00000e+00	
			         1.63333	-8.00000e+00	
			         1.63500	-9.00000e+00	
			         1.63667	-9.00000e+00	
			         1.63833	-1.00000e+01	
			         1.64000	-1.00000e+01	
			         1.64167	-1.10000e+01	
			         1.64333	-1.10000e+01	
			         1.64500	-1.10000e+01	
			         1.64667	-1.20000e+01	
			         1.64833	-1.20000e+01	
			         1.65000	-1.10000e+01	
			         1.65167	-1.10000e+01	
			         1.65333	-1.10000e+01	
			         1.65500	-1.00000e+01	
			         1.65667	-1.00000e+01	
			         1.65833	-9.00000e+00	
			         1.66000	-9.00000e+00	
			         1.66167	-9.00000e+00	
			         1.66333	-8.00000e+00	
			         1.66500	-8.00000e+00	
			         1.66667	-8.00000e+00	
			         1.66833	-8.00000e+00	
			         1.67000	-8.00000e+00	
			         1.67167	-8.00000e+00	
			         1.67333	-8.00000e+00	
			         1.67500	-9.00000e+00	
			         1.67667	-9.00000e+00	
			         1.67833	-1.00000e+01	
			         1.68000	-1.00000e+01	
			         1.68167	-1.10000e+01	
			         1.68333	-1.10000e+01	
			         1.68500	-1.10000e+01	
			         1.68667	-1.10000e+01	
			         1.68833	-1.10000e+01	
			         1.69000	-1.10000e+01	
			         1.69167	-1.10000e+01	
			         1.69333	-1.10000e+01	
			         1.69500	-1.00000e+01	
			         1.69667	-1.00000e+01	
			         1.69833	-1.00000e+01	
			         1.70000	-1.00000e+01	
			         1.70167	-1.00000e+01	
			         1.70333	-1.00000e+01	
			         1.70500	-1.00000e+01	
			         1.70667	-1.00000e+01	
			         1.70833	-1.00000e+01	
			         1.71000	-1.00000e+01	
			         1.71167	-1.00000e+01	
			         1.71333	-1.00000e+01	
			         1.71500	-1.00000e+01	
			         1.71667	-1.00000e+01	
			         1.71833	-1.00000e+01	
			         1.72000	-1.00000e+01	
			         1.72167	-1.00000e+01	
			         1.72333	-1.00000e+01	
			         1.72500	-1.00000e+01	
			         1.72667	-1.00000e+01	
			         1.72833	-1.00000e+01	
			         1.73000	-1.00000e+01	
			         1.73167	-9.00000e+00	
			         1.73333	-9.00000e+00	
			         1.73500	-9.00000e+00	
			         1.73667	-9.00000e+00	
			         1.73833	-9.00000e+00	
			         1.74000	-9.00000e+00	
			         1.74167	-9.00000e+00	
			         1.74333	-9.00000e+00	
			         1.74500	-8.00000e+00	
			         1.74667	-8.00000e+00	
			         1.74833	-8.00000e+00	
			         1.75000	-8.00000e+00	
			         1.75167	-8.00000e+00	
			         1.75333	-8.00000e+00	
			         1.75500	-8.00000e+00	
			         1.75667	-8.00000e+00	
			         1.75833	-8.00000e+00	
			         1.76000	-8.00000e+00	
			         1.76167	-8.00000e+00	
			         1.76333	-8.00000e+00	
			         1.76500	-8.00000e+00	
			         1.76667	-7.00000e+00	
			         1.76833	-7.00000e+00	
			         1.77000	-6.00000e+00	
			         1.77167	-6.00000e+00	
			         1.77333	-6.00000e+00	
			         1.77500	-5.00000e+00	
			         1.77667	-5.00000e+00	
			         1.77833	-5.00000e+00	
			         1.78000	-4.00000e+00	
			         1.78167	-4.00000e+00	
			         1.78333	-4.00000e+00	
			         1.78500	-4.00000e+00	
			         1.78667	-4.00000e+00	
			         1.78833	-4.00000e+00	
			         1.79000	-4.00000e+00	
			         1.79167	-4.00000e+00	
			         1.79333	-5.00000e+00	
			         1.79500	-5.00000e+00	
			         1.79667	-5.00000e+00	
			         1.79833	-5.00000e+00	
			         1.80000	-6.00000e+00	
			         1.80167	-6.00000e+00	
			         1.80333	-6.00000e+00	
			         1.80500	-6.00000e+00	
			         1.80667	-6.00000e+00	
			         1.80833	-7.00000e+00	
			         1.81000	-7.00000e+00	
			         1.81167	-7.00000e+00	
			         1.81333	-7.00000e+00	
			         1.81500	-7.00000e+00	
			         1.81667	-6.00000e+00	
			         1.81833	-6.00000e+00	
			         1.82000	-6.00000e+00	
			         1.82167	-6.00000e+00	
			         1.82333	-6.00000e+00	
			         1.82500	-5.00000e+00	
			         1.82667	-5.00000e+00	
			         1.82833	-5.00000e+00	
			         1.83000	-4.00000e+00	
			         1.83167	-4.00000e+00	
			         1.83333	-4.00000e+00	
			         1.83500	-4.00000e+00	
			         1.83667	-4.00000e+00	
			         1.83833	-4.00000e+00	
			         1.84000	-4.00000e+00	
			         1.84167	-5.00000e+00	
			         1.84333	-5.00000e+00	
			         1.84500	-6.00000e+00	
			         1.84667	-6.00000e+00	
			         1.84833	-7.00000e+00	
			         1.85000	-7.00000e+00	
			         1.85167	-7.00000e+00	
			         1.85333	-7.00000e+00	
			         1.85500	-8.00000e+00	
			         1.85667	-8.00000e+00	
			         1.85833	-7.00000e+00	
			         1.86000	-7.00000e+00	
			         1.86167	-7.00000e+00	
			         1.86333	-6.00000e+00	
			         1.86500	-5.00000e+00	
			         1.86667	-5.00000e+00	
			         1.86833	-4.00000e+00	
			         1.87000	-4.00000e+00	
			         1.87167	-3.00000e+00	
			         1.87333	-3.00000e+00	
			         1.87500	-2.00000e+00	
			         1.87667	-2.00000e+00	
			         1.87833	-2.00000e+00	
			         1.88000	-2.00000e+00	
			         1.88167	-1.00000e+00	
			         1.88333	-1.00000e+00	
			         1.88500	-2.00000e+00	
			         1.88667	-2.00000e+00	
			         1.88833	-2.00000e+00	
			         1.89000	-2.00000e+00	
			         1.89167	-2.00000e+00	
			         1.89333	-2.00000e+00	
			         1.89500	-2.00000e+00	
			         1.89667	-2.00000e+00	
			         1.89833	-2.00000e+00	
			         1.90000	-2.00000e+00	
			         1.90167	-2.00000e+00	
			         1.90333	-2.00000e+00	
			         1.90500	-2.00000e+00	
			         1.90667	-2.00000e+00	
			         1.90833	-2.00000e+00	
			         1.91000	-2.00000e+00	
			         1.91167	-3.00000e+00	
			         1.91333	-3.00000e+00	
			         1.91500	-3.00000e+00	
			         1.91667	-3.00000e+00	
			         1.91833	-3.00000e+00	
			         1.92000	-3.00000e+00	
			         1.92167	-2.00000e+00	
			         1.92333	-1.00000e+00	
			         1.92500	0.00000e+00	
			         1.92667	1.00000e+00	
			         1.92833	2.00000e+00	
			         1.93000	3.00000e+00	
			         1.93167	4.00000e+00	
			         1.93333	5.00000e+00	
			         1.93500	7.00000e+00	
			         1.93667	8.00000e+00	
			         1.93833	9.00000e+00	
			         1.94000	1.10000e+01	
			         1.94167	1.20000e+01	
			         1.94333	1.30000e+01	
			         1.94500	1.50000e+01	
			         1.94667	1.60000e+01	
			         1.94833	1.80000e+01	
			         1.95000	1.90000e+01	
			         1.95167	2.00000e+01	
			         1.95333	2.10000e+01	
			         1.95500	2.20000e+01	
			         1.95667	2.30000e+01	
			         1.95833	2.30000e+01	
			         1.96000	2.30000e+01	
			         1.96167	2.30000e+01	
			         1.96333	2.30000e+01	
			         1.96500	2.20000e+01	
			         1.96667	2.20000e+01	
			         1.96833	2.10000e+01	
			         1.97000	2.00000e+01	
			         1.97167	1.90000e+01	
			         1.97333	1.80000e+01	
			         1.97500	1.60000e+01	
			         1.97667	1.40000e+01	
			         1.97833	1.30000e+01	
			         1.98000	1.10000e+01	
			         1.98167	1.00000e+01	
			         1.98333	8.00000e+00	
			         1.98500	7.00000e+00	
			         1.98667	6.00000e+00	
			         1.98833	5.00000e+00	
			         1.99000	5.00000e+00	
			         1.99167	5.00000e+00	
			         1.99333	5.00000e+00	
			         1.99500	5.00000e+00	
			         1.99667	6.00000e+00	
			         1.99833	7.00000e+00	
			         2.00000	7.00000e+00	
			         2.00167	8.00000e+00	
			         2.00333	9.00000e+00	
			         2.00500	9.00000e+00	
			         2.00667	9.00000e+00	
			         2.00833	9.00000e+00	
			         2.01000	9.00000e+00	
			         2.01167	9.00000e+00	
			         2.01333	9.00000e+00	
			         2.01500	9.00000e+00	
			         2.01667	9.00000e+00	
			         2.01833	8.00000e+00	
			         2.02000	8.00000e+00	
			         2.02167	7.00000e+00	
			         2.02333	6.00000e+00	
			         2.02500	5.00000e+00	
			         2.02667	4.00000e+00	
			         2.02833	2.00000e+00	
			         2.03000	1.00000e+00	
			         2.03167	0.00000e+00	
			         2.03333	-2.00000e+00	
			         2.03500	-3.00000e+00	
			         2.03667	-5.00000e+00	
			         2.03833	-6.00000e+00	
			         2.04000	-8.00000e+00	
			         2.04167	-9.00000e+00	
			         2.04333	-1.00000e+01	
			         2.04500	-1.10000e+01	
			         2.04667	-1.20000e+01	
			         2.04833	-1.20000e+01	
			         2.05000	-1.30000e+01	
			         2.05167	-1.40000e+01	
			         2.05333	-1.40000e+01	
			         2.05500	-1.50000e+01	
			         2.05667	-1.50000e+01	
			         2.05833	-1.60000e+01	
			         2.06000	-1.60000e+01	
			         2.06167	-1.60000e+01	
			         2.06333	-1.60000e+01	
			         2.06500	-1.70000e+01	
			         2.06667	-1.70000e+01	
			         2.06833	-1.70000e+01	
			         2.07000	-1.70000e+01	
			         2.07167	-1.70000e+01	
			         2.07333	-1.70000e+01	
			         2.07500	-1.70000e+01	
			         2.07667	-1.70000e+01	
			         2.07833	-1.70000e+01	
			         2.08000	-1.60000e+01	
			         2.08167	-1.60000e+01	
			         2.08333	-1.60000e+01	
			         2.08500	-1.50000e+01	
			         2.08667	-1.50000e+01	
			         2.08833	-1.40000e+01	
			         2.09000	-1.40000e+01	
			         2.09167	-1.30000e+01	
			         2.09333	-1.30000e+01	
			         2.09500	-1.30000e+01	
			         2.09667	-1.20000e+01	
			         2.09833	-1.10000e+01	
			         2.10000	-1.10000e+01	
			         2.10167	-1.00000e+01	
			         2.10333	-8.00000e+00	
			         2.10500	-7.00000e+00	
			         2.10667	-6.00000e+00	
			         2.10833	-4.00000e+00	
			         2.11000	-3.00000e+00	
			         2.11167	-1.00000e+00	
			         2.11333	0.00000e+00	
			         2.11500	2.00000e+00	
			         2.11667	4.00000e+00	
			         2.11833	6.00000e+00	
			         2.12000	9.00000e+00	
			         2.12167	1.30000e+01	
			         2.12333	1.80000e+01	
			         2.12500	2.50000e+01	
			         2.12667	3.40000e+01	
			         2.12833	4.60000e+01	
			         2.13000	6.10000e+01	
			         2.13167	7.80000e+01	
			         2.13333	9.70000e+01	
			         2.13500	1.18000e+02	
			         2.13667	1.40000e+02	
			         2.13833	1.62000e+02	
			         2.14000	1.82000e+02	
			         2.14167	2.00000e+02	
			         2.14333	2.15000e+02	
			         2.14500	2.26000e+02	
			         2.14667	2.31000e+02	
			         2.14833	2.30000e+02	
			         2.15000	2.24000e+02	
			         2.15167	2.12000e+02	
			         2.15333	1.95000e+02	
			         2.15500	1.73000e+02	
			         2.15667	1.49000e+02	
			         2.15833	1.22000e+02	
			         2.16000	9.40000e+01	
			         2.16167	6.60000e+01	
			         2.16333	3.90000e+01	
			         2.16500	1.40000e+01	
			         2.16667	-9.00000e+00	
			         2.16833	-3.00000e+01	
			         2.17000	-4.80000e+01	
			         2.17167	-6.30000e+01	
			         2.17333	-7.50000e+01	
			         2.17500	-8.40000e+01	
			         2.17667	-9.10000e+01	
			         2.17833	-9.50000e+01	
			         2.18000	-9.80000e+01	
			         2.18167	-9.90000e+01	
			         2.18333	-9.90000e+01	
			         2.18500	-9.70000e+01	
			         2.18667	-9.40000e+01	
			         2.18833	-9.00000e+01	
			         2.19000	-8.60000e+01	
			         2.19167	-8.20000e+01	
			         2.19333	-7.70000e+01	
			         2.19500	-7.30000e+01	
			         2.19667	-6.80000e+01	
			         2.19833	-6.40000e+01	
			         2.20000	-6.10000e+01	
			         2.20167	-5.70000e+01	
			         2.20333	-5.40000e+01	
			         2.20500	-5.10000e+01	
			         2.20667	-4.90000e+01	
			         2.20833	-4.70000e+01	
			         2.21000	-4.50000e+01	
			         2.21167	-4.30000e+01	
			         2.21333	-4.10000e+01	
			         2.21500	-3.90000e+01	
			         2.21667	-3.80000e+01	
			         2.21833	-3.70000e+01	
			         2.22000	-3.50000e+01	
			         2.22167	-3.40000e+01	
			         2.22333	-3.30000e+01	
			         2.22500	-3.30000e+01	
			         2.22667	-3.20000e+01	
			         2.22833	-3.10000e+01	
			         2.23000	-3.00000e+01	
			         2.23167	-3.00000e+01	
			         2.23333	-2.90000e+01	
			         2.23500	-2.90000e+01	
			         2.23667	-2.80000e+01	
			         2.23833	-2.70000e+01	
			         2.24000	-2.60000e+01	
			         2.24167	-2.50000e+01	
			         2.24333	-2.40000e+01	
			         2.24500	-2.30000e+01	
			         2.24667	-2.20000e+01	
			         2.24833	-2.10000e+01	
			         2.25000	-2.00000e+01	
			         2.25167	-1.90000e+01	
			         2.25333	-1.80000e+01	
			         2.25500	-1.70000e+01	
			         2.25667	-1.70000e+01	
			         2.25833	-1.60000e+01	
			         2.26000	-1.60000e+01	
			         2.26167	-1.50000e+01	
			         2.26333	-1.50000e+01	
			         2.26500	-1.40000e+01	
			         2.26667	-1.40000e+01	
			         2.26833	-1.40000e+01	
			         2.27000	-1.40000e+01	
			         2.27167	-1.40000e+01	
			         2.27333	-1.40000e+01	
			         2.27500	-1.30000e+01	
			         2.27667	-1.30000e+01	
			         2.27833	-1.20000e+01	
			         2.28000	-1.20000e+01	
			         2.28167	-1.10000e+01	
			         2.28333	-1.10000e+01	
			         2.28500	-1.00000e+01	
			         2.28667	-1.00000e+01	
			         2.28833	-9.00000e+00	
			         2.29000	-8.00000e+00	
			         2.29167	-8.00000e+00	
			         2.29333	-7.00000e+00	
			         2.29500	-6.00000e+00	
			         2.29667	-6.00000e+00	
			         2.29833	-5.00000e+00	
			         2.30000	-5.00000e+00	
			         2.30167	-4.00000e+00	
			         2.30333	-4.00000e+00	
			         2.30500	-4.00000e+00	
			         2.30667	-3.00000e+00	
			         2.30833	-3.00000e+00	
			         2.31000	-2.00000e+00	
			         2.31167	-2.00000e+00	
			         2.31333	-2.00000e+00	
			         2.31500	-1.00000e+00	
			         2.31667	-1.00000e+00	
			         2.31833	-1.00000e+00	
			         2.32000	-1.00000e+00	
			         2.32167	-1.00000e+00	
			         2.32333	-1.00000e+00	
			         2.32500	-1.00000e+00	
			         2.32667	-1.00000e+00	
			         2.32833	-1.00000e+00	
			         2.33000	0.00000e+00	
			         2.33167	0.00000e+00	
			         2.33333	0.00000e+00	
			         2.33500	0.00000e+00	
			         2.33667	0.00000e+00	
			         2.33833	1.00000e+00	
			         2.34000	1.00000e+00	
			         2.34167	2.00000e+00	
			         2.34333	2.00000e+00	
			         2.34500	3.00000e+00	
			         2.34667	3.00000e+00	
			         2.34833	3.00000e+00	
			         2.35000	4.00000e+00	
			         2.35167	4.00000e+00	
			         2.35333	4.00000e+00	
			         2.35500	4.00000e+00	
			         2.35667	4.00000e+00	
			         2.35833	4.00000e+00	
			         2.36000	4.00000e+00	
			         2.36167	4.00000e+00	
			         2.36333	5.00000e+00	
			         2.36500	5.00000e+00	
			         2.36667	5.00000e+00	
			         2.36833	5.00000e+00	
			         2.37000	5.00000e+00	
			         2.37167	6.00000e+00	
			         2.37333	6.00000e+00	
			         2.37500	7.00000e+00	
			         2.37667	8.00000e+00	
			         2.37833	8.00000e+00	
			         2.38000	9.00000e+00	
			         2.38167	9.00000e+00	
			         2.38333	1.00000e+01	
			         2.38500	1.10000e+01	
			         2.38667	1.20000e+01	
			         2.38833	1.20000e+01	
			         2.39000	1.30000e+01	
			         2.39167	1.40000e+01	
			         2.39333	1.50000e+01	
			         2.39500	1.60000e+01	
			         2.39667	1.80000e+01	
			         2.39833	1.90000e+01	
			         2.40000	2.00000e+01	
			         2.40167	2.10000e+01	
			         2.40333	2.20000e+01	
			         2.40500	2.40000e+01	
			         2.40667	2.50000e+01	
			         2.40833	2.60000e+01	
			         2.41000	2.70000e+01	
			         2.41167	2.80000e+01	
			         2.41333	2.90000e+01	
			         2.41500	2.90000e+01	
			         2.41667	3.00000e+01	
			         2.41833	3.10000e+01	
			         2.42000	3.20000e+01	
			         2.42167	3.20000e+01	
			         2.42333	3.30000e+01	
			         2.42500	3.40000e+01	
			         2.42667	3.50000e+01	
			         2.42833	3.60000e+01	
			         2.43000	3.60000e+01	
			         2.43167	3.70000e+01	
			         2.43333	3.70000e+01	
			         2.43500	3.80000e+01	
			         2.43667	3.80000e+01	
			         2.43833	3.80000e+01	
			         2.44000	3.80000e+01	
			         2.44167	3.80000e+01	
			         2.44333	3.80000e+01	
			         2.44500	3.80000e+01	
			         2.44667	3.70000e+01	
			         2.44833	3.70000e+01	
			         2.45000	3.70000e+01	
			         2.45167	3.60000e+01	
			         2.45333	3.50000e+01	
			         2.45500	3.40000e+01	
			         2.45667	3.40000e+01	
			         2.45833	3.20000e+01	
			         2.46000	3.10000e+01	
			         2.46167	3.00000e+01	
			         2.46333	2.80000e+01	
			         2.46500	2.60000e+01	
			         2.46667	2.40000e+01	
			         2.46833	2.20000e+01	
			         2.47000	2.00000e+01	
			         2.47167	1.70000e+01	
			         2.47333	1.50000e+01	
			         2.47500	1.30000e+01	
			         2.47667	1.10000e+01	
			         2.47833	8.00000e+00	
			         2.48000	6.00000e+00	
			         2.48167	4.00000e+00	
			         2.48333	1.00000e+00	
			         2.48500	-1.00000e+00	
			         2.48667	-3.00000e+00	
			         2.48833	-6.00000e+00	
			         2.49000	-8.00000e+00	
			         2.49167	-1.00000e+01	
			         2.49333	-1.20000e+01	
			         2.49500	-1.40000e+01	
			         2.49667	-1.50000e+01	
			         2.49833	-1.70000e+01	
			         2.50000	-1.80000e+01	
			         2.50167	-2.00000e+01	
			         2.50333	-2.10000e+01	
			         2.50500	-2.20000e+01	
			         2.50667	-2.30000e+01	
			         2.50833	-2.40000e+01	
			         2.51000	-2.50000e+01	
			         2.51167	-2.60000e+01	
			         2.51333	-2.70000e+01	
			         2.51500	-2.80000e+01	
			         2.51667	-2.90000e+01	
			         2.51833	-3.00000e+01	
			         2.52000	-3.00000e+01	
			         2.52167	-3.10000e+01	
			         2.52333	-3.10000e+01	
			         2.52500	-3.10000e+01	
			         2.52667	-3.10000e+01	
			         2.52833	-3.10000e+01	
			         2.53000	-3.10000e+01	
			         2.53167	-3.10000e+01	
			         2.53333	-3.10000e+01	
			         2.53500	-3.10000e+01	
			         2.53667	-3.10000e+01	
			         2.53833	-3.10000e+01	
			         2.54000	-3.10000e+01	
			         2.54167	-3.10000e+01	
			         2.54333	-3.00000e+01	
			         2.54500	-3.00000e+01	
			         2.54667	-2.90000e+01	
			         2.54833	-2.90000e+01	
			         2.55000	-2.80000e+01	
			         2.55167	-2.70000e+01	
			         2.55333	-2.60000e+01	
			         2.55500	-2.50000e+01	
			         2.55667	-2.40000e+01	
			         2.55833	-2.30000e+01	
			         2.56000	-2.20000e+01	
			         2.56167	-2.10000e+01	
			         2.56333	-2.10000e+01	
			         2.56500	-2.00000e+01	
			         2.56667	-1.90000e+01	
			         2.56833	-1.90000e+01	
			         2.57000	-1.80000e+01	
			         2.57167	-1.80000e+01	
			         2.57333	-1.70000e+01	
			         2.57500	-1.70000e+01	
			         2.57667	-1.70000e+01	
			         2.57833	-1.70000e+01	
			         2.58000	-1.60000e+01	
			         2.58167	-1.60000e+01	
			         2.58333	-1.60000e+01	
			         2.58500	-1.60000e+01	
			         2.58667	-1.50000e+01	
			         2.58833	-1.50000e+01	
			         2.59000	-1.40000e+01	
			         2.59167	-1.30000e+01	
			         2.59333	-1.30000e+01	
			         2.59500	-1.20000e+01	
			         2.59667	-1.10000e+01	
			         2.59833	-1.00000e+01	
			         2.60000	-9.00000e+00	
			         2.60167	-8.00000e+00	
			         2.60333	-8.00000e+00	
			         2.60500	-7.00000e+00	
			         2.60667	-6.00000e+00	
			         2.60833	-6.00000e+00	
			         2.61000	-5.00000e+00	
			         2.61167	-5.00000e+00	
			         2.61333	-4.00000e+00	
			         2.61500	-4.00000e+00	
			         2.61667	-4.00000e+00	
			         2.61833	-4.00000e+00	
			         2.62000	-3.00000e+00	
			         2.62167	-3.00000e+00	
			         2.62333	-3.00000e+00	
			         2.62500	-3.00000e+00	
			         2.62667	-3.00000e+00	
			         2.62833	-3.00000e+00	
			         2.63000	-3.00000e+00	
			         2.63167	-3.00000e+00	
			         2.63333	-4.00000e+00	
			         2.63500	-4.00000e+00	
			         2.63667	-4.00000e+00	
			         2.63833	-4.00000e+00	
			         2.64000	-4.00000e+00	
			         2.64167	-4.00000e+00	
			         2.64333	-5.00000e+00	
			         2.64500	-5.00000e+00	
			         2.64667	-5.00000e+00	
			         2.64833	-5.00000e+00	
			         2.65000	-5.00000e+00	
			         2.65167	-6.00000e+00	
			         2.65333	-6.00000e+00	
			         2.65500	-6.00000e+00	
			         2.65667	-6.00000e+00	
			         2.65833	-6.00000e+00	
			         2.66000	-6.00000e+00	
			         2.66167	-6.00000e+00	
			         2.66333	-6.00000e+00	
			         2.66500	-6.00000e+00	
			         2.66667	-6.00000e+00	
			         2.66833	-6.00000e+00	
			         2.67000	-6.00000e+00	
			         2.67167	-6.00000e+00	
			         2.67333	-6.00000e+00	
			         2.67500	-6.00000e+00	
			         2.67667	-6.00000e+00	
			         2.67833	-6.00000e+00	
			         2.68000	-5.00000e+00	
			         2.68167	-5.00000e+00	
			         2.68333	-5.00000e+00	
			         2.68500	-5.00000e+00	
			         2.68667	-5.00000e+00	
			         2.68833	-5.00000e+00	
			         2.69000	-5.00000e+00	
			         2.69167	-5.00000e+00	
			         2.69333	-6.00000e+00	
			         2.69500	-6.00000e+00	
			         2.69667	-6.00000e+00	
			         2.69833	-6.00000e+00	
			         2.70000	-7.00000e+00	
			         2.70167	-8.00000e+00	
			         2.70333	-8.00000e+00	
			         2.70500	-9.00000e+00	
			         2.70667	-9.00000e+00	
			         2.70833	-9.00000e+00	
			         2.71000	-9.00000e+00	
			         2.71167	-9.00000e+00	
			         2.71333	-9.00000e+00	
			         2.71500	-9.00000e+00	
			         2.71667	-9.00000e+00	
			         2.71833	-9.00000e+00	
			         2.72000	-9.00000e+00	
			         2.72167	-9.00000e+00	
			         2.72333	-9.00000e+00	
			         2.72500	-9.00000e+00	
			         2.72667	-9.00000e+00	
			         2.72833	-9.00000e+00	
			         2.73000	-9.00000e+00	
			         2.73167	-9.00000e+00	
			         2.73333	-1.00000e+01	
			         2.73500	-1.00000e+01	
			         2.73667	-1.00000e+01	
			         2.73833	-1.00000e+01	
			         2.74000	-1.00000e+01	
			         2.74167	-9.00000e+00	
			         2.74333	-9.00000e+00	
			         2.74500	-9.00000e+00	
			         2.74667	-9.00000e+00	
			         2.74833	-8.00000e+00	
			         2.75000	-8.00000e+00	
			         2.75167	-8.00000e+00	
			         2.75333	-8.00000e+00	
			         2.75500	-8.00000e+00	
			         2.75667	-8.00000e+00	
			         2.75833	-8.00000e+00	
			         2.76000	-8.00000e+00	
			         2.76167	-8.00000e+00	
			         2.76333	-8.00000e+00	
			         2.76500	-9.00000e+00	
			         2.76667	-9.00000e+00	
			         2.76833	-9.00000e+00	
			         2.77000	-1.00000e+01	
			         2.77167	-1.00000e+01	
			         2.77333	-1.00000e+01	
			         2.77500	-1.00000e+01	
			         2.77667	-1.10000e+01	
			         2.77833	-1.10000e+01	
			         2.78000	-1.10000e+01	
			         2.78167	-1.10000e+01	
			         2.78333	-1.10000e+01	
			         2.78500	-1.10000e+01	
			         2.78667	-1.10000e+01	
			         2.78833	-1.10000e+01	
			         2.79000	-1.00000e+01	
			         2.79167	-1.00000e+01	
			         2.79333	-9.00000e+00	
			         2.79500	-9.00000e+00	
			         2.79667	-8.00000e+00	
			         2.79833	-7.00000e+00	
			         2.80000	-7.00000e+00	
			         2.80167	-7.00000e+00	
			         2.80333	-6.00000e+00	
			         2.80500	-6.00000e+00	
			         2.80667	-6.00000e+00	
			         2.80833	-6.00000e+00	
			         2.81000	-6.00000e+00	
			         2.81167	-6.00000e+00	
			         2.81333	-6.00000e+00	
			         2.81500	-7.00000e+00	
			         2.81667	-7.00000e+00	
			         2.81833	-7.00000e+00	
			         2.82000	-7.00000e+00	
			         2.82167	-7.00000e+00	
			         2.82333	-7.00000e+00	
			         2.82500	-6.00000e+00	
			         2.82667	-6.00000e+00	
			         2.82833	-5.00000e+00	
			         2.83000	-5.00000e+00	
			         2.83167	-4.00000e+00	
			         2.83333	-4.00000e+00	
			         2.83500	-4.00000e+00	
			         2.83667	-3.00000e+00	
			         2.83833	-3.00000e+00	
			         2.84000	-3.00000e+00	
			         2.84167	-3.00000e+00	
			         2.84333	-3.00000e+00	
			         2.84500	-2.00000e+00	
			         2.84667	-2.00000e+00	
			         2.84833	-2.00000e+00	
			         2.85000	-2.00000e+00	
			         2.85167	-2.00000e+00	
			         2.85333	-2.00000e+00	
			         2.85500	-2.00000e+00	
			         2.85667	-2.00000e+00	
			         2.85833	-2.00000e+00	
			         2.86000	-1.00000e+00	
			         2.86167	-1.00000e+00	
			         2.86333	-1.00000e+00	
			         2.86500	-1.00000e+00	
			         2.86667	-1.00000e+00	
			         2.86833	0.00000e+00	
			         2.87000	0.00000e+00	
			         2.87167	0.00000e+00	
			         2.87333	0.00000e+00	
			         2.87500	0.00000e+00	
			         2.87667	1.00000e+00	
			         2.87833	1.00000e+00	
			         2.88000	1.00000e+00	
			         2.88167	1.00000e+00	
			         2.88333	1.00000e+00	
			         2.88500	1.00000e+00	
			         2.88667	1.00000e+00	
			         2.88833	1.00000e+00	
			         2.89000	1.00000e+00	
			         2.89167	1.00000e+00	
			         2.89333	1.00000e+00	
			         2.89500	1.00000e+00	
			         2.89667	1.00000e+00	
			         2.89833	1.00000e+00	
			         2.90000	2.00000e+00	
			         2.90167	2.00000e+00	
			         2.90333	2.00000e+00	
			         2.90500	2.00000e+00	
			         2.90667	2.00000e+00	
			         2.90833	3.00000e+00	
			         2.91000	3.00000e+00	
			         2.91167	3.00000e+00	
			         2.91333	3.00000e+00	
			         2.91500	3.00000e+00	
			         2.91667	3.00000e+00	
			         2.91833	4.00000e+00	
			         2.92000	3.00000e+00	
			         2.92167	3.00000e+00	
			         2.92333	3.00000e+00	
			         2.92500	2.00000e+00	
			         2.92667	2.00000e+00	
			         2.92833	1.00000e+00	
			         2.93000	1.00000e+00	
			         2.93167	0.00000e+00	
			         2.93333	0.00000e+00	
			         2.93500	-1.00000e+00	
			         2.93667	-2.00000e+00	
			         2.93833	-2.00000e+00	
			         2.94000	-3.00000e+00	
			         2.94167	-3.00000e+00	
			         2.94333	-3.00000e+00	
			         2.94500	-3.00000e+00	
			         2.94667	-4.00000e+00	
			         2.94833	-4.00000e+00	
			         2.95000	-4.00000e+00	
			         2.95167	-3.00000e+00	
			         2.95333	-3.00000e+00	
			         2.95500	-3.00000e+00	
			         2.95667	-2.00000e+00	
			         2.95833	-1.00000e+00	
			         2.96000	0.00000e+00	
			         2.96167	1.00000e+00	
			         2.96333	2.00000e+00	
			         2.96500	3.00000e+00	
			         2.96667	5.00000e+00	
			         2.96833	6.00000e+00	
			         2.97000	8.00000e+00	
			         2.97167	1.00000e+01	
			         2.97333	1.10000e+01	
			         2.97500	1.30000e+01	
			         2.97667	1.40000e+01	
			         2.97833	1.60000e+01	
			         2.98000	1.70000e+01	
			         2.98167	1.90000e+01	
			         2.98333	2.00000e+01	
			         2.98500	2.20000e+01	
			         2.98667	2.30000e+01	
			         2.98833	2.40000e+01	
			         2.99000	2.40000e+01	
			         2.99167	2.50000e+01	
			         2.99333	2.50000e+01	
			         2.99500	2.50000e+01	
			         2.99667	2.50000e+01	
			         2.99833	2.50000e+01	
			         3.00000	2.40000e+01	
			         3.00167	2.30000e+01	
			         3.00333	2.20000e+01	
			         3.00500	2.10000e+01	
			         3.00667	1.90000e+01	
			         3.00833	1.80000e+01	
			         3.01000	1.60000e+01	
			         3.01167	1.50000e+01	
			         3.01333	1.30000e+01	
			         3.01500	1.10000e+01	
			         3.01667	1.00000e+01	
			         3.01833	9.00000e+00	
			         3.02000	8.00000e+00	
			         3.02167	7.00000e+00	
			         3.02333	6.00000e+00	
			         3.02500	6.00000e+00	
			         3.02667	6.00000e+00	
			         3.02833	5.00000e+00	
			         3.03000	6.00000e+00	
			         3.03167	6.00000e+00	
			         3.03333	6.00000e+00	
			         3.03500	7.00000e+00	
			         3.03667	7.00000e+00	
			         3.03833	7.00000e+00	
			         3.04000	7.00000e+00	
			         3.04167	7.00000e+00	
			         3.04333	7.00000e+00	
			         3.04500	7.00000e+00	
			         3.04667	6.00000e+00	
			         3.04833	5.00000e+00	
			         3.05000	4.00000e+00	
			         3.05167	3.00000e+00	
			         3.05333	2.00000e+00	
			         3.05500	1.00000e+00	
			         3.05667	0.00000e+00	
			         3.05833	-2.00000e+00	
			         3.06000	-4.00000e+00	
			         3.06167	-5.00000e+00	
			         3.06333	-7.00000e+00	
			         3.06500	-9.00000e+00	
			         3.06667	-1.00000e+01	
			         3.06833	-1.20000e+01	
			         3.07000	-1.40000e+01	
			         3.07167	-1.50000e+01	
			         3.07333	-1.70000e+01	
			         3.07500	-1.80000e+01	
			         3.07667	-1.90000e+01	
			         3.07833	-2.00000e+01	
			         3.08000	-2.10000e+01	
			         3.08167	-2.20000e+01	
			         3.08333	-2.30000e+01	
			         3.08500	-2.30000e+01	
			         3.08667	-2.40000e+01	
			         3.08833	-2.40000e+01	
			         3.09000	-2.50000e+01	
			         3.09167	-2.50000e+01	
			         3.09333	-2.60000e+01	
			         3.09500	-2.60000e+01	
			         3.09667	-2.60000e+01	
			         3.09833	-2.60000e+01	
			         3.10000	-2.70000e+01	
			         3.10167	-2.70000e+01	
			         3.10333	-2.70000e+01	
			         3.10500	-2.70000e+01	
			         3.10667	-2.70000e+01	
			         3.10833	-2.70000e+01	
			         3.11000	-2.70000e+01	
			         3.11167	-2.60000e+01	
			         3.11333	-2.60000e+01	
			         3.11500	-2.60000e+01	
			         3.11667	-2.50000e+01	
			         3.11833	-2.50000e+01	
			         3.12000	-2.40000e+01	
			         3.12167	-2.40000e+01	
			         3.12333	-2.30000e+01	
			         3.12500	-2.30000e+01	
			         3.12667	-2.20000e+01	
			         3.12833	-2.20000e+01	
			         3.13000	-2.10000e+01	
			         3.13167	-2.10000e+01	
			         3.13333	-2.00000e+01	
			         3.13500	-2.00000e+01	
			         3.13667	-1.90000e+01	
			         3.13833	-1.80000e+01	
			         3.14000	-1.60000e+01	
			         3.14167	-1.40000e+01	
			         3.14333	-1.30000e+01	
			         3.14500	-1.10000e+01	
			         3.14667	-9.00000e+00	
			         3.14833	-7.00000e+00	
			         3.15000	-6.00000e+00	
			         3.15167	-4.00000e+00	
			         3.15333	-3.00000e+00	
			         3.15500	-1.00000e+00	
			         3.15667	1.00000e+00	
			         3.15833	4.00000e+00	
			         3.16000	7.00000e+00	
			         3.16167	1.20000e+01	
			         3.16333	1.90000e+01	
			         3.16500	2.80000e+01	
			         3.16667	4.00000e+01	
			         3.16833	5.50000e+01	
			         3.17000	7.20000e+01	
			         3.17167	9.10000e+01	
			         3.17333	1.13000e+02	
			         3.17500	1.35000e+02	
			         3.17667	1.57000e+02	
			         3.17833	1.78000e+02	
			         3.18000	1.97000e+02	
			         3.18167	2.12000e+02	
			         3.18333	2.23000e+02	
			         3.18500	2.29000e+02	
			         3.18667	2.29000e+02	
			         3.18833	2.24000e+02	
			         3.19000	2.12000e+02	
			         3.19167	1.96000e+02	
			         3.19333	1.75000e+02	
			         3.19500	1.52000e+02	
			         3.19667	1.25000e+02	
			         3.19833	9.80000e+01	
			         3.20000	7.00000e+01	
			         3.20167	4.30000e+01	
			         3.20333	1.80000e+01	
			         3.20500	-5.00000e+00	
			         3.20667	-2.60000e+01	
			         3.20833	-4.40000e+01	
			         3.21000	-5.80000e+01	
			         3.21167	-7.00000e+01	
			         3.21333	-7.90000e+01	
			         3.21500	-8.60000e+01	
			         3.21667	-9.00000e+01	
			         3.21833	-9.30000e+01	
			         3.22000	-9.40000e+01	
			         3.22167	-9.30000e+01	
			         3.22333	-9.20000e+01	
			         3.22500	-8.90000e+01	
			         3.22667	-8.60000e+01	
			         3.22833	-8.20000e+01	
			         3.23000	-7.80000e+01	
			         3.23167	-7.40000e+01	
			         3.23333	-7.00000e+01	
			         3.23500	-6.70000e+01	
			         3.23667	-6.30000e+01	
			         3.23833	-6.10000e+01	
			         3.24000	-5.80000e+01	
			         3.24167	-5.50000e+01	
			         3.24333	-5.30000e+01	
			         3.24500	-5.20000e+01	
