Velocity (TVI), in cm/s

Time (s) :	Trace 1 : 		Ecg : 		
0.01210   	-3.16104e+00		         0.00000	-1.00000e+01	
0.01820   	-2.98771e+00		         0.00167	-1.00000e+01	
0.02431   	-2.74333e+00		         0.00333	-9.00000e+00	
0.03069   	-2.23916e+00		         0.00500	-7.00000e+00	
0.03694   	-1.42954e+00		         0.00667	-4.00000e+00	
0.04289   	-3.30595e-01		         0.00833	2.00000e+00	
0.04900   	3.92539e-01		         0.01000	1.00000e+01	
0.05538   	1.90849e-01		         0.01167	2.10000e+01	
0.06148   	-5.21216e-01		         0.01333	3.50000e+01	
0.06758   	-1.25652e+00		         0.01500	5.10000e+01	
0.07369   	-2.03965e+00		         0.01667	7.00000e+01	
0.08007   	-2.37666e+00		         0.01833	9.00000e+01	
0.08617   	-1.64502e+00		         0.02000	1.12000e+02	
0.09228   	-3.84759e-01		         0.02167	1.36000e+02	
0.09838   	9.82664e-01		         0.02333	1.59000e+02	
0.10476   	2.31507e+00		         0.02500	1.82000e+02	
0.11086   	3.54915e+00		         0.02667	2.04000e+02	
0.11696   	4.54299e+00		         0.02833	2.23000e+02	
0.12307   	5.25286e+00		         0.03000	2.39000e+02	
0.12945   	5.65068e+00		         0.03167	2.50000e+02	
0.13582   	5.76894e+00		         0.03333	2.58000e+02	
0.14166   	5.72062e+00		         0.03500	2.60000e+02	
0.14776   	5.63060e+00		         0.03667	2.57000e+02	
0.15414   	5.52045e+00		         0.03833	2.50000e+02	
0.16024   	5.34575e+00		         0.04000	2.38000e+02	
0.16634   	5.17448e+00		         0.04167	2.22000e+02	
0.17245   	5.04397e+00		         0.04333	2.03000e+02	
0.17883   	4.93944e+00		         0.04500	1.81000e+02	
0.18508   	4.88639e+00		         0.04667	1.58000e+02	
0.19104   	4.88490e+00		         0.04833	1.33000e+02	
0.19714   	4.95027e+00		         0.05000	1.09000e+02	
0.20352   	5.03818e+00		         0.05167	8.60000e+01	
0.20962   	5.12713e+00		         0.05333	6.50000e+01	
0.21572   	5.16446e+00		         0.05500	4.50000e+01	
0.22183   	5.13502e+00		         0.05667	2.70000e+01	
0.22821   	5.02266e+00		         0.05833	1.20000e+01	
0.23431   	4.89797e+00		         0.06000	-1.00000e+00	
0.24042   	4.67772e+00		         0.06167	-1.20000e+01	
0.24652   	4.46388e+00		         0.06333	-2.10000e+01	
0.25290   	4.28765e+00		         0.06500	-2.80000e+01	
0.25900   	4.13674e+00		         0.06667	-3.40000e+01	
0.26511   	3.96439e+00		         0.06833	-3.90000e+01	
0.27121   	3.82504e+00		         0.07000	-4.40000e+01	
0.27759   	3.65335e+00		         0.07167	-4.80000e+01	
0.28369   	3.48842e+00		         0.07333	-5.10000e+01	
0.28980   	3.34895e+00		         0.07500	-5.40000e+01	
0.29590   	3.19538e+00		         0.07667	-5.70000e+01	
0.30228   	3.05021e+00		         0.07833	-6.00000e+01	
0.30838   	2.94001e+00		         0.08000	-6.20000e+01	
0.31449   	2.82465e+00		         0.08167	-6.40000e+01	
0.32059   	2.67051e+00		         0.08333	-6.60000e+01	
0.32697   	2.53440e+00		         0.08500	-6.70000e+01	
0.33307   	2.38102e+00		         0.08667	-6.80000e+01	
0.33918   	2.23103e+00		         0.08833	-6.80000e+01	
0.34528   	2.08864e+00		         0.09000	-6.80000e+01	
0.35166   	1.94724e+00		         0.09167	-6.80000e+01	
0.35776   	1.78672e+00		         0.09333	-6.80000e+01	
0.36387   	1.62842e+00		         0.09500	-6.70000e+01	
0.36997   	1.43894e+00		         0.09667	-6.50000e+01	
0.37635   	1.22147e+00		         0.09833	-6.40000e+01	
0.38245   	9.87654e-01		         0.10000	-6.30000e+01	
0.38856   	6.86487e-01		         0.10167	-6.10000e+01	
0.39466   	3.06051e-01		         0.10333	-5.90000e+01	
0.40104   	-1.99398e-01		         0.10500	-5.70000e+01	
0.40714   	-7.91273e-01		         0.10667	-5.60000e+01	
0.41325   	-1.47150e+00		         0.10833	-5.40000e+01	
0.41935   	-1.85918e+00		         0.11000	-5.20000e+01	
0.42573   	-1.27527e+00		         0.11167	-5.10000e+01	
0.43183   	-5.68498e-01		         0.11333	-4.90000e+01	
0.43794   	2.16946e-01		         0.11500	-4.80000e+01	
0.44404   	1.23802e+00		         0.11667	-4.60000e+01	
0.45065   	2.16421e+00		         0.11833	-4.50000e+01	
0.45652   	2.27154e+00		         0.12000	-4.40000e+01	
0.46263   	2.51979e+00		         0.12167	-4.30000e+01	
0.46873   	2.80877e+00		         0.12333	-4.20000e+01	
0.47511   	2.94291e+00		         0.12500	-4.10000e+01	
0.48121   	2.89545e+00		         0.12667	-4.00000e+01	
0.48732   	2.62903e+00		         0.12833	-3.80000e+01	
0.49342   	2.25708e+00		         0.13000	-3.70000e+01	
0.49980   	1.79310e+00		         0.13167	-3.60000e+01	
0.50590   	1.11355e+00		         0.13333	-3.50000e+01	
0.51201   	3.66473e-01		         0.13500	-3.40000e+01	
0.51811   	-2.84106e-01		         0.13667	-3.30000e+01	
0.52449   	-1.03423e+00		         0.13833	-3.20000e+01	
0.53059   	-1.80932e+00		         0.14000	-3.10000e+01	
0.53670   	-2.30229e+00		         0.14167	-3.00000e+01	
0.54280   	-2.65276e+00		         0.14333	-2.90000e+01	
0.54918   	-2.94611e+00		         0.14500	-2.80000e+01	
0.55528   	-3.13598e+00		         0.14667	-2.70000e+01	
0.56139   	-3.14275e+00		         0.14833	-2.60000e+01	
0.56749   	-3.12044e+00		         0.15000	-2.50000e+01	
0.57387   	-3.07254e+00		         0.15167	-2.40000e+01	
0.57997   	-2.97358e+00		         0.15333	-2.30000e+01	
0.58608   	-2.83524e+00		         0.15500	-2.30000e+01	
0.59218   	-2.72875e+00		         0.15667	-2.20000e+01	
0.59856   	-2.59163e+00		         0.15833	-2.10000e+01	
0.60467   	-2.46564e+00		         0.16000	-2.00000e+01	
0.61077   	-2.31401e+00		         0.16167	-2.00000e+01	
0.61687   	-2.15078e+00		         0.16333	-1.90000e+01	
0.62325   	-1.97721e+00		         0.16500	-1.80000e+01	
0.62935   	-1.80873e+00		         0.16667	-1.70000e+01	
0.63546   	-1.62551e+00		         0.16833	-1.60000e+01	
0.64156   	-1.46414e+00		         0.17000	-1.50000e+01	
0.64794   	-1.29955e+00		         0.17167	-1.40000e+01	
0.65404   	-1.18225e+00		         0.17333	-1.30000e+01	
0.66015   	-1.13950e+00		         0.17500	-1.20000e+01	
0.66664   	-1.08464e+00		         0.17667	-1.10000e+01	
0.67263   	-1.03831e+00		         0.17833	-1.00000e+01	
0.67873   	-1.05053e+00		         0.18000	-1.00000e+01	
0.68484   	-1.07751e+00		         0.18167	-9.00000e+00	
0.69094   	-1.07773e+00		         0.18333	-9.00000e+00	
0.69732   	-1.09086e+00		         0.18500	-9.00000e+00	
0.70342   	-1.09988e+00		         0.18667	-8.00000e+00	
0.70953   	-1.06601e+00		         0.18833	-9.00000e+00	
0.71563   	-1.00481e+00		         0.19000	-9.00000e+00	
0.72201   	-9.40458e-01		         0.19167	-9.00000e+00	
0.72811   	-8.92455e-01		         0.19333	-9.00000e+00	
0.73422   	-8.64611e-01		         0.19500	-9.00000e+00	
0.74032   	-8.56582e-01		         0.19667	-9.00000e+00	
0.74670   	-8.60186e-01		         0.19833	-9.00000e+00	
0.75281   	-8.79555e-01		         0.20000	-9.00000e+00	
0.75891   	-8.86266e-01		         0.20167	-9.00000e+00	
0.76501   	-9.07996e-01		         0.20333	-9.00000e+00	
0.77139   	-9.49152e-01		         0.20500	-8.00000e+00	
0.77749   	-1.02487e+00		         0.20667	-7.00000e+00	
0.78360   	-1.18396e+00		         0.20833	-7.00000e+00	
0.78970   	-1.49443e+00		         0.21000	-6.00000e+00	
0.79608   	-1.96303e+00		         0.21167	-5.00000e+00	
0.80218   	-2.63319e+00		         0.21333	-3.00000e+00	
0.80829   	-3.48986e+00		         0.21500	-2.00000e+00	
0.81439   	-4.48429e+00		         0.21667	-1.00000e+00	
0.82077   	-5.49401e+00		         0.21833	0.00000e+00	
0.82688   	-6.26933e+00		         0.22000	1.00000e+00	
0.83298   	-6.88037e+00		         0.22167	2.00000e+00	
0.83908   	-7.24690e+00		         0.22333	2.00000e+00	
0.84546   	-7.34674e+00		         0.22500	3.00000e+00	
0.85156   	-7.29803e+00		         0.22667	4.00000e+00	
0.85767   	-7.21690e+00		         0.22833	4.00000e+00	
0.86377   	-6.96980e+00		         0.23000	5.00000e+00	
0.87015   	-6.70269e+00		         0.23167	6.00000e+00	
0.87625   	-6.34051e+00		         0.23333	6.00000e+00	
0.88248   	-5.80579e+00		         0.23500	7.00000e+00	
0.88846   	-5.21031e+00		         0.23667	8.00000e+00	
0.89484   	-4.62239e+00		         0.23833	9.00000e+00	
0.90094   	-4.06038e+00		         0.24000	1.00000e+01	
0.90705   	-3.72049e+00		         0.24167	1.20000e+01	
0.91315   	-3.47327e+00		         0.24333	1.30000e+01	
0.91953   	-3.27416e+00		         0.24500	1.50000e+01	
0.92563   	-2.98829e+00		         0.24667	1.60000e+01	
0.93174   	-2.82743e+00		         0.24833	1.80000e+01	
0.93785   	-1.84794e+00		         0.25000	1.90000e+01	
0.94422   	-7.85347e-01		         0.25167	2.10000e+01	
0.95032   	-1.67099e-01		         0.25333	2.20000e+01	
0.95643   	-4.35742e-01		         0.25500	2.40000e+01	
0.96253   	-8.55144e-01		         0.25667	2.50000e+01	
0.96891   	-1.57208e+00		         0.25833	2.60000e+01	
0.97501   	-2.13018e+00		         0.26000	2.80000e+01	
0.98112   	-2.05515e+00		         0.26167	2.90000e+01	
0.98723   	-1.13742e+00		         0.26333	3.00000e+01	
0.99360   	3.89594e-01		         0.26500	3.20000e+01	
0.99970   	1.81470e+00		         0.26667	3.30000e+01	
1.00581   	3.06213e+00		         0.26833	3.50000e+01	
1.01192   	4.10709e+00		         0.27000	3.70000e+01	
1.01829   	5.04023e+00		         0.27167	3.80000e+01	
1.02440   	5.60126e+00		         0.27333	4.00000e+01	
1.03050   	5.83598e+00		         0.27500	4.20000e+01	
1.03660   	5.88826e+00		         0.27667	4.40000e+01	
1.04298   	5.83864e+00		         0.27833	4.60000e+01	
1.04918   	5.76361e+00		         0.28000	4.80000e+01	
1.05519   	5.63552e+00		         0.28167	5.00000e+01	
1.06129   	5.47343e+00		         0.28333	5.20000e+01	
1.06767   	5.34975e+00		         0.28500	5.30000e+01	
1.07377   	5.22672e+00		         0.28667	5.40000e+01	
1.07988   	5.07330e+00		         0.28833	5.60000e+01	
1.08599   	5.00798e+00		         0.29000	5.70000e+01	
1.09236   	4.98451e+00		         0.29167	5.80000e+01	
1.09846   	4.98772e+00		         0.29333	5.80000e+01	
1.10457   	4.98103e+00		         0.29500	5.90000e+01	
1.11067   	4.99623e+00		         0.29667	5.90000e+01	
1.11705   	4.96715e+00		         0.29833	6.00000e+01	
1.12315   	4.90102e+00		         0.30000	6.00000e+01	
1.12926   	4.81074e+00		         0.30167	6.10000e+01	
1.13536   	4.72398e+00		         0.30333	6.10000e+01	
1.14174   	4.60736e+00		         0.30500	6.20000e+01	
1.14784   	4.52755e+00		         0.30667	6.20000e+01	
1.15395   	4.46480e+00		         0.30833	6.20000e+01	
1.16006   	4.38028e+00		         0.31000	6.10000e+01	
1.16643   	4.28914e+00		         0.31167	6.10000e+01	
1.17254   	4.17959e+00		         0.31333	6.00000e+01	
1.17864   	4.04515e+00		         0.31500	5.90000e+01	
1.18474   	3.86738e+00		         0.31667	5.70000e+01	
1.19112   	3.68462e+00		         0.31833	5.60000e+01	
1.19722   	3.50490e+00		         0.32000	5.30000e+01	
1.20333   	3.35708e+00		         0.32167	5.10000e+01	
1.20944   	3.18537e+00		         0.32333	4.80000e+01	
1.21581   	3.03954e+00		         0.32500	4.40000e+01	
1.22192   	2.88412e+00		         0.32667	4.00000e+01	
1.22802   	2.72201e+00		         0.32833	3.60000e+01	
1.23412   	2.54664e+00		         0.33000	3.20000e+01	
1.24050   	2.35286e+00		         0.33167	2.70000e+01	
1.24660   	2.17658e+00		         0.33333	2.20000e+01	
1.25271   	2.01844e+00		         0.33500	1.70000e+01	
1.25882   	1.85646e+00		         0.33667	1.20000e+01	
1.26519   	1.70527e+00		         0.33833	7.00000e+00	
1.27130   	1.55590e+00		         0.34000	2.00000e+00	
1.27740   	1.35284e+00		         0.34167	-3.00000e+00	
1.28350   	1.11724e+00		         0.34333	-7.00000e+00	
1.28989   	7.88197e-01		         0.34500	-1.20000e+01	
1.29598   	3.11349e-01		         0.34667	-1.60000e+01	
1.30209   	-2.90704e-01		         0.34833	-2.00000e+01	
1.30820   	-1.01966e+00		         0.35000	-2.40000e+01	
1.31457   	-1.79199e+00		         0.35167	-2.70000e+01	
1.32068   	-2.09329e+00		         0.35333	-3.00000e+01	
1.32678   	-1.47984e+00		         0.35500	-3.40000e+01	
1.33288   	-7.92489e-01		         0.35667	-3.70000e+01	
1.33926   	8.05832e-02		         0.35833	-4.00000e+01	
1.34536   	1.22675e+00		         0.36000	-4.30000e+01	
1.35147   	2.04971e+00		         0.36167	-4.50000e+01	
1.35758   	2.22635e+00		         0.36333	-4.80000e+01	
1.36396   	2.53547e+00		         0.36500	-5.00000e+01	
1.37006   	2.83416e+00		         0.36667	-5.20000e+01	
1.37616   	2.92502e+00		         0.36833	-5.30000e+01	
1.38226   	2.93009e+00		         0.37000	-5.50000e+01	
1.38864   	2.69785e+00		         0.37167	-5.60000e+01	
1.39475   	2.32039e+00		         0.37333	-5.70000e+01	
1.40086   	1.77135e+00		         0.37500	-5.70000e+01	
1.40696   	1.06883e+00		         0.37667	-5.80000e+01	
1.41368   	2.97021e-01		         0.37833	-5.80000e+01	
1.41944   	-4.53908e-01		         0.38000	-5.80000e+01	
1.42554   	-1.17724e+00		         0.38167	-5.80000e+01	
1.43164   	-1.81927e+00		         0.38333	-5.80000e+01	
1.43803   	-2.26896e+00		         0.38500	-5.80000e+01	
1.44412   	-2.61147e+00		         0.38667	-5.80000e+01	
1.45023   	-2.84521e+00		         0.38833	-5.80000e+01	
1.45634   	-2.96710e+00		         0.39000	-5.80000e+01	
1.46271   	-2.94625e+00		         0.39167	-5.70000e+01	
1.46882   	-2.95381e+00		         0.39333	-5.70000e+01	
1.47492   	-2.92840e+00		         0.39500	-5.60000e+01	
1.48102   	-2.86559e+00		         0.39667	-5.50000e+01	
1.48740   	-2.83085e+00		         0.39833	-5.40000e+01	
1.49351   	-2.77426e+00		         0.40000	-5.40000e+01	
1.49961   	-2.65658e+00		         0.40167	-5.20000e+01	
1.50572   	-2.46219e+00		         0.40333	-5.10000e+01	
1.51209   	-2.32221e+00		         0.40500	-5.00000e+01	
1.51820   	-2.13896e+00		         0.40667	-4.90000e+01	
1.52430   	-1.99807e+00		         0.40833	-4.80000e+01	
1.53040   	-1.86276e+00		         0.41000	-4.60000e+01	
1.53678   	-1.76513e+00		         0.41167	-4.50000e+01	
1.54289   	-1.62686e+00		         0.41333	-4.40000e+01	
1.54899   	-1.46511e+00		         0.41500	-4.30000e+01	
1.55510   	-1.31589e+00		         0.41667	-4.20000e+01	
1.56147   	-1.20484e+00		         0.41833	-4.10000e+01	
1.56758   	-1.14491e+00		         0.42000	-3.90000e+01	
1.57368   	-1.07024e+00		         0.42167	-3.80000e+01	
1.57979   	-1.04807e+00		         0.42333	-3.70000e+01	
1.58617   	-1.05645e+00		         0.42500	-3.60000e+01	
1.59227   	-1.05974e+00		         0.42667	-3.50000e+01	
1.59837   	-1.06151e+00		         0.42833	-3.40000e+01	
1.60448   	-1.05515e+00		         0.43000	-3.30000e+01	
1.61085   	-1.03955e+00		         0.43167	-3.20000e+01	
1.61696   	-9.82116e-01		         0.43333	-3.10000e+01	
1.62306   	-9.04418e-01		         0.43500	-3.00000e+01	
1.62917   	-8.21991e-01		         0.43667	-2.90000e+01	
1.63554   	-7.60488e-01		         0.43833	-2.80000e+01	
1.64165   	-6.91975e-01		         0.44000	-2.70000e+01	
1.64775   	-6.67121e-01		         0.44167	-2.60000e+01	
1.65386   	-6.66585e-01		         0.44333	-2.60000e+01	
1.66023   	-6.80147e-01		         0.44500	-2.50000e+01	
1.66634   	-7.18609e-01		         0.44667	-2.50000e+01	
1.67244   	-8.20565e-01		         0.44833	-2.50000e+01	
1.67854   	-9.46122e-01		         0.45000	-2.40000e+01	
1.68492   	-1.13887e+00		         0.45167	-2.40000e+01	
1.69103   	-1.52853e+00		         0.45333	-2.40000e+01	
1.69713   	-2.10463e+00		         0.45500	-2.30000e+01	
1.70324   	-2.93399e+00		         0.45667	-2.30000e+01	
1.70961   	-3.97879e+00		         0.45833	-2.30000e+01	
1.71572   	-5.14083e+00		         0.46000	-2.20000e+01	
1.72182   	-6.15426e+00		         0.46167	-2.20000e+01	
1.72792   	-6.99779e+00		         0.46333	-2.10000e+01	
1.73430   	-7.47655e+00		         0.46500	-2.00000e+01	
1.74041   	-7.69061e+00		         0.46667	-2.00000e+01	
1.74651   	-7.59443e+00		         0.46833	-1.90000e+01	
1.75262   	-7.51059e+00		         0.47000	-1.80000e+01	
1.75899   	-7.31803e+00		         0.47167	-1.70000e+01	
1.76510   	-7.03921e+00		         0.47333	-1.70000e+01	
1.77120   	-6.66882e+00		         0.47500	-1.70000e+01	
1.77731   	-6.29795e+00		         0.47667	-1.60000e+01	
1.78368   	-5.69612e+00		         0.47833	-1.60000e+01	
1.78978   	-5.06048e+00		         0.48000	-1.60000e+01	
1.79589   	-4.45340e+00		         0.48167	-1.60000e+01	
1.80200   	-3.98796e+00		         0.48333	-1.60000e+01	
1.80837   	-3.62782e+00		         0.48500	-1.60000e+01	
1.81448   	-3.34006e+00		         0.48667	-1.60000e+01	
1.82058   	-3.02697e+00		         0.48833	-1.60000e+01	
1.82669   	-2.76734e+00		         0.49000	-1.50000e+01	
1.83307   	-2.14946e+00		         0.49167	-1.50000e+01	
1.83917   	-1.28130e+00		         0.49333	-1.50000e+01	
1.84542   	-3.95004e-01		         0.49500	-1.50000e+01	
1.85138   	-2.44420e-01		         0.49667	-1.40000e+01	
1.85775   	-6.23806e-01		         0.49833	-1.40000e+01	
1.86386   	-1.37392e+00		         0.50000	-1.30000e+01	
1.86996   	-1.97322e+00		         0.50167	-1.30000e+01	
1.87607   	-2.28402e+00		         0.50333	-1.20000e+01	
1.88245   	-1.79099e+00		         0.50500	-1.10000e+01	
1.88855   	-5.65411e-01		         0.50667	-1.10000e+01	
1.89465   	9.93103e-01		         0.50833	-1.00000e+01	
1.90076   	2.43722e+00		         0.51000	-1.00000e+01	
1.90714   	3.57952e+00		         0.51167	-9.00000e+00	
1.91324   	4.60250e+00		         0.51333	-9.00000e+00	
1.91934   	5.42892e+00		         0.51500	-8.00000e+00	
1.92545   	5.91766e+00		         0.51667	-8.00000e+00	
1.93182   	6.07172e+00		         0.51833	-7.00000e+00	
1.93793   	6.08858e+00		         0.52000	-7.00000e+00	
1.94403   	5.93113e+00		         0.52167	-6.00000e+00	
1.95014   	5.65569e+00		         0.52333	-6.00000e+00	
1.95651   	5.43143e+00		         0.52500	-5.00000e+00	
1.96262   	5.24734e+00		         0.52667	-5.00000e+00	
1.96872   	5.09975e+00		         0.52833	-4.00000e+00	
1.97483   	5.04960e+00		         0.53000	-4.00000e+00	
1.98120   	5.06565e+00		         0.53167	-4.00000e+00	
1.98731   	5.04660e+00		         0.53333	-3.00000e+00	
1.99341   	5.04614e+00		         0.53500	-3.00000e+00	
1.99952   	5.02841e+00		         0.53667	-3.00000e+00	
2.00589   	5.00658e+00		         0.53833	-4.00000e+00	
2.01200   	4.99187e+00		         0.54000	-4.00000e+00	
2.01810   	4.98293e+00		         0.54167	-4.00000e+00	
2.02421   	4.95491e+00		         0.54333	-5.00000e+00	
2.03058   	4.92170e+00		         0.54500	-5.00000e+00	
2.03669   	4.81514e+00		         0.54667	-5.00000e+00	
2.04279   	4.70537e+00		         0.54833	-6.00000e+00	
2.04890   	4.59343e+00		         0.55000	-6.00000e+00	
2.05527   	4.43688e+00		         0.55167	-6.00000e+00	
2.06153   	4.32475e+00		         0.55333	-6.00000e+00	
2.06748   	4.24744e+00		         0.55500	-6.00000e+00	
2.07359   	4.09593e+00		         0.55667	-6.00000e+00	
2.07996   	3.95451e+00		         0.55833	-6.00000e+00	
2.08607   	3.84824e+00		         0.56000	-5.00000e+00	
2.09217   	3.69032e+00		         0.56167	-5.00000e+00	
2.09828   	3.54340e+00		         0.56333	-5.00000e+00	
2.10466   	3.40481e+00		         0.56500	-4.00000e+00	
2.11101   	3.30150e+00		         0.56667	-4.00000e+00	
2.11687   	3.15201e+00		         0.56833	-3.00000e+00	
2.12297   	3.00316e+00		         0.57000	-3.00000e+00	
2.12934   	2.81716e+00		         0.57167	-2.00000e+00	
2.13545   	2.67137e+00		         0.57333	-2.00000e+00	
2.14155   	2.49265e+00		         0.57500	-2.00000e+00	
2.14766   	2.33907e+00		         0.57667	-2.00000e+00	
2.15404   	2.17821e+00		         0.57833	-1.00000e+00	
2.16014   	2.03161e+00		         0.58000	-1.00000e+00	
2.16624   	1.83279e+00		         0.58167	-1.00000e+00	
2.17235   	1.62768e+00		         0.58333	-2.00000e+00	
2.17872   	1.39216e+00		         0.58500	-2.00000e+00	
2.18483   	1.11739e+00		         0.58667	-2.00000e+00	
2.19093   	7.86561e-01		         0.58833	-3.00000e+00	
2.19704   	3.06654e-01		         0.59000	-3.00000e+00	
2.20342   	-3.72101e-01		         0.59167	-4.00000e+00	
2.20952   	-1.05987e+00		         0.59333	-4.00000e+00	
2.21563   	-1.62560e+00		         0.59500	-5.00000e+00	
2.22173   	-1.55604e+00		         0.59667	-6.00000e+00	
2.22810   	-9.34130e-01		         0.59833	-6.00000e+00	
2.23421   	-2.43956e-02		         0.60000	-7.00000e+00	
2.24032   	1.00150e+00		         0.60167	-7.00000e+00	
2.24642   	2.08152e+00		         0.60333	-7.00000e+00	
2.25280   	2.66246e+00		         0.60500	-7.00000e+00	
2.25890   	2.95615e+00		         0.60667	-7.00000e+00	
2.26501   	3.24648e+00		         0.60833	-7.00000e+00	
2.27111   	3.43727e+00		         0.61000	-6.00000e+00	
2.27748   	3.46220e+00		         0.61167	-6.00000e+00	
2.28359   	3.30172e+00		         0.61333	-5.00000e+00	
2.28970   	2.87537e+00		         0.61500	-4.00000e+00	
2.29580   	2.26239e+00		         0.61667	-3.00000e+00	
2.30218   	1.64048e+00		         0.61833	-3.00000e+00	
2.30828   	8.72411e-01		         0.62000	-2.00000e+00	
2.31439   	1.09021e-01		         0.62167	-2.00000e+00	
2.32049   	-5.86939e-01		         0.62333	-2.00000e+00	
2.32686   	-1.16737e+00		         0.62500	-1.00000e+00	
2.33297   	-1.74074e+00		         0.62667	-1.00000e+00	
2.33907   	-2.14355e+00		         0.62833	-1.00000e+00	
2.34518   	-2.36664e+00		         0.63000	-1.00000e+00	
2.35156   	-2.48211e+00		         0.63167	-2.00000e+00	
2.35766   	-2.49102e+00		         0.63333	-2.00000e+00	
2.36376   	-2.51150e+00		         0.63500	-3.00000e+00	
2.36987   	-2.38543e+00		         0.63667	-3.00000e+00	
2.37642   	-2.34907e+00		         0.63833	-4.00000e+00	
2.38235   	-2.23220e+00		         0.64000	-4.00000e+00	
2.38846   	-2.25911e+00		         0.64167	-5.00000e+00	
2.39456   	-2.19742e+00		         0.64333	-5.00000e+00	
2.40094   	-2.19833e+00		         0.64500	-5.00000e+00	
2.40704   	-2.10986e+00		         0.64667	-5.00000e+00	
2.41314   	-2.02665e+00		         0.64833	-5.00000e+00	
2.41925   	-1.87691e+00		         0.65000	-5.00000e+00	
2.42562   	-1.72436e+00		         0.65167	-4.00000e+00	
2.43173   	-1.56529e+00		         0.65333	-4.00000e+00	
2.43784   	-1.43373e+00		         0.65500	-4.00000e+00	
2.44394   	-1.33685e+00		         0.65667	-3.00000e+00	
2.45032   	-1.24013e+00		         0.65833	-3.00000e+00	
2.45642   	-1.14861e+00		         0.66000	-3.00000e+00	
2.46252   	-1.08872e+00		         0.66167	-3.00000e+00	
2.46863   	-1.03028e+00		         0.66333	-3.00000e+00	
2.47500   	-1.01870e+00		         0.66500	-3.00000e+00	
2.48111   	-9.72543e-01		         0.66667	-3.00000e+00	
2.48721   	-9.77372e-01		         0.66833	-3.00000e+00	
2.49332   	-9.78055e-01		         0.67000	-3.00000e+00	
2.49970   	-9.79506e-01		         0.67167	-4.00000e+00	
2.50580   	-9.35158e-01		         0.67333	-3.00000e+00	
2.51190   	-9.18986e-01		         0.67500	-3.00000e+00	
2.51801   	-8.78094e-01		         0.67667	-3.00000e+00	
2.52438   	-8.46707e-01		         0.67833	-3.00000e+00	
2.53049   	-8.30767e-01		         0.68000	-3.00000e+00	
2.53659   	-8.08783e-01		         0.68167	-3.00000e+00	
2.54270   	-8.14038e-01		         0.68333	-2.00000e+00	
2.54908   	-8.14349e-01		         0.68500	-2.00000e+00	
2.55518   	-8.05215e-01		         0.68667	-2.00000e+00	
2.56128   	-8.20663e-01		         0.68833	-1.00000e+00	
2.56739   	-8.94341e-01		         0.69000	-1.00000e+00	
2.57376   	-9.88159e-01		         0.69167	-1.00000e+00	
2.57994   	-1.19270e+00		         0.69333	-1.00000e+00	
2.58598   	-1.57128e+00		         0.69500	-1.00000e+00	
2.59208   	-2.12926e+00		         0.69667	-1.00000e+00	
2.59846   	-2.86772e+00		         0.69833	-1.00000e+00	
2.60456   	-3.84176e+00		         0.70000	-1.00000e+00	
2.61066   	-4.83343e+00		         0.70167	-1.00000e+00	
2.61677   	-5.78893e+00		         0.70333	-1.00000e+00	
2.62315   	-6.52551e+00		         0.70500	-1.00000e+00	
2.62925   	-7.12602e+00		         0.70667	-1.00000e+00	
2.63536   	-7.40389e+00		         0.70833	-1.00000e+00	
2.64146   	-7.48584e+00		         0.71000	-1.00000e+00	
2.64784   	-7.34538e+00		         0.71167	-1.00000e+00	
2.65394   	-7.16453e+00		         0.71333	-1.00000e+00	
2.66005   	-6.78264e+00		         0.71500	-1.00000e+00	
2.66615   	-6.44165e+00		         0.71667	-1.00000e+00	
2.67253   	-6.04821e+00		         0.71833	-1.00000e+00	
2.67863   	-5.59309e+00		         0.72000	0.00000e+00	
2.68474   	-5.04058e+00		         0.72167	0.00000e+00	
2.69084   	-4.59472e+00		         0.72333	0.00000e+00	
2.69722   	-4.12843e+00		         0.72500	1.00000e+00	
2.70332   	-3.75901e+00		         0.72667	1.00000e+00	
2.70942   	-3.48665e+00		         0.72833	1.00000e+00	
2.71553   	-3.24151e+00		         0.73000	2.00000e+00	
2.72191   	-2.90955e+00		         0.73167	2.00000e+00	
2.72801   	-2.46152e+00		         0.73333	2.00000e+00	
2.73412   	-1.27525e+00		         0.73500	2.00000e+00	
2.74022   	-8.18239e-01		         0.73667	2.00000e+00	
2.74660   	-2.55925e-01		         0.73833	3.00000e+00	
			         0.74000	3.00000e+00	
			         0.74167	3.00000e+00	
			         0.74333	4.00000e+00	
			         0.74500	4.00000e+00	
			         0.74667	5.00000e+00	
			         0.74833	6.00000e+00	
			         0.75000	6.00000e+00	
			         0.75167	7.00000e+00	
			         0.75333	8.00000e+00	
			         0.75500	8.00000e+00	
			         0.75667	9.00000e+00	
			         0.75833	9.00000e+00	
			         0.76000	9.00000e+00	
			         0.76167	9.00000e+00	
			         0.76333	9.00000e+00	
			         0.76500	9.00000e+00	
			         0.76667	9.00000e+00	
			         0.76833	9.00000e+00	
			         0.77000	9.00000e+00	
			         0.77167	9.00000e+00	
			         0.77333	9.00000e+00	
			         0.77500	9.00000e+00	
			         0.77667	9.00000e+00	
			         0.77833	9.00000e+00	
			         0.78000	9.00000e+00	
			         0.78167	8.00000e+00	
			         0.78333	7.00000e+00	
			         0.78500	7.00000e+00	
			         0.78667	6.00000e+00	
			         0.78833	5.00000e+00	
			         0.79000	4.00000e+00	
			         0.79167	2.00000e+00	
			         0.79333	1.00000e+00	
			         0.79500	1.00000e+00	
			         0.79667	0.00000e+00	
			         0.79833	-1.00000e+00	
			         0.80000	-1.00000e+00	
			         0.80167	-2.00000e+00	
			         0.80333	-2.00000e+00	
			         0.80500	-2.00000e+00	
			         0.80667	-2.00000e+00	
			         0.80833	-2.00000e+00	
			         0.81000	-2.00000e+00	
			         0.81167	-2.00000e+00	
			         0.81333	-1.00000e+00	
			         0.81500	-1.00000e+00	
			         0.81667	-1.00000e+00	
			         0.81833	-1.00000e+00	
			         0.82000	-2.00000e+00	
			         0.82167	-2.00000e+00	
			         0.82333	-2.00000e+00	
			         0.82500	-2.00000e+00	
			         0.82667	-2.00000e+00	
			         0.82833	-2.00000e+00	
			         0.83000	-3.00000e+00	
			         0.83167	-3.00000e+00	
			         0.83333	-3.00000e+00	
			         0.83500	-4.00000e+00	
			         0.83667	-4.00000e+00	
			         0.83833	-4.00000e+00	
			         0.84000	-4.00000e+00	
			         0.84167	-3.00000e+00	
			         0.84333	-3.00000e+00	
			         0.84500	-4.00000e+00	
			         0.84667	-4.00000e+00	
			         0.84833	-4.00000e+00	
			         0.85000	-4.00000e+00	
			         0.85167	-5.00000e+00	
			         0.85333	-5.00000e+00	
			         0.85500	-5.00000e+00	
			         0.85667	-6.00000e+00	
			         0.85833	-6.00000e+00	
			         0.86000	-6.00000e+00	
			         0.86167	-7.00000e+00	
			         0.86333	-7.00000e+00	
			         0.86500	-7.00000e+00	
			         0.86667	-7.00000e+00	
			         0.86833	-7.00000e+00	
			         0.87000	-7.00000e+00	
			         0.87167	-7.00000e+00	
			         0.87333	-7.00000e+00	
			         0.87500	-7.00000e+00	
			         0.87667	-6.00000e+00	
			         0.87833	-6.00000e+00	
			         0.88000	-6.00000e+00	
			         0.88167	-5.00000e+00	
			         0.88333	-5.00000e+00	
			         0.88500	-5.00000e+00	
			         0.88667	-5.00000e+00	
			         0.88833	-5.00000e+00	
			         0.89000	-5.00000e+00	
			         0.89167	-5.00000e+00	
			         0.89333	-6.00000e+00	
			         0.89500	-7.00000e+00	
			         0.89667	-8.00000e+00	
			         0.89833	-8.00000e+00	
			         0.90000	-8.00000e+00	
			         0.90167	-8.00000e+00	
			         0.90333	-6.00000e+00	
			         0.90500	-4.00000e+00	
			         0.90667	1.00000e+00	
			         0.90833	7.00000e+00	
			         0.91000	1.60000e+01	
			         0.91167	2.80000e+01	
			         0.91333	4.20000e+01	
			         0.91500	5.80000e+01	
			         0.91667	7.70000e+01	
			         0.91833	9.80000e+01	
			         0.92000	1.20000e+02	
			         0.92167	1.43000e+02	
			         0.92333	1.66000e+02	
			         0.92500	1.88000e+02	
			         0.92667	2.09000e+02	
			         0.92833	2.28000e+02	
			         0.93000	2.43000e+02	
			         0.93167	2.53000e+02	
			         0.93333	2.60000e+02	
			         0.93500	2.61000e+02	
			         0.93667	2.58000e+02	
			         0.93833	2.51000e+02	
			         0.94000	2.39000e+02	
			         0.94167	2.23000e+02	
			         0.94333	2.04000e+02	
			         0.94500	1.83000e+02	
			         0.94667	1.60000e+02	
			         0.94833	1.37000e+02	
			         0.95000	1.14000e+02	
			         0.95167	9.20000e+01	
			         0.95333	7.20000e+01	
			         0.95500	5.30000e+01	
			         0.95667	3.60000e+01	
			         0.95833	2.10000e+01	
			         0.96000	8.00000e+00	
			         0.96167	-3.00000e+00	
			         0.96333	-1.20000e+01	
			         0.96500	-1.90000e+01	
			         0.96667	-2.60000e+01	
			         0.96833	-3.10000e+01	
			         0.97000	-3.60000e+01	
			         0.97167	-4.00000e+01	
			         0.97333	-4.30000e+01	
			         0.97500	-4.60000e+01	
			         0.97667	-4.90000e+01	
			         0.97833	-5.10000e+01	
			         0.98000	-5.30000e+01	
			         0.98167	-5.40000e+01	
			         0.98333	-5.50000e+01	
			         0.98500	-5.60000e+01	
			         0.98667	-5.70000e+01	
			         0.98833	-5.70000e+01	
			         0.99000	-5.80000e+01	
			         0.99167	-5.80000e+01	
			         0.99333	-5.70000e+01	
			         0.99500	-5.70000e+01	
			         0.99667	-5.70000e+01	
			         0.99833	-5.60000e+01	
			         1.00000	-5.60000e+01	
			         1.00167	-5.50000e+01	
			         1.00333	-5.40000e+01	
			         1.00500	-5.30000e+01	
			         1.00667	-5.20000e+01	
			         1.00833	-5.10000e+01	
			         1.01000	-5.00000e+01	
			         1.01167	-4.90000e+01	
			         1.01333	-4.80000e+01	
			         1.01500	-4.60000e+01	
			         1.01667	-4.50000e+01	
			         1.01833	-4.40000e+01	
			         1.02000	-4.30000e+01	
			         1.02167	-4.10000e+01	
			         1.02333	-4.00000e+01	
			         1.02500	-3.90000e+01	
			         1.02667	-3.80000e+01	
			         1.02833	-3.70000e+01	
			         1.03000	-3.50000e+01	
			         1.03167	-3.40000e+01	
			         1.03333	-3.30000e+01	
			         1.03500	-3.20000e+01	
			         1.03667	-3.00000e+01	
			         1.03833	-2.90000e+01	
			         1.04000	-2.90000e+01	
			         1.04167	-2.80000e+01	
			         1.04333	-2.70000e+01	
			         1.04500	-2.60000e+01	
			         1.04667	-2.60000e+01	
			         1.04833	-2.50000e+01	
			         1.05000	-2.40000e+01	
			         1.05167	-2.30000e+01	
			         1.05333	-2.20000e+01	
			         1.05500	-2.10000e+01	
			         1.05667	-2.00000e+01	
			         1.05833	-1.90000e+01	
			         1.06000	-1.90000e+01	
			         1.06167	-1.80000e+01	
			         1.06333	-1.70000e+01	
			         1.06500	-1.60000e+01	
			         1.06667	-1.50000e+01	
			         1.06833	-1.40000e+01	
			         1.07000	-1.30000e+01	
			         1.07167	-1.20000e+01	
			         1.07333	-1.10000e+01	
			         1.07500	-1.00000e+01	
			         1.07667	-9.00000e+00	
			         1.07833	-8.00000e+00	
			         1.08000	-7.00000e+00	
			         1.08167	-6.00000e+00	
			         1.08333	-5.00000e+00	
			         1.08500	-4.00000e+00	
			         1.08667	-3.00000e+00	
			         1.08833	-2.00000e+00	
			         1.09000	-1.00000e+00	
			         1.09167	-1.00000e+00	
			         1.09333	0.00000e+00	
			         1.09500	1.00000e+00	
			         1.09667	2.00000e+00	
			         1.09833	3.00000e+00	
			         1.10000	4.00000e+00	
			         1.10167	4.00000e+00	
			         1.10333	5.00000e+00	
			         1.10500	5.00000e+00	
			         1.10667	6.00000e+00	
			         1.10833	6.00000e+00	
			         1.11000	6.00000e+00	
			         1.11167	7.00000e+00	
			         1.11333	7.00000e+00	
			         1.11500	7.00000e+00	
			         1.11667	7.00000e+00	
			         1.11833	8.00000e+00	
			         1.12000	8.00000e+00	
			         1.12167	9.00000e+00	
			         1.12333	9.00000e+00	
			         1.12500	1.00000e+01	
			         1.12667	1.10000e+01	
			         1.12833	1.10000e+01	
			         1.13000	1.20000e+01	
			         1.13167	1.30000e+01	
			         1.13333	1.40000e+01	
			         1.13500	1.50000e+01	
			         1.13667	1.60000e+01	
			         1.13833	1.70000e+01	
			         1.14000	1.80000e+01	
			         1.14167	1.90000e+01	
			         1.14333	2.00000e+01	
			         1.14500	2.10000e+01	
			         1.14667	2.20000e+01	
			         1.14833	2.20000e+01	
			         1.15000	2.30000e+01	
			         1.15167	2.40000e+01	
			         1.15333	2.50000e+01	
			         1.15500	2.70000e+01	
			         1.15667	2.80000e+01	
			         1.15833	2.90000e+01	
			         1.16000	3.10000e+01	
			         1.16167	3.30000e+01	
			         1.16333	3.50000e+01	
			         1.16500	3.70000e+01	
			         1.16667	3.90000e+01	
			         1.16833	4.10000e+01	
			         1.17000	4.30000e+01	
			         1.17167	4.50000e+01	
			         1.17333	4.70000e+01	
			         1.17500	4.90000e+01	
			         1.17667	5.10000e+01	
			         1.17833	5.30000e+01	
			         1.18000	5.50000e+01	
			         1.18167	5.70000e+01	
			         1.18333	5.90000e+01	
			         1.18500	6.00000e+01	
			         1.18667	6.20000e+01	
			         1.18833	6.30000e+01	
			         1.19000	6.50000e+01	
			         1.19167	6.60000e+01	
			         1.19333	6.80000e+01	
			         1.19500	6.90000e+01	
			         1.19667	7.00000e+01	
			         1.19833	7.10000e+01	
			         1.20000	7.20000e+01	
			         1.20167	7.20000e+01	
			         1.20333	7.30000e+01	
			         1.20500	7.30000e+01	
			         1.20667	7.30000e+01	
			         1.20833	7.20000e+01	
			         1.21000	7.10000e+01	
			         1.21167	7.00000e+01	
			         1.21333	6.80000e+01	
			         1.21500	6.60000e+01	
			         1.21667	6.40000e+01	
			         1.21833	6.10000e+01	
			         1.22000	5.80000e+01	
			         1.22167	5.50000e+01	
			         1.22333	5.10000e+01	
			         1.22500	4.70000e+01	
			         1.22667	4.30000e+01	
			         1.22833	3.80000e+01	
			         1.23000	3.30000e+01	
			         1.23167	2.80000e+01	
			         1.23333	2.30000e+01	
			         1.23500	1.80000e+01	
			         1.23667	1.30000e+01	
			         1.23833	8.00000e+00	
			         1.24000	3.00000e+00	
			         1.24167	-1.00000e+00	
			         1.24333	-6.00000e+00	
			         1.24500	-1.00000e+01	
			         1.24667	-1.50000e+01	
			         1.24833	-1.80000e+01	
			         1.25000	-2.20000e+01	
			         1.25167	-2.60000e+01	
			         1.25333	-2.90000e+01	
			         1.25500	-3.30000e+01	
			         1.25667	-3.60000e+01	
			         1.25833	-3.90000e+01	
			         1.26000	-4.20000e+01	
			         1.26167	-4.50000e+01	
			         1.26333	-4.70000e+01	
			         1.26500	-4.90000e+01	
			         1.26667	-5.10000e+01	
			         1.26833	-5.30000e+01	
			         1.27000	-5.40000e+01	
			         1.27167	-5.50000e+01	
			         1.27333	-5.60000e+01	
			         1.27500	-5.60000e+01	
			         1.27667	-5.70000e+01	
			         1.27833	-5.70000e+01	
			         1.28000	-5.60000e+01	
			         1.28167	-5.60000e+01	
			         1.28333	-5.60000e+01	
			         1.28500	-5.50000e+01	
			         1.28667	-5.50000e+01	
			         1.28833	-5.50000e+01	
			         1.29000	-5.40000e+01	
			         1.29167	-5.40000e+01	
			         1.29333	-5.40000e+01	
			         1.29500	-5.30000e+01	
			         1.29667	-5.30000e+01	
			         1.29833	-5.20000e+01	
			         1.30000	-5.20000e+01	
			         1.30167	-5.10000e+01	
			         1.30333	-5.00000e+01	
			         1.30500	-4.90000e+01	
			         1.30667	-4.80000e+01	
			         1.30833	-4.80000e+01	
			         1.31000	-4.70000e+01	
			         1.31167	-4.60000e+01	
			         1.31333	-4.50000e+01	
			         1.31500	-4.30000e+01	
			         1.31667	-4.20000e+01	
			         1.31833	-4.10000e+01	
			         1.32000	-4.00000e+01	
			         1.32167	-3.80000e+01	
			         1.32333	-3.70000e+01	
			         1.32500	-3.60000e+01	
			         1.32667	-3.50000e+01	
			         1.32833	-3.30000e+01	
			         1.33000	-3.30000e+01	
			         1.33167	-3.20000e+01	
			         1.33333	-3.10000e+01	
			         1.33500	-3.10000e+01	
			         1.33667	-3.10000e+01	
			         1.33833	-3.10000e+01	
			         1.34000	-3.10000e+01	
			         1.34167	-3.10000e+01	
			         1.34333	-3.10000e+01	
			         1.34500	-3.10000e+01	
			         1.34667	-3.00000e+01	
			         1.34833	-3.00000e+01	
			         1.35000	-3.00000e+01	
			         1.35167	-3.00000e+01	
			         1.35333	-2.90000e+01	
			         1.35500	-2.90000e+01	
			         1.35667	-2.80000e+01	
			         1.35833	-2.70000e+01	
			         1.36000	-2.70000e+01	
			         1.36167	-2.70000e+01	
			         1.36333	-2.60000e+01	
			         1.36500	-2.60000e+01	
			         1.36667	-2.50000e+01	
			         1.36833	-2.50000e+01	
			         1.37000	-2.50000e+01	
			         1.37167	-2.40000e+01	
			         1.37333	-2.40000e+01	
			         1.37500	-2.30000e+01	
			         1.37667	-2.20000e+01	
			         1.37833	-2.10000e+01	
			         1.38000	-2.00000e+01	
			         1.38167	-1.90000e+01	
			         1.38333	-1.80000e+01	
			         1.38500	-1.70000e+01	
			         1.38667	-1.60000e+01	
			         1.38833	-1.50000e+01	
			         1.39000	-1.40000e+01	
			         1.39167	-1.30000e+01	
			         1.39333	-1.20000e+01	
			         1.39500	-1.10000e+01	
			         1.39667	-1.00000e+01	
			         1.39833	-1.00000e+01	
			         1.40000	-1.00000e+01	
			         1.40167	-1.00000e+01	
			         1.40333	-1.00000e+01	
			         1.40500	-1.00000e+01	
			         1.40667	-1.10000e+01	
			         1.40833	-1.10000e+01	
			         1.41000	-1.10000e+01	
			         1.41167	-1.10000e+01	
			         1.41333	-1.10000e+01	
			         1.41500	-1.10000e+01	
			         1.41667	-1.00000e+01	
			         1.41833	-1.00000e+01	
			         1.42000	-1.00000e+01	
			         1.42167	-9.00000e+00	
			         1.42333	-9.00000e+00	
			         1.42500	-8.00000e+00	
			         1.42667	-7.00000e+00	
			         1.42833	-7.00000e+00	
			         1.43000	-6.00000e+00	
			         1.43167	-6.00000e+00	
			         1.43333	-6.00000e+00	
			         1.43500	-5.00000e+00	
			         1.43667	-5.00000e+00	
			         1.43833	-5.00000e+00	
			         1.44000	-4.00000e+00	
			         1.44167	-4.00000e+00	
			         1.44333	-4.00000e+00	
			         1.44500	-4.00000e+00	
			         1.44667	-4.00000e+00	
			         1.44833	-4.00000e+00	
			         1.45000	-4.00000e+00	
			         1.45167	-5.00000e+00	
			         1.45333	-5.00000e+00	
			         1.45500	-5.00000e+00	
			         1.45667	-5.00000e+00	
			         1.45833	-6.00000e+00	
			         1.46000	-6.00000e+00	
			         1.46167	-6.00000e+00	
			         1.46333	-7.00000e+00	
			         1.46500	-7.00000e+00	
			         1.46667	-7.00000e+00	
			         1.46833	-7.00000e+00	
			         1.47000	-7.00000e+00	
			         1.47167	-7.00000e+00	
			         1.47333	-7.00000e+00	
			         1.47500	-7.00000e+00	
			         1.47667	-7.00000e+00	
			         1.47833	-6.00000e+00	
			         1.48000	-6.00000e+00	
			         1.48167	-5.00000e+00	
			         1.48333	-5.00000e+00	
			         1.48500	-4.00000e+00	
			         1.48667	-4.00000e+00	
			         1.48833	-4.00000e+00	
			         1.49000	-3.00000e+00	
			         1.49167	-3.00000e+00	
			         1.49333	-3.00000e+00	
			         1.49500	-3.00000e+00	
			         1.49667	-3.00000e+00	
			         1.49833	-3.00000e+00	
			         1.50000	-3.00000e+00	
			         1.50167	-3.00000e+00	
			         1.50333	-3.00000e+00	
			         1.50500	-3.00000e+00	
			         1.50667	-3.00000e+00	
			         1.50833	-3.00000e+00	
			         1.51000	-3.00000e+00	
			         1.51167	-3.00000e+00	
			         1.51333	-3.00000e+00	
			         1.51500	-3.00000e+00	
			         1.51667	-3.00000e+00	
			         1.51833	-3.00000e+00	
			         1.52000	-4.00000e+00	
			         1.52167	-4.00000e+00	
			         1.52333	-4.00000e+00	
			         1.52500	-4.00000e+00	
			         1.52667	-3.00000e+00	
			         1.52833	-3.00000e+00	
			         1.53000	-3.00000e+00	
			         1.53167	-3.00000e+00	
			         1.53333	-3.00000e+00	
			         1.53500	-2.00000e+00	
			         1.53667	-2.00000e+00	
			         1.53833	-2.00000e+00	
			         1.54000	-2.00000e+00	
			         1.54167	-2.00000e+00	
			         1.54333	-1.00000e+00	
			         1.54500	-1.00000e+00	
			         1.54667	-1.00000e+00	
			         1.54833	-1.00000e+00	
			         1.55000	-2.00000e+00	
			         1.55167	-2.00000e+00	
			         1.55333	-2.00000e+00	
			         1.55500	-2.00000e+00	
			         1.55667	-3.00000e+00	
			         1.55833	-3.00000e+00	
			         1.56000	-3.00000e+00	
			         1.56167	-3.00000e+00	
			         1.56333	-3.00000e+00	
			         1.56500	-3.00000e+00	
			         1.56667	-3.00000e+00	
			         1.56833	-3.00000e+00	
			         1.57000	-2.00000e+00	
			         1.57167	-2.00000e+00	
			         1.57333	-2.00000e+00	
			         1.57500	-1.00000e+00	
			         1.57667	-1.00000e+00	
			         1.57833	-1.00000e+00	
			         1.58000	0.00000e+00	
			         1.58167	0.00000e+00	
			         1.58333	0.00000e+00	
			         1.58500	0.00000e+00	
			         1.58667	1.00000e+00	
			         1.58833	1.00000e+00	
			         1.59000	1.00000e+00	
			         1.59167	1.00000e+00	
			         1.59333	1.00000e+00	
			         1.59500	1.00000e+00	
			         1.59667	1.00000e+00	
			         1.59833	1.00000e+00	
			         1.60000	1.00000e+00	
			         1.60167	2.00000e+00	
			         1.60333	2.00000e+00	
			         1.60500	2.00000e+00	
			         1.60667	2.00000e+00	
			         1.60833	2.00000e+00	
			         1.61000	2.00000e+00	
			         1.61167	1.00000e+00	
			         1.61333	1.00000e+00	
			         1.61500	1.00000e+00	
			         1.61667	1.00000e+00	
			         1.61833	1.00000e+00	
			         1.62000	1.00000e+00	
			         1.62167	0.00000e+00	
			         1.62333	0.00000e+00	
			         1.62500	0.00000e+00	
			         1.62667	0.00000e+00	
			         1.62833	0.00000e+00	
			         1.63000	0.00000e+00	
			         1.63167	0.00000e+00	
			         1.63333	1.00000e+00	
			         1.63500	1.00000e+00	
			         1.63667	1.00000e+00	
			         1.63833	1.00000e+00	
			         1.64000	1.00000e+00	
			         1.64167	1.00000e+00	
			         1.64333	1.00000e+00	
			         1.64500	1.00000e+00	
			         1.64667	0.00000e+00	
			         1.64833	0.00000e+00	
			         1.65000	0.00000e+00	
			         1.65167	-1.00000e+00	
			         1.65333	-2.00000e+00	
			         1.65500	-2.00000e+00	
			         1.65667	-3.00000e+00	
			         1.65833	-3.00000e+00	
			         1.66000	-3.00000e+00	
			         1.66167	-4.00000e+00	
			         1.66333	-4.00000e+00	
			         1.66500	-3.00000e+00	
			         1.66667	-3.00000e+00	
			         1.66833	-3.00000e+00	
			         1.67000	-3.00000e+00	
			         1.67167	-2.00000e+00	
			         1.67333	-2.00000e+00	
			         1.67500	-1.00000e+00	
			         1.67667	-1.00000e+00	
			         1.67833	-1.00000e+00	
			         1.68000	-1.00000e+00	
			         1.68167	-1.00000e+00	
			         1.68333	-1.00000e+00	
			         1.68500	-1.00000e+00	
			         1.68667	-1.00000e+00	
			         1.68833	-1.00000e+00	
			         1.69000	-2.00000e+00	
			         1.69167	-2.00000e+00	
			         1.69333	-2.00000e+00	
			         1.69500	-2.00000e+00	
			         1.69667	-2.00000e+00	
			         1.69833	-2.00000e+00	
			         1.70000	-2.00000e+00	
			         1.70167	-2.00000e+00	
			         1.70333	-2.00000e+00	
			         1.70500	-1.00000e+00	
			         1.70667	-1.00000e+00	
			         1.70833	-1.00000e+00	
			         1.71000	-1.00000e+00	
			         1.71167	-1.00000e+00	
			         1.71333	-1.00000e+00	
			         1.71500	-1.00000e+00	
			         1.71667	-1.00000e+00	
			         1.71833	-1.00000e+00	
			         1.72000	-1.00000e+00	
			         1.72167	-1.00000e+00	
			         1.72333	-1.00000e+00	
			         1.72500	-1.00000e+00	
			         1.72667	-1.00000e+00	
			         1.72833	-1.00000e+00	
			         1.73000	-1.00000e+00	
			         1.73167	-1.00000e+00	
			         1.73333	-1.00000e+00	
			         1.73500	0.00000e+00	
			         1.73667	0.00000e+00	
			         1.73833	0.00000e+00	
			         1.74000	0.00000e+00	
			         1.74167	1.00000e+00	
			         1.74333	1.00000e+00	
			         1.74500	1.00000e+00	
			         1.74667	1.00000e+00	
			         1.74833	1.00000e+00	
			         1.75000	1.00000e+00	
			         1.75167	0.00000e+00	
			         1.75333	0.00000e+00	
			         1.75500	-1.00000e+00	
			         1.75667	-1.00000e+00	
			         1.75833	-2.00000e+00	
			         1.76000	-3.00000e+00	
			         1.76167	-4.00000e+00	
			         1.76333	-4.00000e+00	
			         1.76500	-5.00000e+00	
			         1.76667	-5.00000e+00	
			         1.76833	-6.00000e+00	
			         1.77000	-6.00000e+00	
			         1.77167	-6.00000e+00	
			         1.77333	-6.00000e+00	
			         1.77500	-6.00000e+00	
			         1.77667	-6.00000e+00	
			         1.77833	-5.00000e+00	
			         1.78000	-5.00000e+00	
			         1.78167	-5.00000e+00	
			         1.78333	-5.00000e+00	
			         1.78500	-5.00000e+00	
			         1.78667	-5.00000e+00	
			         1.78833	-6.00000e+00	
			         1.79000	-6.00000e+00	
			         1.79167	-7.00000e+00	
			         1.79333	-7.00000e+00	
			         1.79500	-8.00000e+00	
			         1.79667	-9.00000e+00	
			         1.79833	-9.00000e+00	
			         1.80000	-9.00000e+00	
			         1.80167	-9.00000e+00	
			         1.80333	-7.00000e+00	
			         1.80500	-4.00000e+00	
			         1.80667	1.00000e+00	
			         1.80833	9.00000e+00	
			         1.81000	1.80000e+01	
			         1.81167	3.10000e+01	
			         1.81333	4.60000e+01	
			         1.81500	6.30000e+01	
			         1.81667	8.30000e+01	
			         1.81833	1.04000e+02	
			         1.82000	1.26000e+02	
			         1.82167	1.49000e+02	
			         1.82333	1.72000e+02	
			         1.82500	1.94000e+02	
			         1.82667	2.13000e+02	
			         1.82833	2.30000e+02	
			         1.83000	2.42000e+02	
			         1.83167	2.51000e+02	
			         1.83333	2.55000e+02	
			         1.83500	2.54000e+02	
			         1.83667	2.48000e+02	
			         1.83833	2.37000e+02	
			         1.84000	2.23000e+02	
			         1.84167	2.05000e+02	
			         1.84333	1.84000e+02	
			         1.84500	1.62000e+02	
			         1.84667	1.38000e+02	
			         1.84833	1.15000e+02	
			         1.85000	9.20000e+01	
			         1.85167	7.10000e+01	
			         1.85333	5.10000e+01	
			         1.85500	3.40000e+01	
			         1.85667	1.80000e+01	
			         1.85833	5.00000e+00	
			         1.86000	-6.00000e+00	
			         1.86167	-1.50000e+01	
			         1.86333	-2.30000e+01	
			         1.86500	-2.90000e+01	
			         1.86667	-3.40000e+01	
			         1.86833	-3.80000e+01	
			         1.87000	-4.20000e+01	
			         1.87167	-4.50000e+01	
			         1.87333	-4.80000e+01	
			         1.87500	-5.00000e+01	
			         1.87667	-5.20000e+01	
			         1.87833	-5.40000e+01	
			         1.88000	-5.60000e+01	
			         1.88167	-5.70000e+01	
			         1.88333	-5.80000e+01	
			         1.88500	-6.00000e+01	
			         1.88667	-6.00000e+01	
			         1.88833	-6.10000e+01	
			         1.89000	-6.20000e+01	
			         1.89167	-6.20000e+01	
			         1.89333	-6.30000e+01	
			         1.89500	-6.30000e+01	
			         1.89667	-6.30000e+01	
			         1.89833	-6.30000e+01	
			         1.90000	-6.20000e+01	
			         1.90167	-6.10000e+01	
			         1.90333	-5.90000e+01	
			         1.90500	-5.80000e+01	
			         1.90667	-5.70000e+01	
			         1.90833	-5.50000e+01	
			         1.91000	-5.30000e+01	
			         1.91167	-5.20000e+01	
			         1.91333	-5.00000e+01	
			         1.91500	-4.80000e+01	
			         1.91667	-4.60000e+01	
			         1.91833	-4.50000e+01	
			         1.92000	-4.30000e+01	
			         1.92167	-4.20000e+01	
			         1.92333	-4.10000e+01	
			         1.92500	-4.00000e+01	
			         1.92667	-3.80000e+01	
			         1.92833	-3.70000e+01	
			         1.93000	-3.60000e+01	
			         1.93167	-3.60000e+01	
			         1.93333	-3.50000e+01	
			         1.93500	-3.40000e+01	
			         1.93667	-3.40000e+01	
			         1.93833	-3.40000e+01	
			         1.94000	-3.30000e+01	
			         1.94167	-3.30000e+01	
			         1.94333	-3.30000e+01	
			         1.94500	-3.20000e+01	
			         1.94667	-3.20000e+01	
			         1.94833	-3.10000e+01	
			         1.95000	-3.00000e+01	
			         1.95167	-2.90000e+01	
			         1.95333	-2.80000e+01	
			         1.95500	-2.70000e+01	
			         1.95667	-2.60000e+01	
			         1.95833	-2.40000e+01	
			         1.96000	-2.30000e+01	
			         1.96167	-2.10000e+01	
			         1.96333	-2.00000e+01	
			         1.96500	-1.80000e+01	
			         1.96667	-1.70000e+01	
			         1.96833	-1.60000e+01	
			         1.97000	-1.50000e+01	
			         1.97167	-1.40000e+01	
			         1.97333	-1.30000e+01	
			         1.97500	-1.20000e+01	
			         1.97667	-1.10000e+01	
			         1.97833	-1.10000e+01	
			         1.98000	-1.00000e+01	
			         1.98167	-1.00000e+01	
			         1.98333	-9.00000e+00	
			         1.98500	-8.00000e+00	
			         1.98667	-8.00000e+00	
			         1.98833	-7.00000e+00	
			         1.99000	-6.00000e+00	
			         1.99167	-6.00000e+00	
			         1.99333	-5.00000e+00	
			         1.99500	-5.00000e+00	
			         1.99667	-5.00000e+00	
			         1.99833	-4.00000e+00	
			         2.00000	-3.00000e+00	
			         2.00167	-3.00000e+00	
			         2.00333	-2.00000e+00	
			         2.00500	-1.00000e+00	
			         2.00667	-1.00000e+00	
			         2.00833	0.00000e+00	
			         2.01000	1.00000e+00	
			         2.01167	3.00000e+00	
			         2.01333	4.00000e+00	
			         2.01500	5.00000e+00	
			         2.01667	6.00000e+00	
			         2.01833	7.00000e+00	
			         2.02000	9.00000e+00	
			         2.02167	1.00000e+01	
			         2.02333	1.00000e+01	
			         2.02500	1.10000e+01	
			         2.02667	1.20000e+01	
			         2.02833	1.30000e+01	
			         2.03000	1.30000e+01	
			         2.03167	1.40000e+01	
			         2.03333	1.40000e+01	
			         2.03500	1.50000e+01	
			         2.03667	1.60000e+01	
			         2.03833	1.70000e+01	
			         2.04000	1.70000e+01	
			         2.04167	1.80000e+01	
			         2.04333	1.90000e+01	
			         2.04500	2.10000e+01	
			         2.04667	2.20000e+01	
			         2.04833	2.30000e+01	
			         2.05000	2.40000e+01	
			         2.05167	2.50000e+01	
			         2.05333	2.70000e+01	
			         2.05500	2.80000e+01	
			         2.05667	2.90000e+01	
			         2.05833	3.10000e+01	
			         2.06000	3.20000e+01	
			         2.06167	3.40000e+01	
			         2.06333	3.50000e+01	
			         2.06500	3.70000e+01	
			         2.06667	3.80000e+01	
			         2.06833	4.00000e+01	
			         2.07000	4.20000e+01	
			         2.07167	4.40000e+01	
			         2.07333	4.60000e+01	
			         2.07500	4.70000e+01	
			         2.07667	4.90000e+01	
			         2.07833	5.10000e+01	
			         2.08000	5.30000e+01	
			         2.08167	5.50000e+01	
			         2.08333	5.70000e+01	
			         2.08500	5.90000e+01	
			         2.08667	6.10000e+01	
			         2.08833	6.30000e+01	
			         2.09000	6.50000e+01	
			         2.09167	6.60000e+01	
			         2.09333	6.80000e+01	
			         2.09500	7.00000e+01	
			         2.09667	7.10000e+01	
			         2.09833	7.20000e+01	
			         2.10000	7.20000e+01	
			         2.10167	7.30000e+01	
			         2.10333	7.30000e+01	
			         2.10500	7.20000e+01	
			         2.10667	7.10000e+01	
			         2.10833	7.00000e+01	
			         2.11000	6.80000e+01	
			         2.11167	6.60000e+01	
			         2.11333	6.40000e+01	
			         2.11500	6.20000e+01	
			         2.11667	5.90000e+01	
			         2.11833	5.60000e+01	
			         2.12000	5.30000e+01	
			         2.12167	5.00000e+01	
			         2.12333	4.60000e+01	
			         2.12500	4.30000e+01	
			         2.12667	3.90000e+01	
			         2.12833	3.50000e+01	
			         2.13000	3.00000e+01	
			         2.13167	2.60000e+01	
			         2.13333	2.10000e+01	
			         2.13500	1.60000e+01	
			         2.13667	1.10000e+01	
			         2.13833	5.00000e+00	
			         2.14000	0.00000e+00	
			         2.14167	-5.00000e+00	
			         2.14333	-1.10000e+01	
			         2.14500	-1.60000e+01	
			         2.14667	-2.00000e+01	
			         2.14833	-2.50000e+01	
			         2.15000	-2.90000e+01	
			         2.15167	-3.30000e+01	
			         2.15333	-3.60000e+01	
			         2.15500	-3.90000e+01	
			         2.15667	-4.10000e+01	
			         2.15833	-4.40000e+01	
			         2.16000	-4.50000e+01	
			         2.16167	-4.70000e+01	
			         2.16333	-4.80000e+01	
			         2.16500	-4.90000e+01	
			         2.16667	-5.00000e+01	
			         2.16833	-5.00000e+01	
			         2.17000	-5.10000e+01	
			         2.17167	-5.10000e+01	
			         2.17333	-5.20000e+01	
			         2.17500	-5.20000e+01	
			         2.17667	-5.30000e+01	
			         2.17833	-5.30000e+01	
			         2.18000	-5.40000e+01	
			         2.18167	-5.40000e+01	
			         2.18333	-5.40000e+01	
			         2.18500	-5.50000e+01	
			         2.18667	-5.50000e+01	
			         2.18833	-5.60000e+01	
			         2.19000	-5.60000e+01	
			         2.19167	-5.60000e+01	
			         2.19333	-5.60000e+01	
			         2.19500	-5.50000e+01	
			         2.19667	-5.50000e+01	
			         2.19833	-5.40000e+01	
			         2.20000	-5.30000e+01	
			         2.20167	-5.20000e+01	
			         2.20333	-5.10000e+01	
			         2.20500	-5.00000e+01	
			         2.20667	-4.90000e+01	
			         2.20833	-4.90000e+01	
			         2.21000	-4.80000e+01	
			         2.21167	-4.70000e+01	
			         2.21333	-4.60000e+01	
			         2.21500	-4.50000e+01	
			         2.21667	-4.50000e+01	
			         2.21833	-4.40000e+01	
			         2.22000	-4.30000e+01	
			         2.22167	-4.20000e+01	
			         2.22333	-4.20000e+01	
			         2.22500	-4.10000e+01	
			         2.22667	-4.00000e+01	
			         2.22833	-3.90000e+01	
			         2.23000	-3.80000e+01	
			         2.23167	-3.70000e+01	
			         2.23333	-3.60000e+01	
			         2.23500	-3.50000e+01	
			         2.23667	-3.40000e+01	
			         2.23833	-3.40000e+01	
			         2.24000	-3.30000e+01	
			         2.24167	-3.30000e+01	
			         2.24333	-3.20000e+01	
			         2.24500	-3.20000e+01	
			         2.24667	-3.10000e+01	
			         2.24833	-3.10000e+01	
			         2.25000	-3.10000e+01	
			         2.25167	-3.10000e+01	
			         2.25333	-3.00000e+01	
			         2.25500	-3.00000e+01	
			         2.25667	-3.00000e+01	
			         2.25833	-2.90000e+01	
			         2.26000	-2.90000e+01	
			         2.26167	-2.80000e+01	
			         2.26333	-2.80000e+01	
			         2.26500	-2.70000e+01	
			         2.26667	-2.70000e+01	
			         2.26833	-2.60000e+01	
			         2.27000	-2.60000e+01	
			         2.27167	-2.50000e+01	
			         2.27333	-2.40000e+01	
			         2.27500	-2.40000e+01	
			         2.27667	-2.30000e+01	
			         2.27833	-2.20000e+01	
			         2.28000	-2.10000e+01	
			         2.28167	-2.10000e+01	
			         2.28333	-2.00000e+01	
			         2.28500	-2.00000e+01	
			         2.28667	-1.90000e+01	
			         2.28833	-1.80000e+01	
			         2.29000	-1.80000e+01	
			         2.29167	-1.80000e+01	
			         2.29333	-1.70000e+01	
			         2.29500	-1.70000e+01	
			         2.29667	-1.60000e+01	
			         2.29833	-1.60000e+01	
			         2.30000	-1.60000e+01	
			         2.30167	-1.50000e+01	
			         2.30333	-1.50000e+01	
			         2.30500	-1.40000e+01	
			         2.30667	-1.40000e+01	
			         2.30833	-1.30000e+01	
			         2.31000	-1.30000e+01	
			         2.31167	-1.20000e+01	
			         2.31333	-1.10000e+01	
			         2.31500	-1.10000e+01	
			         2.31667	-1.00000e+01	
			         2.31833	-1.00000e+01	
			         2.32000	-1.00000e+01	
			         2.32167	-9.00000e+00	
			         2.32333	-9.00000e+00	
			         2.32500	-8.00000e+00	
			         2.32667	-8.00000e+00	
			         2.32833	-7.00000e+00	
			         2.33000	-7.00000e+00	
			         2.33167	-6.00000e+00	
			         2.33333	-6.00000e+00	
			         2.33500	-5.00000e+00	
			         2.33667	-5.00000e+00	
			         2.33833	-5.00000e+00	
			         2.34000	-4.00000e+00	
			         2.34167	-4.00000e+00	
			         2.34333	-4.00000e+00	
			         2.34500	-4.00000e+00	
			         2.34667	-4.00000e+00	
			         2.34833	-4.00000e+00	
			         2.35000	-5.00000e+00	
			         2.35167	-5.00000e+00	
			         2.35333	-5.00000e+00	
			         2.35500	-6.00000e+00	
			         2.35667	-6.00000e+00	
			         2.35833	-7.00000e+00	
			         2.36000	-7.00000e+00	
			         2.36167	-8.00000e+00	
			         2.36333	-8.00000e+00	
			         2.36500	-9.00000e+00	
			         2.36667	-1.00000e+01	
			         2.36833	-1.10000e+01	
			         2.37000	-1.20000e+01	
			         2.37167	-1.20000e+01	
			         2.37333	-1.30000e+01	
			         2.37500	-1.30000e+01	
			         2.37667	-1.40000e+01	
			         2.37833	-1.40000e+01	
			         2.38000	-1.40000e+01	
			         2.38167	-1.40000e+01	
			         2.38333	-1.40000e+01	
			         2.38500	-1.30000e+01	
			         2.38667	-1.30000e+01	
			         2.38833	-1.20000e+01	
			         2.39000	-1.20000e+01	
			         2.39167	-1.10000e+01	
			         2.39333	-1.00000e+01	
			         2.39500	-1.00000e+01	
			         2.39667	-9.00000e+00	
			         2.39833	-9.00000e+00	
			         2.40000	-8.00000e+00	
			         2.40167	-8.00000e+00	
			         2.40333	-8.00000e+00	
			         2.40500	-8.00000e+00	
			         2.40667	-8.00000e+00	
			         2.40833	-7.00000e+00	
			         2.41000	-7.00000e+00	
			         2.41167	-8.00000e+00	
			         2.41333	-8.00000e+00	
			         2.41500	-8.00000e+00	
			         2.41667	-8.00000e+00	
			         2.41833	-8.00000e+00	
			         2.42000	-8.00000e+00	
			         2.42167	-8.00000e+00	
			         2.42333	-8.00000e+00	
			         2.42500	-8.00000e+00	
			         2.42667	-8.00000e+00	
			         2.42833	-8.00000e+00	
			         2.43000	-8.00000e+00	
			         2.43167	-7.00000e+00	
			         2.43333	-7.00000e+00	
			         2.43500	-6.00000e+00	
			         2.43667	-6.00000e+00	
			         2.43833	-5.00000e+00	
			         2.44000	-5.00000e+00	
			         2.44167	-5.00000e+00	
			         2.44333	-5.00000e+00	
			         2.44500	-5.00000e+00	
			         2.44667	-5.00000e+00	
			         2.44833	-5.00000e+00	
			         2.45000	-5.00000e+00	
			         2.45167	-5.00000e+00	
			         2.45333	-6.00000e+00	
			         2.45500	-6.00000e+00	
			         2.45667	-6.00000e+00	
			         2.45833	-7.00000e+00	
			         2.46000	-7.00000e+00	
			         2.46167	-6.00000e+00	
			         2.46333	-6.00000e+00	
			         2.46500	-5.00000e+00	
			         2.46667	-5.00000e+00	
			         2.46833	-5.00000e+00	
			         2.47000	-4.00000e+00	
			         2.47167	-4.00000e+00	
			         2.47333	-4.00000e+00	
			         2.47500	-4.00000e+00	
			         2.47667	-4.00000e+00	
			         2.47833	-5.00000e+00	
			         2.48000	-6.00000e+00	
			         2.48167	-6.00000e+00	
			         2.48333	-7.00000e+00	
			         2.48500	-8.00000e+00	
			         2.48667	-9.00000e+00	
			         2.48833	-9.00000e+00	
			         2.49000	-9.00000e+00	
			         2.49167	-1.00000e+01	
			         2.49333	-9.00000e+00	
			         2.49500	-9.00000e+00	
			         2.49667	-9.00000e+00	
			         2.49833	-8.00000e+00	
			         2.50000	-8.00000e+00	
			         2.50167	-7.00000e+00	
			         2.50333	-7.00000e+00	
			         2.50500	-6.00000e+00	
			         2.50667	-6.00000e+00	
			         2.50833	-5.00000e+00	
			         2.51000	-5.00000e+00	
			         2.51167	-5.00000e+00	
			         2.51333	-4.00000e+00	
			         2.51500	-4.00000e+00	
			         2.51667	-3.00000e+00	
			         2.51833	-3.00000e+00	
			         2.52000	-2.00000e+00	
			         2.52167	-2.00000e+00	
			         2.52333	-1.00000e+00	
			         2.52500	0.00000e+00	
			         2.52667	1.00000e+00	
			         2.52833	1.00000e+00	
			         2.53000	2.00000e+00	
			         2.53167	3.00000e+00	
			         2.53333	3.00000e+00	
			         2.53500	4.00000e+00	
			         2.53667	4.00000e+00	
			         2.53833	4.00000e+00	
			         2.54000	4.00000e+00	
			         2.54167	4.00000e+00	
			         2.54333	4.00000e+00	
			         2.54500	3.00000e+00	
			         2.54667	3.00000e+00	
			         2.54833	3.00000e+00	
			         2.55000	2.00000e+00	
			         2.55167	2.00000e+00	
			         2.55333	2.00000e+00	
			         2.55500	2.00000e+00	
			         2.55667	2.00000e+00	
			         2.55833	2.00000e+00	
			         2.56000	2.00000e+00	
			         2.56167	2.00000e+00	
			         2.56333	2.00000e+00	
			         2.56500	2.00000e+00	
			         2.56667	2.00000e+00	
			         2.56833	2.00000e+00	
			         2.57000	2.00000e+00	
			         2.57167	1.00000e+00	
			         2.57333	1.00000e+00	
			         2.57500	0.00000e+00	
			         2.57667	-1.00000e+00	
			         2.57833	-1.00000e+00	
			         2.58000	-2.00000e+00	
			         2.58167	-2.00000e+00	
			         2.58333	-3.00000e+00	
			         2.58500	-3.00000e+00	
			         2.58667	-3.00000e+00	
			         2.58833	-3.00000e+00	
			         2.59000	-4.00000e+00	
			         2.59167	-4.00000e+00	
			         2.59333	-4.00000e+00	
			         2.59500	-4.00000e+00	
			         2.59667	-4.00000e+00	
			         2.59833	-4.00000e+00	
			         2.60000	-5.00000e+00	
			         2.60167	-5.00000e+00	
			         2.60333	-6.00000e+00	
			         2.60500	-7.00000e+00	
			         2.60667	-7.00000e+00	
			         2.60833	-8.00000e+00	
			         2.61000	-8.00000e+00	
			         2.61167	-9.00000e+00	
			         2.61333	-9.00000e+00	
			         2.61500	-9.00000e+00	
			         2.61667	-9.00000e+00	
			         2.61833	-8.00000e+00	
			         2.62000	-8.00000e+00	
			         2.62167	-7.00000e+00	
			         2.62333	-6.00000e+00	
			         2.62500	-6.00000e+00	
			         2.62667	-5.00000e+00	
			         2.62833	-4.00000e+00	
			         2.63000	-3.00000e+00	
			         2.63167	-2.00000e+00	
			         2.63333	-1.00000e+00	
			         2.63500	-1.00000e+00	
			         2.63667	-1.00000e+00	
			         2.63833	-1.00000e+00	
			         2.64000	-1.00000e+00	
			         2.64167	-1.00000e+00	
			         2.64333	-1.00000e+00	
			         2.64500	-1.00000e+00	
			         2.64667	-1.00000e+00	
			         2.64833	-2.00000e+00	
			         2.65000	-2.00000e+00	
			         2.65167	-2.00000e+00	
			         2.65333	-2.00000e+00	
			         2.65500	-2.00000e+00	
			         2.65667	-2.00000e+00	
			         2.65833	-2.00000e+00	
			         2.66000	-2.00000e+00	
			         2.66167	-1.00000e+00	
			         2.66333	-1.00000e+00	
			         2.66500	-1.00000e+00	
			         2.66667	0.00000e+00	
			         2.66833	0.00000e+00	
			         2.67000	0.00000e+00	
			         2.67167	0.00000e+00	
			         2.67333	0.00000e+00	
			         2.67500	0.00000e+00	
			         2.67667	0.00000e+00	
			         2.67833	0.00000e+00	
			         2.68000	-1.00000e+00	
			         2.68167	-2.00000e+00	
			         2.68333	-3.00000e+00	
			         2.68500	-4.00000e+00	
			         2.68667	-6.00000e+00	
			         2.68833	-8.00000e+00	
			         2.69000	-9.00000e+00	
			         2.69167	-1.10000e+01	
			         2.69333	-1.20000e+01	
			         2.69500	-1.20000e+01	
			         2.69667	-1.20000e+01	
			         2.69833	-1.00000e+01	
			         2.70000	-7.00000e+00	
			         2.70167	-2.00000e+00	
			         2.70333	6.00000e+00	
			         2.70500	1.60000e+01	
			         2.70667	2.90000e+01	
			         2.70833	4.50000e+01	
			         2.71000	6.30000e+01	
			         2.71167	8.40000e+01	
			         2.71333	1.06000e+02	
			         2.71500	1.29000e+02	
			         2.71667	1.53000e+02	
			         2.71833	1.76000e+02	
			         2.72000	1.99000e+02	
			         2.72167	2.19000e+02	
			         2.72333	2.36000e+02	
			         2.72500	2.49000e+02	
			         2.72667	2.58000e+02	
			         2.72833	2.62000e+02	
			         2.73000	2.61000e+02	
			         2.73167	2.56000e+02	
			         2.73333	2.45000e+02	
			         2.73500	2.31000e+02	
			         2.73667	2.14000e+02	
			         2.73833	1.93000e+02	
			         2.74000	1.71000e+02	
			         2.74167	1.47000e+02	
			         2.74333	1.24000e+02	
			         2.74500	1.01000e+02	
			         2.74667	8.00000e+01	
			         2.74833	6.00000e+01	
			         2.75000	4.20000e+01	
			         2.75167	2.60000e+01	
			         2.75333	1.30000e+01	
			         2.75500	1.00000e+00	
			         2.75667	-8.00000e+00	
			         2.75833	-1.60000e+01	
			         2.76000	-2.30000e+01	
			         2.76167	-2.90000e+01	
			         2.76333	-3.40000e+01	
			         2.76500	-3.90000e+01	
			         2.76667	-4.30000e+01	
			         2.76833	-4.70000e+01	
			         2.77000	-5.10000e+01	
			         2.77167	-5.40000e+01	
			         2.77333	-5.70000e+01	
			         2.77500	-6.00000e+01	
			         2.77667	-6.20000e+01	
			         2.77833	-6.40000e+01	
			         2.78000	-6.50000e+01	
			         2.78167	-6.50000e+01	
			         2.78333	-6.50000e+01	
			         2.78500	-6.40000e+01	
			         2.78667	-6.30000e+01	
			         2.78833	-6.20000e+01	
			         2.79000	-6.10000e+01	
			         2.79167	-5.90000e+01	
