Velocity (TVI), in cm/s

Time (s) :	Trace 1 : 		Ecg : 		
0.01138   	-1.06115e+00		         0.00000	9.00000e+00	
0.01779   	-6.22494e-01		         0.00167	1.00000e+01	
0.02420   	2.72072e-02		         0.00333	1.10000e+01	
0.03060   	8.55838e-01		         0.00500	1.20000e+01	
0.03701   	1.16163e+00		         0.00667	1.30000e+01	
0.04342   	1.34421e+00		         0.00833	1.40000e+01	
0.04983   	1.16944e+00		         0.01000	1.60000e+01	
0.05624   	6.07637e-01		         0.01167	1.80000e+01	
0.06264   	1.72999e-01		         0.01333	2.10000e+01	
0.06905   	5.38065e-01		         0.01500	2.40000e+01	
0.07546   	1.01376e+00		         0.01667	2.70000e+01	
0.08186   	1.86100e+00		         0.01833	3.00000e+01	
0.08828   	2.83986e+00		         0.02000	3.30000e+01	
0.09468   	3.81705e+00		         0.02167	3.50000e+01	
0.10109   	4.39802e+00		         0.02333	3.70000e+01	
0.10750   	4.85683e+00		         0.02500	3.80000e+01	
0.11390   	5.10083e+00		         0.02667	3.90000e+01	
0.12031   	5.25751e+00		         0.02833	3.80000e+01	
0.12672   	5.36712e+00		         0.03000	3.70000e+01	
0.13313   	5.44961e+00		         0.03167	3.50000e+01	
0.13954   	5.39140e+00		         0.03333	3.20000e+01	
0.14594   	5.34626e+00		         0.03500	2.90000e+01	
0.15235   	5.28285e+00		         0.03667	2.60000e+01	
0.15876   	5.16988e+00		         0.03833	2.20000e+01	
0.16516   	5.10962e+00		         0.04000	1.90000e+01	
0.17157   	5.13374e+00		         0.04167	1.50000e+01	
0.17798   	5.09682e+00		         0.04333	1.20000e+01	
0.18439   	4.98826e+00		         0.04500	9.00000e+00	
0.19080   	4.93914e+00		         0.04667	6.00000e+00	
0.19720   	4.88704e+00		         0.04833	3.00000e+00	
0.20361   	4.79170e+00		         0.05000	1.00000e+00	
0.21002   	4.68613e+00		         0.05167	-1.00000e+00	
0.21643   	4.70174e+00		         0.05333	-3.00000e+00	
0.22283   	4.69670e+00		         0.05500	-4.00000e+00	
0.22924   	4.60463e+00		         0.05667	-6.00000e+00	
0.23565   	4.52918e+00		         0.05833	-7.00000e+00	
0.24206   	4.54972e+00		         0.06000	-7.00000e+00	
0.24846   	4.46166e+00		         0.06167	-8.00000e+00	
0.25487   	4.32166e+00		         0.06333	-9.00000e+00	
0.26128   	4.17893e+00		         0.06500	-9.00000e+00	
0.26768   	4.07501e+00		         0.06667	-1.00000e+01	
0.27409   	3.90767e+00		         0.06833	-1.00000e+01	
0.28050   	3.74748e+00		         0.07000	-1.10000e+01	
0.28691   	3.62588e+00		         0.07167	-1.10000e+01	
0.29332   	3.49522e+00		         0.07333	-1.20000e+01	
0.29972   	3.31487e+00		         0.07500	-1.30000e+01	
0.30613   	3.13444e+00		         0.07667	-1.30000e+01	
0.31261   	3.00553e+00		         0.07833	-1.40000e+01	
0.31895   	2.83272e+00		         0.08000	-1.40000e+01	
0.32536   	2.67835e+00		         0.08167	-1.50000e+01	
0.33176   	2.51886e+00		         0.08333	-1.50000e+01	
0.33817   	2.31200e+00		         0.08500	-1.50000e+01	
0.34458   	2.06014e+00		         0.08667	-1.50000e+01	
0.35099   	1.80560e+00		         0.08833	-1.50000e+01	
0.35739   	1.49180e+00		         0.09000	-1.40000e+01	
0.36380   	1.14510e+00		         0.09167	-1.30000e+01	
0.37021   	6.45569e-01		         0.09333	-1.20000e+01	
0.37662   	-6.94896e-02		         0.09500	-1.10000e+01	
0.38302   	-5.15183e-01		         0.09667	-1.00000e+01	
0.38943   	-2.99719e-01		         0.09833	-9.00000e+00	
0.39584   	-6.46441e-02		         0.10000	-8.00000e+00	
0.40225   	6.44575e-01		         0.10167	-7.00000e+00	
0.40865   	1.60143e+00		         0.10333	-7.00000e+00	
0.41506   	2.46657e+00		         0.10500	-6.00000e+00	
0.42147   	2.87752e+00		         0.10667	-6.00000e+00	
0.42788   	3.25654e+00		         0.10833	-5.00000e+00	
0.43428   	3.63191e+00		         0.11000	-5.00000e+00	
0.44069   	3.91084e+00		         0.11167	-5.00000e+00	
0.44710   	3.99783e+00		         0.11333	-6.00000e+00	
0.45351   	3.69275e+00		         0.11500	-6.00000e+00	
0.45991   	3.36091e+00		         0.11667	-6.00000e+00	
0.46633   	2.31010e+00		         0.11833	-7.00000e+00	
0.47273   	1.14623e+00		         0.12000	-7.00000e+00	
0.47914   	6.56734e-02		         0.12167	-8.00000e+00	
0.48555   	-1.05882e+00		         0.12333	-8.00000e+00	
0.49196   	-2.16759e+00		         0.12500	-8.00000e+00	
0.49836   	-2.77059e+00		         0.12667	-9.00000e+00	
0.50477   	-3.36822e+00		         0.12833	-9.00000e+00	
0.51117   	-3.93050e+00		         0.13000	-9.00000e+00	
0.51759   	-4.26696e+00		         0.13167	-1.00000e+01	
0.52399   	-4.53657e+00		         0.13333	-1.00000e+01	
0.53040   	-4.88961e+00		         0.13500	-1.00000e+01	
0.53681   	-4.96982e+00		         0.13667	-9.00000e+00	
0.54321   	-5.09356e+00		         0.13833	-9.00000e+00	
0.54962   	-5.12742e+00		         0.14000	-9.00000e+00	
0.55603   	-5.02617e+00		         0.14167	-9.00000e+00	
0.56244   	-4.76385e+00		         0.14333	-8.00000e+00	
0.56885   	-4.52758e+00		         0.14500	-8.00000e+00	
0.57525   	-4.32336e+00		         0.14667	-8.00000e+00	
0.58166   	-3.99825e+00		         0.14833	-8.00000e+00	
0.58807   	-3.69490e+00		         0.15000	-7.00000e+00	
0.59477   	-3.33677e+00		         0.15167	-7.00000e+00	
0.60088   	-2.91910e+00		         0.15333	-7.00000e+00	
0.60729   	-2.42301e+00		         0.15500	-7.00000e+00	
0.61370   	-2.08995e+00		         0.15667	-7.00000e+00	
0.62011   	-1.69037e+00		         0.15833	-7.00000e+00	
0.62651   	-1.45572e+00		         0.16000	-7.00000e+00	
0.63292   	-1.31839e+00		         0.16167	-8.00000e+00	
0.63933   	-1.14822e+00		         0.16333	-8.00000e+00	
0.64574   	-9.48815e-01		         0.16500	-8.00000e+00	
0.65215   	-8.66140e-01		         0.16667	-8.00000e+00	
0.65855   	-7.95787e-01		         0.16833	-7.00000e+00	
0.66496   	-7.42512e-01		         0.17000	-7.00000e+00	
0.67137   	-7.18902e-01		         0.17167	-7.00000e+00	
0.67778   	-7.27008e-01		         0.17333	-6.00000e+00	
0.68418   	-7.12907e-01		         0.17500	-6.00000e+00	
0.69059   	-7.51547e-01		         0.17667	-5.00000e+00	
0.69700   	-9.55648e-01		         0.17833	-4.00000e+00	
0.70340   	-1.12518e+00		         0.18000	-4.00000e+00	
0.70981   	-1.26369e+00		         0.18167	-3.00000e+00	
0.71622   	-1.31142e+00		         0.18333	-3.00000e+00	
0.72263   	-1.26284e+00		         0.18500	-3.00000e+00	
0.72903   	-1.12300e+00		         0.18667	-3.00000e+00	
0.73544   	-1.09144e+00		         0.18833	-3.00000e+00	
0.74185   	-1.14745e+00		         0.19000	-4.00000e+00	
0.74826   	-1.62142e+00		         0.19167	-5.00000e+00	
0.75467   	-2.29967e+00		         0.19333	-6.00000e+00	
0.76107   	-3.01302e+00		         0.19500	-6.00000e+00	
0.76748   	-4.02545e+00		         0.19667	-7.00000e+00	
0.77389   	-5.07484e+00		         0.19833	-8.00000e+00	
0.78030   	-5.84602e+00		         0.20000	-8.00000e+00	
0.78670   	-6.64196e+00		         0.20167	-9.00000e+00	
0.79311   	-7.42202e+00		         0.20333	-9.00000e+00	
0.79952   	-7.99220e+00		         0.20500	-9.00000e+00	
0.80593   	-8.27070e+00		         0.20667	-9.00000e+00	
0.81233   	-8.65405e+00		         0.20833	-8.00000e+00	
0.81874   	-8.63240e+00		         0.21000	-8.00000e+00	
0.82515   	-8.18990e+00		         0.21167	-8.00000e+00	
0.83156   	-7.64975e+00		         0.21333	-7.00000e+00	
0.83796   	-6.84585e+00		         0.21500	-6.00000e+00	
0.84437   	-5.82844e+00		         0.21667	-6.00000e+00	
0.85078   	-4.89490e+00		         0.21833	-5.00000e+00	
0.85719   	-4.24965e+00		         0.22000	-5.00000e+00	
0.86359   	-3.35325e+00		         0.22167	-5.00000e+00	
0.87000   	-2.85347e+00		         0.22333	-4.00000e+00	
0.87641   	-2.47965e+00		         0.22500	-4.00000e+00	
0.88282   	-2.13574e+00		         0.22667	-4.00000e+00	
0.88923   	-1.99438e+00		         0.22833	-4.00000e+00	
0.89563   	6.24439e-01		         0.23000	-3.00000e+00	
0.90204   	1.34296e+00		         0.23167	-3.00000e+00	
0.90845   	1.62668e+00		         0.23333	-3.00000e+00	
0.91486   	1.76875e+00		         0.23500	-3.00000e+00	
0.92126   	2.13087e+00		         0.23667	-2.00000e+00	
0.92767   	6.60018e-02		         0.23833	-2.00000e+00	
0.93408   	-5.61544e-02		         0.24000	-2.00000e+00	
0.94049   	3.83159e-01		         0.24167	-2.00000e+00	
0.94689   	1.18001e+00		         0.24333	-2.00000e+00	
0.95330   	1.96569e+00		         0.24500	-2.00000e+00	
0.96010   	2.62321e+00		         0.24667	-2.00000e+00	
0.96612   	3.29388e+00		         0.24833	-2.00000e+00	
0.97252   	3.95774e+00		         0.25000	-2.00000e+00	
0.97893   	4.38475e+00		         0.25167	-2.00000e+00	
0.98534   	4.71326e+00		         0.25333	-2.00000e+00	
0.99175   	4.95935e+00		         0.25500	-2.00000e+00	
0.99816   	5.15651e+00		         0.25667	-2.00000e+00	
1.00456   	5.19890e+00		         0.25833	-3.00000e+00	
1.01097   	5.14112e+00		         0.26000	-3.00000e+00	
1.01738   	5.20314e+00		         0.26167	-3.00000e+00	
1.02378   	5.21208e+00		         0.26333	-4.00000e+00	
1.03019   	5.21465e+00		         0.26500	-4.00000e+00	
1.03660   	5.21371e+00		         0.26667	-4.00000e+00	
1.04318   	5.23993e+00		         0.26833	-5.00000e+00	
1.04942   	5.21609e+00		         0.27000	-5.00000e+00	
1.05583   	5.19356e+00		         0.27167	-5.00000e+00	
1.06223   	5.16918e+00		         0.27333	-5.00000e+00	
1.06864   	5.12802e+00		         0.27500	-5.00000e+00	
1.07505   	5.04821e+00		         0.27667	-5.00000e+00	
1.08146   	4.94258e+00		         0.27833	-5.00000e+00	
1.08786   	4.76852e+00		         0.28000	-4.00000e+00	
1.09427   	4.58600e+00		         0.28167	-3.00000e+00	
1.10068   	4.39678e+00		         0.28333	-3.00000e+00	
1.10708   	4.29343e+00		         0.28500	-2.00000e+00	
1.11350   	4.13198e+00		         0.28667	-1.00000e+00	
1.11990   	4.00813e+00		         0.28833	0.00000e+00	
1.12631   	3.88247e+00		         0.29000	0.00000e+00	
1.13272   	3.84212e+00		         0.29167	1.00000e+00	
1.13912   	3.72204e+00		         0.29333	1.00000e+00	
1.14553   	3.63637e+00		         0.29500	1.00000e+00	
1.15194   	3.52649e+00		         0.29667	1.00000e+00	
1.15835   	3.38262e+00		         0.29833	1.00000e+00	
1.16475   	3.22154e+00		         0.30000	0.00000e+00	
1.17116   	3.08145e+00		         0.30167	0.00000e+00	
1.17757   	2.93313e+00		         0.30333	-1.00000e+00	
1.18398   	2.75676e+00		         0.30500	-2.00000e+00	
1.19038   	2.61652e+00		         0.30667	-4.00000e+00	
1.19680   	2.41454e+00		         0.30833	-5.00000e+00	
1.20320   	2.24030e+00		         0.31000	-6.00000e+00	
1.20961   	2.05830e+00		         0.31167	-6.00000e+00	
1.21601   	1.83579e+00		         0.31333	-7.00000e+00	
1.22242   	1.58386e+00		         0.31500	-7.00000e+00	
1.22883   	1.25381e+00		         0.31667	-8.00000e+00	
1.23524   	7.61791e-01		         0.31833	-7.00000e+00	
1.24164   	9.09871e-02		         0.32000	-7.00000e+00	
1.24805   	-6.44960e-01		         0.32167	-7.00000e+00	
1.25446   	-1.53186e+00		         0.32333	-6.00000e+00	
1.26087   	-1.45112e+00		         0.32500	-6.00000e+00	
1.26728   	-1.04887e+00		         0.32667	-5.00000e+00	
1.27368   	-4.90807e-01		         0.32833	-5.00000e+00	
1.28009   	3.10700e-01		         0.33000	-4.00000e+00	
1.28650   	1.55412e+00		         0.33167	-4.00000e+00	
1.29291   	2.03626e+00		         0.33333	-4.00000e+00	
1.29931   	2.44318e+00		         0.33500	-4.00000e+00	
1.30572   	2.73833e+00		         0.33667	-4.00000e+00	
1.31213   	2.95645e+00		         0.33833	-3.00000e+00	
1.31854   	2.95385e+00		         0.34000	-3.00000e+00	
1.32495   	2.50136e+00		         0.34167	-3.00000e+00	
1.33135   	1.88968e+00		         0.34333	-2.00000e+00	
1.33776   	1.20871e+00		         0.34500	-2.00000e+00	
1.34417   	3.06597e-01		         0.34667	-1.00000e+00	
1.35058   	-6.88810e-01		         0.34833	-1.00000e+00	
1.35698   	-1.44752e+00		         0.35000	-1.00000e+00	
1.36339   	-2.22910e+00		         0.35167	0.00000e+00	
1.36980   	-2.62515e+00		         0.35333	0.00000e+00	
1.37620   	-2.99590e+00		         0.35500	-1.00000e+00	
1.38261   	-3.39031e+00		         0.35667	-1.00000e+00	
1.38902   	-3.68607e+00		         0.35833	-1.00000e+00	
1.39543   	-3.86092e+00		         0.36000	-2.00000e+00	
1.40184   	-4.06541e+00		         0.36167	-3.00000e+00	
1.40839   	-4.12853e+00		         0.36333	-4.00000e+00	
1.41465   	-4.15408e+00		         0.36500	-5.00000e+00	
1.42106   	-4.16065e+00		         0.36667	-5.00000e+00	
1.42747   	-4.16822e+00		         0.36833	-6.00000e+00	
1.43387   	-4.28532e+00		         0.37000	-7.00000e+00	
1.44028   	-4.35557e+00		         0.37167	-7.00000e+00	
1.44669   	-4.29937e+00		         0.37333	-7.00000e+00	
1.45310   	-4.10858e+00		         0.37500	-7.00000e+00	
1.45950   	-3.87784e+00		         0.37667	-7.00000e+00	
1.46591   	-3.53254e+00		         0.37833	-7.00000e+00	
1.47232   	-3.06738e+00		         0.38000	-7.00000e+00	
1.47873   	-2.65593e+00		         0.38167	-7.00000e+00	
1.48513   	-2.31657e+00		         0.38333	-7.00000e+00	
1.49154   	-1.98083e+00		         0.38500	-6.00000e+00	
1.49795   	-1.74567e+00		         0.38667	-6.00000e+00	
1.50436   	-1.59116e+00		         0.38833	-6.00000e+00	
1.51076   	-1.46305e+00		         0.39000	-5.00000e+00	
1.51717   	-1.31718e+00		         0.39167	-5.00000e+00	
1.52358   	-1.22294e+00		         0.39333	-4.00000e+00	
1.52999   	-1.09594e+00		         0.39500	-4.00000e+00	
1.53640   	-1.01513e+00		         0.39667	-4.00000e+00	
1.54280   	-8.97899e-01		         0.39833	-3.00000e+00	
1.54921   	-8.07468e-01		         0.40000	-3.00000e+00	
1.55562   	-7.36938e-01		         0.40167	-3.00000e+00	
1.56203   	-6.89108e-01		         0.40333	-3.00000e+00	
1.56844   	-6.73674e-01		         0.40500	-3.00000e+00	
1.57484   	-7.24982e-01		         0.40667	-3.00000e+00	
1.58125   	-8.13792e-01		         0.40833	-3.00000e+00	
1.58766   	-9.19677e-01		         0.41000	-3.00000e+00	
1.59407   	-1.23508e+00		         0.41167	-3.00000e+00	
1.60047   	-1.69027e+00		         0.41333	-4.00000e+00	
1.60688   	-2.38785e+00		         0.41500	-4.00000e+00	
1.61329   	-3.32486e+00		         0.41667	-4.00000e+00	
1.61970   	-4.51864e+00		         0.41833	-4.00000e+00	
1.62610   	-5.70286e+00		         0.42000	-4.00000e+00	
1.63251   	-6.75296e+00		         0.42167	-4.00000e+00	
1.63892   	-7.59885e+00		         0.42333	-5.00000e+00	
1.64533   	-8.28652e+00		         0.42500	-5.00000e+00	
1.65173   	-8.71176e+00		         0.42667	-5.00000e+00	
1.65814   	-8.90237e+00		         0.42833	-5.00000e+00	
1.66455   	-8.92907e+00		         0.43000	-5.00000e+00	
1.67096   	-8.50963e+00		         0.43167	-5.00000e+00	
1.67736   	-7.79928e+00		         0.43333	-5.00000e+00	
1.68377   	-6.75839e+00		         0.43500	-4.00000e+00	
1.69018   	-5.92797e+00		         0.43667	-4.00000e+00	
1.69659   	-4.82240e+00		         0.43833	-4.00000e+00	
1.70299   	-3.93442e+00		         0.44000	-4.00000e+00	
1.70940   	-3.32781e+00		         0.44167	-4.00000e+00	
1.71581   	-2.86919e+00		         0.44333	-4.00000e+00	
1.72222   	-2.21973e+00		         0.44500	-3.00000e+00	
1.72863   	-1.95524e+00		         0.44667	-3.00000e+00	
1.73503   	-1.88832e+00		         0.44833	-3.00000e+00	
1.74144   	-1.80046e+00		         0.45000	-3.00000e+00	
1.74785   	-1.29387e+00		         0.45167	-4.00000e+00	
1.75425   	-1.01931e+00		         0.45333	-4.00000e+00	
1.76066   	-9.19185e-01		         0.45500	-4.00000e+00	
1.76707   	-8.31858e-01		         0.45667	-4.00000e+00	
1.77375   	-2.09092e-01		         0.45833	-4.00000e+00	
1.77989   	-1.22777e-02		         0.46000	-4.00000e+00	
1.78629   	4.42904e-01		         0.46167	-4.00000e+00	
1.79270   	1.20421e+00		         0.46333	-4.00000e+00	
1.79911   	2.25716e+00		         0.46500	-4.00000e+00	
1.80552   	2.93424e+00		         0.46667	-4.00000e+00	
1.81193   	3.42833e+00		         0.46833	-4.00000e+00	
1.81833   	4.02906e+00		         0.47000	-4.00000e+00	
1.82474   	4.46816e+00		         0.47167	-3.00000e+00	
1.83115   	4.70597e+00		         0.47333	-3.00000e+00	
1.83755   	4.87130e+00		         0.47500	-2.00000e+00	
1.84397   	5.02689e+00		         0.47667	-2.00000e+00	
1.85037   	5.01536e+00		         0.47833	-2.00000e+00	
1.85678   	5.05166e+00		         0.48000	-1.00000e+00	
1.86318   	5.06737e+00		         0.48167	-1.00000e+00	
1.86959   	5.04851e+00		         0.48333	-1.00000e+00	
1.87600   	5.06638e+00		         0.48500	0.00000e+00	
1.88240   	5.14592e+00		         0.48667	0.00000e+00	
1.88881   	5.19662e+00		         0.48833	0.00000e+00	
1.89523   	5.21126e+00		         0.49000	0.00000e+00	
1.90163   	5.22966e+00		         0.49167	0.00000e+00	
1.90804   	5.20474e+00		         0.49333	-1.00000e+00	
1.91445   	5.10271e+00		         0.49500	-1.00000e+00	
1.92085   	4.96485e+00		         0.49667	-2.00000e+00	
1.92726   	4.85224e+00		         0.49833	-3.00000e+00	
1.93367   	4.71118e+00		         0.50000	-3.00000e+00	
1.94008   	4.57239e+00		         0.50167	-4.00000e+00	
1.94648   	4.47402e+00		         0.50333	-5.00000e+00	
1.95290   	4.37493e+00		         0.50500	-5.00000e+00	
1.95930   	4.28850e+00		         0.50667	-6.00000e+00	
1.96571   	4.19338e+00		         0.50833	-6.00000e+00	
1.97211   	4.13552e+00		         0.51000	-7.00000e+00	
1.97852   	4.02219e+00		         0.51167	-7.00000e+00	
1.98493   	3.94456e+00		         0.51333	-7.00000e+00	
1.99134   	3.76222e+00		         0.51500	-7.00000e+00	
1.99774   	3.62249e+00		         0.51667	-7.00000e+00	
2.00415   	3.46867e+00		         0.51833	-6.00000e+00	
2.01056   	3.30644e+00		         0.52000	-6.00000e+00	
2.01697   	3.13621e+00		         0.52167	-6.00000e+00	
2.02337   	3.01150e+00		         0.52333	-5.00000e+00	
2.02978   	2.86961e+00		         0.52500	-5.00000e+00	
2.03619   	2.75119e+00		         0.52667	-4.00000e+00	
2.04260   	2.63873e+00		         0.52833	-4.00000e+00	
2.04901   	2.45507e+00		         0.53000	-4.00000e+00	
2.05575   	2.28346e+00		         0.53167	-4.00000e+00	
2.06182   	2.09958e+00		         0.53333	-4.00000e+00	
2.06823   	1.85028e+00		         0.53500	-4.00000e+00	
2.07463   	1.52434e+00		         0.53667	-4.00000e+00	
2.08105   	1.21141e+00		         0.53833	-4.00000e+00	
2.08745   	9.45336e-01		         0.54000	-4.00000e+00	
2.09386   	5.01294e-01		         0.54167	-4.00000e+00	
2.10027   	3.56376e-01		         0.54333	-4.00000e+00	
2.10668   	5.34343e-01		         0.54500	-4.00000e+00	
2.11308   	5.98029e-01		         0.54667	-5.00000e+00	
2.11949   	6.21541e-01		         0.54833	-5.00000e+00	
2.12590   	9.35619e-01		         0.55000	-5.00000e+00	
2.13231   	1.14212e+00		         0.55167	-4.00000e+00	
2.13901   	1.15991e+00		         0.55333	-4.00000e+00	
2.14512   	1.21782e+00		         0.55500	-4.00000e+00	
2.15153   	1.42806e+00		         0.55667	-4.00000e+00	
2.15794   	1.51905e+00		         0.55833	-5.00000e+00	
2.16434   	1.41087e+00		         0.56000	-5.00000e+00	
2.17075   	1.15918e+00		         0.56167	-5.00000e+00	
2.17716   	8.03562e-01		         0.56333	-5.00000e+00	
2.18357   	5.45014e-02		         0.56500	-5.00000e+00	
2.18997   	-7.54714e-01		         0.56667	-6.00000e+00	
2.19638   	-1.78319e+00		         0.56833	-6.00000e+00	
2.20279   	-2.73937e+00		         0.57000	-6.00000e+00	
2.20920   	-3.53572e+00		         0.57167	-6.00000e+00	
2.21560   	-3.98178e+00		         0.57333	-6.00000e+00	
2.22201   	-4.47110e+00		         0.57500	-6.00000e+00	
2.22842   	-4.63297e+00		         0.57667	-6.00000e+00	
2.23483   	-4.76789e+00		         0.57833	-5.00000e+00	
2.24123   	-4.83748e+00		         0.58000	-5.00000e+00	
2.24765   	-5.04764e+00		         0.58167	-5.00000e+00	
2.25405   	-5.05726e+00		         0.58333	-5.00000e+00	
2.26046   	-5.15118e+00		         0.58500	-5.00000e+00	
2.26686   	-5.10551e+00		         0.58667	-5.00000e+00	
2.27327   	-5.05488e+00		         0.58833	-5.00000e+00	
2.27968   	-4.85606e+00		         0.59000	-5.00000e+00	
2.28609   	-4.57535e+00		         0.59167	-5.00000e+00	
2.29250   	-4.27616e+00		         0.59333	-5.00000e+00	
2.29890   	-3.92614e+00		         0.59500	-5.00000e+00	
2.30531   	-3.43807e+00		         0.59667	-5.00000e+00	
2.31172   	-3.00688e+00		         0.59833	-5.00000e+00	
2.31812   	-2.64057e+00		         0.60000	-5.00000e+00	
2.32453   	-2.19842e+00		         0.60167	-5.00000e+00	
2.33094   	-1.85559e+00		         0.60333	-5.00000e+00	
2.33735   	-1.57148e+00		         0.60500	-5.00000e+00	
2.34376   	-1.31392e+00		         0.60667	-5.00000e+00	
2.35017   	-1.11562e+00		         0.60833	-5.00000e+00	
2.35657   	-9.04591e-01		         0.61000	-5.00000e+00	
2.36298   	-7.71376e-01		         0.61167	-5.00000e+00	
2.36939   	-7.02530e-01		         0.61333	-5.00000e+00	
2.37579   	-6.32721e-01		         0.61500	-5.00000e+00	
2.38220   	-5.55871e-01		         0.61667	-5.00000e+00	
2.38861   	-5.22854e-01		         0.61833	-5.00000e+00	
2.39502   	-4.95125e-01		         0.62000	-5.00000e+00	
2.40143   	-4.60909e-01		         0.62167	-4.00000e+00	
2.40783   	-4.60539e-01		         0.62333	-4.00000e+00	
2.41424   	-4.67869e-01		         0.62500	-3.00000e+00	
2.42065   	-5.09698e-01		         0.62667	-3.00000e+00	
2.42706   	-5.50781e-01		         0.62833	-3.00000e+00	
2.43346   	-6.94762e-01		         0.63000	-2.00000e+00	
2.43987   	-9.42306e-01		         0.63167	-2.00000e+00	
2.44628   	-1.39470e+00		         0.63333	-2.00000e+00	
2.45269   	-2.07478e+00		         0.63500	-2.00000e+00	
2.45909   	-3.02434e+00		         0.63667	-2.00000e+00	
2.46551   	-4.02810e+00		         0.63833	-2.00000e+00	
2.47191   	-5.10032e+00		         0.64000	-2.00000e+00	
2.47832   	-6.09999e+00		         0.64167	-2.00000e+00	
2.48472   	-6.71525e+00		         0.64333	-1.00000e+00	
2.49113   	-7.22701e+00		         0.64500	-1.00000e+00	
2.49754   	-7.53706e+00		         0.64667	-1.00000e+00	
2.50415   	-7.56504e+00		         0.64833	-1.00000e+00	
2.51035   	-7.42262e+00		         0.65000	-1.00000e+00	
2.51676   	-7.08928e+00		         0.65167	-1.00000e+00	
2.52317   	-6.43060e+00		         0.65333	-1.00000e+00	
2.52958   	-5.63581e+00		         0.65500	-1.00000e+00	
2.53599   	-4.88137e+00		         0.65667	-1.00000e+00	
2.54240   	-4.22203e+00		         0.65833	-1.00000e+00	
2.54880   	-3.96256e+00		         0.66000	-1.00000e+00	
2.55521   	-3.76900e+00		         0.66167	-2.00000e+00	
2.56162   	-3.49179e+00		         0.66333	-2.00000e+00	
2.56802   	-3.03999e+00		         0.66500	-2.00000e+00	
2.57443   	-2.66028e+00		         0.66667	-3.00000e+00	
2.58085   	-2.33114e+00		         0.66833	-3.00000e+00	
2.58725   	-1.81608e+00		         0.67000	-4.00000e+00	
2.59366   	-9.10836e-01		         0.67167	-4.00000e+00	
2.60006   	-7.25314e-01		         0.67333	-4.00000e+00	
2.60647   	-3.01402e-01		         0.67500	-5.00000e+00	
2.61288   	2.44248e-01		         0.67667	-5.00000e+00	
2.61928   	7.08712e-01		         0.67833	-5.00000e+00	
			         0.68000	-5.00000e+00	
			         0.68167	-5.00000e+00	
			         0.68333	-5.00000e+00	
			         0.68500	-5.00000e+00	
			         0.68667	-5.00000e+00	
			         0.68833	-4.00000e+00	
			         0.69000	-4.00000e+00	
			         0.69167	-3.00000e+00	
			         0.69333	-2.00000e+00	
			         0.69500	-1.00000e+00	
			         0.69667	0.00000e+00	
			         0.69833	1.00000e+00	
			         0.70000	2.00000e+00	
			         0.70167	3.00000e+00	
			         0.70333	3.00000e+00	
			         0.70500	4.00000e+00	
			         0.70667	4.00000e+00	
			         0.70833	4.00000e+00	
			         0.71000	4.00000e+00	
			         0.71167	4.00000e+00	
			         0.71333	3.00000e+00	
			         0.71500	3.00000e+00	
			         0.71667	3.00000e+00	
			         0.71833	2.00000e+00	
			         0.72000	2.00000e+00	
			         0.72167	2.00000e+00	
			         0.72333	1.00000e+00	
			         0.72500	1.00000e+00	
			         0.72667	0.00000e+00	
			         0.72833	0.00000e+00	
			         0.73000	0.00000e+00	
			         0.73167	-1.00000e+00	
			         0.73333	-2.00000e+00	
			         0.73500	-2.00000e+00	
			         0.73667	-3.00000e+00	
			         0.73833	-4.00000e+00	
			         0.74000	-5.00000e+00	
			         0.74167	-6.00000e+00	
			         0.74333	-7.00000e+00	
			         0.74500	-8.00000e+00	
			         0.74667	-8.00000e+00	
			         0.74833	-9.00000e+00	
			         0.75000	-9.00000e+00	
			         0.75167	-9.00000e+00	
			         0.75333	-9.00000e+00	
			         0.75500	-9.00000e+00	
			         0.75667	-8.00000e+00	
			         0.75833	-8.00000e+00	
			         0.76000	-7.00000e+00	
			         0.76167	-7.00000e+00	
			         0.76333	-6.00000e+00	
			         0.76500	-6.00000e+00	
			         0.76667	-5.00000e+00	
			         0.76833	-5.00000e+00	
			         0.77000	-5.00000e+00	
			         0.77167	-4.00000e+00	
			         0.77333	-4.00000e+00	
			         0.77500	-4.00000e+00	
			         0.77667	-4.00000e+00	
			         0.77833	-4.00000e+00	
			         0.78000	-5.00000e+00	
			         0.78167	-5.00000e+00	
			         0.78333	-5.00000e+00	
			         0.78500	-5.00000e+00	
			         0.78667	-5.00000e+00	
			         0.78833	-5.00000e+00	
			         0.79000	-5.00000e+00	
			         0.79167	-5.00000e+00	
			         0.79333	-6.00000e+00	
			         0.79500	-6.00000e+00	
			         0.79667	-6.00000e+00	
			         0.79833	-6.00000e+00	
			         0.80000	-5.00000e+00	
			         0.80167	-5.00000e+00	
			         0.80333	-5.00000e+00	
			         0.80500	-4.00000e+00	
			         0.80667	-4.00000e+00	
			         0.80833	-3.00000e+00	
			         0.81000	-2.00000e+00	
			         0.81167	-2.00000e+00	
			         0.81333	-1.00000e+00	
			         0.81500	-1.00000e+00	
			         0.81667	-1.00000e+00	
			         0.81833	-1.00000e+00	
			         0.82000	-1.00000e+00	
			         0.82167	-2.00000e+00	
			         0.82333	-2.00000e+00	
			         0.82500	-3.00000e+00	
			         0.82667	-3.00000e+00	
			         0.82833	-4.00000e+00	
			         0.83000	-4.00000e+00	
			         0.83167	-4.00000e+00	
			         0.83333	-5.00000e+00	
			         0.83500	-5.00000e+00	
			         0.83667	-5.00000e+00	
			         0.83833	-5.00000e+00	
			         0.84000	-5.00000e+00	
			         0.84167	-4.00000e+00	
			         0.84333	-4.00000e+00	
			         0.84500	-4.00000e+00	
			         0.84667	-4.00000e+00	
			         0.84833	-4.00000e+00	
			         0.85000	-3.00000e+00	
			         0.85167	-3.00000e+00	
			         0.85333	-2.00000e+00	
			         0.85500	-1.00000e+00	
			         0.85667	0.00000e+00	
			         0.85833	2.00000e+00	
			         0.86000	3.00000e+00	
			         0.86167	5.00000e+00	
			         0.86333	6.00000e+00	
			         0.86500	7.00000e+00	
			         0.86667	8.00000e+00	
			         0.86833	9.00000e+00	
			         0.87000	1.00000e+01	
			         0.87167	1.00000e+01	
			         0.87333	1.00000e+01	
			         0.87500	1.00000e+01	
			         0.87667	1.00000e+01	
			         0.87833	1.10000e+01	
			         0.88000	1.10000e+01	
			         0.88167	1.20000e+01	
			         0.88333	1.40000e+01	
			         0.88500	1.60000e+01	
			         0.88667	1.80000e+01	
			         0.88833	2.10000e+01	
			         0.89000	2.40000e+01	
			         0.89167	2.60000e+01	
			         0.89333	2.90000e+01	
			         0.89500	3.10000e+01	
			         0.89667	3.30000e+01	
			         0.89833	3.40000e+01	
			         0.90000	3.40000e+01	
			         0.90167	3.40000e+01	
			         0.90333	3.30000e+01	
			         0.90500	3.10000e+01	
			         0.90667	2.90000e+01	
			         0.90833	2.60000e+01	
			         0.91000	2.30000e+01	
			         0.91167	2.00000e+01	
			         0.91333	1.70000e+01	
			         0.91500	1.40000e+01	
			         0.91667	1.10000e+01	
			         0.91833	8.00000e+00	
			         0.92000	6.00000e+00	
			         0.92167	3.00000e+00	
			         0.92333	1.00000e+00	
			         0.92500	-1.00000e+00	
			         0.92667	-2.00000e+00	
			         0.92833	-4.00000e+00	
			         0.93000	-6.00000e+00	
			         0.93167	-8.00000e+00	
			         0.93333	-9.00000e+00	
			         0.93500	-1.10000e+01	
			         0.93667	-1.30000e+01	
			         0.93833	-1.40000e+01	
			         0.94000	-1.50000e+01	
			         0.94167	-1.60000e+01	
			         0.94333	-1.70000e+01	
			         0.94500	-1.70000e+01	
			         0.94667	-1.80000e+01	
			         0.94833	-1.80000e+01	
			         0.95000	-1.80000e+01	
			         0.95167	-1.70000e+01	
			         0.95333	-1.70000e+01	
			         0.95500	-1.70000e+01	
			         0.95667	-1.60000e+01	
			         0.95833	-1.60000e+01	
			         0.96000	-1.60000e+01	
			         0.96167	-1.50000e+01	
			         0.96333	-1.50000e+01	
			         0.96500	-1.50000e+01	
			         0.96667	-1.40000e+01	
			         0.96833	-1.40000e+01	
			         0.97000	-1.40000e+01	
			         0.97167	-1.30000e+01	
			         0.97333	-1.30000e+01	
			         0.97500	-1.30000e+01	
			         0.97667	-1.20000e+01	
			         0.97833	-1.20000e+01	
			         0.98000	-1.20000e+01	
			         0.98167	-1.20000e+01	
			         0.98333	-1.20000e+01	
			         0.98500	-1.20000e+01	
			         0.98667	-1.20000e+01	
			         0.98833	-1.10000e+01	
			         0.99000	-1.10000e+01	
			         0.99167	-1.10000e+01	
			         0.99333	-1.10000e+01	
			         0.99500	-1.10000e+01	
			         0.99667	-1.10000e+01	
			         0.99833	-1.00000e+01	
			         1.00000	-1.00000e+01	
			         1.00167	-1.00000e+01	
			         1.00333	-1.00000e+01	
			         1.00500	-1.00000e+01	
			         1.00667	-1.00000e+01	
			         1.00833	-1.00000e+01	
			         1.01000	-1.00000e+01	
			         1.01167	-1.00000e+01	
			         1.01333	-1.00000e+01	
			         1.01500	-1.00000e+01	
			         1.01667	-1.00000e+01	
			         1.01833	-1.00000e+01	
			         1.02000	-9.00000e+00	
			         1.02167	-9.00000e+00	
			         1.02333	-9.00000e+00	
			         1.02500	-9.00000e+00	
			         1.02667	-9.00000e+00	
			         1.02833	-9.00000e+00	
			         1.03000	-8.00000e+00	
			         1.03167	-8.00000e+00	
			         1.03333	-8.00000e+00	
			         1.03500	-8.00000e+00	
			         1.03667	-8.00000e+00	
			         1.03833	-8.00000e+00	
			         1.04000	-8.00000e+00	
			         1.04167	-8.00000e+00	
			         1.04333	-8.00000e+00	
			         1.04500	-8.00000e+00	
			         1.04667	-8.00000e+00	
			         1.04833	-8.00000e+00	
			         1.05000	-7.00000e+00	
			         1.05167	-7.00000e+00	
			         1.05333	-7.00000e+00	
			         1.05500	-7.00000e+00	
			         1.05667	-7.00000e+00	
			         1.05833	-7.00000e+00	
			         1.06000	-7.00000e+00	
			         1.06167	-7.00000e+00	
			         1.06333	-7.00000e+00	
			         1.06500	-7.00000e+00	
			         1.06667	-7.00000e+00	
			         1.06833	-7.00000e+00	
			         1.07000	-8.00000e+00	
			         1.07167	-8.00000e+00	
			         1.07333	-8.00000e+00	
			         1.07500	-9.00000e+00	
			         1.07667	-9.00000e+00	
			         1.07833	-9.00000e+00	
			         1.08000	-9.00000e+00	
			         1.08167	-1.00000e+01	
			         1.08333	-1.00000e+01	
			         1.08500	-1.00000e+01	
			         1.08667	-1.00000e+01	
			         1.08833	-1.00000e+01	
			         1.09000	-1.00000e+01	
			         1.09167	-1.00000e+01	
			         1.09333	-1.00000e+01	
			         1.09500	-1.00000e+01	
			         1.09667	-1.00000e+01	
			         1.09833	-1.00000e+01	
			         1.10000	-9.00000e+00	
			         1.10167	-9.00000e+00	
			         1.10333	-8.00000e+00	
			         1.10500	-8.00000e+00	
			         1.10667	-7.00000e+00	
			         1.10833	-7.00000e+00	
			         1.11000	-6.00000e+00	
			         1.11167	-5.00000e+00	
			         1.11333	-4.00000e+00	
			         1.11500	-4.00000e+00	
			         1.11667	-3.00000e+00	
			         1.11833	-3.00000e+00	
			         1.12000	-2.00000e+00	
			         1.12167	-2.00000e+00	
			         1.12333	-2.00000e+00	
			         1.12500	-2.00000e+00	
			         1.12667	-2.00000e+00	
			         1.12833	-2.00000e+00	
			         1.13000	-3.00000e+00	
			         1.13167	-3.00000e+00	
			         1.13333	-3.00000e+00	
			         1.13500	-3.00000e+00	
			         1.13667	-3.00000e+00	
			         1.13833	-3.00000e+00	
			         1.14000	-3.00000e+00	
			         1.14167	-3.00000e+00	
			         1.14333	-3.00000e+00	
			         1.14500	-3.00000e+00	
			         1.14667	-3.00000e+00	
			         1.14833	-3.00000e+00	
			         1.15000	-3.00000e+00	
			         1.15167	-2.00000e+00	
			         1.15333	-2.00000e+00	
			         1.15500	-2.00000e+00	
			         1.15667	-2.00000e+00	
			         1.15833	-1.00000e+00	
			         1.16000	-1.00000e+00	
			         1.16167	-1.00000e+00	
			         1.16333	-1.00000e+00	
			         1.16500	0.00000e+00	
			         1.16667	0.00000e+00	
			         1.16833	-1.00000e+00	
			         1.17000	-1.00000e+00	
			         1.17167	-1.00000e+00	
			         1.17333	-1.00000e+00	
			         1.17500	-1.00000e+00	
			         1.17667	-1.00000e+00	
			         1.17833	-2.00000e+00	
			         1.18000	-2.00000e+00	
			         1.18167	-2.00000e+00	
			         1.18333	-3.00000e+00	
			         1.18500	-3.00000e+00	
			         1.18667	-3.00000e+00	
			         1.18833	-3.00000e+00	
			         1.19000	-3.00000e+00	
			         1.19167	-3.00000e+00	
			         1.19333	-3.00000e+00	
			         1.19500	-3.00000e+00	
			         1.19667	-2.00000e+00	
			         1.19833	-2.00000e+00	
			         1.20000	-2.00000e+00	
			         1.20167	-2.00000e+00	
			         1.20333	-1.00000e+00	
			         1.20500	-1.00000e+00	
			         1.20667	-1.00000e+00	
			         1.20833	0.00000e+00	
			         1.21000	0.00000e+00	
			         1.21167	0.00000e+00	
			         1.21333	0.00000e+00	
			         1.21500	0.00000e+00	
			         1.21667	0.00000e+00	
			         1.21833	0.00000e+00	
			         1.22000	0.00000e+00	
			         1.22167	0.00000e+00	
			         1.22333	-1.00000e+00	
			         1.22500	-1.00000e+00	
			         1.22667	-1.00000e+00	
			         1.22833	-1.00000e+00	
			         1.23000	-2.00000e+00	
			         1.23167	-2.00000e+00	
			         1.23333	-2.00000e+00	
			         1.23500	-2.00000e+00	
			         1.23667	-2.00000e+00	
			         1.23833	-2.00000e+00	
			         1.24000	-3.00000e+00	
			         1.24167	-3.00000e+00	
			         1.24333	-3.00000e+00	
			         1.24500	-3.00000e+00	
			         1.24667	-3.00000e+00	
			         1.24833	-3.00000e+00	
			         1.25000	-3.00000e+00	
			         1.25167	-3.00000e+00	
			         1.25333	-3.00000e+00	
			         1.25500	-3.00000e+00	
			         1.25667	-3.00000e+00	
			         1.25833	-2.00000e+00	
			         1.26000	-2.00000e+00	
			         1.26167	-2.00000e+00	
			         1.26333	-2.00000e+00	
			         1.26500	-3.00000e+00	
			         1.26667	-3.00000e+00	
			         1.26833	-3.00000e+00	
			         1.27000	-3.00000e+00	
			         1.27167	-3.00000e+00	
			         1.27333	-3.00000e+00	
			         1.27500	-3.00000e+00	
			         1.27667	-3.00000e+00	
			         1.27833	-2.00000e+00	
			         1.28000	-2.00000e+00	
			         1.28167	-1.00000e+00	
			         1.28333	-1.00000e+00	
			         1.28500	0.00000e+00	
			         1.28667	1.00000e+00	
			         1.28833	2.00000e+00	
			         1.29000	2.00000e+00	
			         1.29167	3.00000e+00	
			         1.29333	4.00000e+00	
			         1.29500	4.00000e+00	
			         1.29667	4.00000e+00	
			         1.29833	4.00000e+00	
			         1.30000	4.00000e+00	
			         1.30167	4.00000e+00	
			         1.30333	4.00000e+00	
			         1.30500	4.00000e+00	
			         1.30667	3.00000e+00	
			         1.30833	2.00000e+00	
			         1.31000	2.00000e+00	
			         1.31167	1.00000e+00	
			         1.31333	1.00000e+00	
			         1.31500	0.00000e+00	
			         1.31667	0.00000e+00	
			         1.31833	0.00000e+00	
			         1.32000	0.00000e+00	
			         1.32167	0.00000e+00	
			         1.32333	0.00000e+00	
			         1.32500	0.00000e+00	
			         1.32667	0.00000e+00	
			         1.32833	0.00000e+00	
			         1.33000	0.00000e+00	
			         1.33167	0.00000e+00	
			         1.33333	0.00000e+00	
			         1.33500	-1.00000e+00	
			         1.33667	-1.00000e+00	
			         1.33833	-1.00000e+00	
			         1.34000	-2.00000e+00	
			         1.34167	-3.00000e+00	
			         1.34333	-3.00000e+00	
			         1.34500	-4.00000e+00	
			         1.34667	-4.00000e+00	
			         1.34833	-4.00000e+00	
			         1.35000	-4.00000e+00	
			         1.35167	-4.00000e+00	
			         1.35333	-3.00000e+00	
			         1.35500	-3.00000e+00	
			         1.35667	-2.00000e+00	
			         1.35833	-2.00000e+00	
			         1.36000	-1.00000e+00	
			         1.36167	-1.00000e+00	
			         1.36333	0.00000e+00	
			         1.36500	0.00000e+00	
			         1.36667	0.00000e+00	
			         1.36833	0.00000e+00	
			         1.37000	0.00000e+00	
			         1.37167	-1.00000e+00	
			         1.37333	-1.00000e+00	
			         1.37500	-2.00000e+00	
			         1.37667	-2.00000e+00	
			         1.37833	-3.00000e+00	
			         1.38000	-3.00000e+00	
			         1.38167	-4.00000e+00	
			         1.38333	-4.00000e+00	
			         1.38500	-4.00000e+00	
			         1.38667	-4.00000e+00	
			         1.38833	-4.00000e+00	
			         1.39000	-4.00000e+00	
			         1.39167	-4.00000e+00	
			         1.39333	-3.00000e+00	
			         1.39500	-3.00000e+00	
			         1.39667	-2.00000e+00	
			         1.39833	-2.00000e+00	
			         1.40000	-1.00000e+00	
			         1.40167	-1.00000e+00	
			         1.40333	-1.00000e+00	
			         1.40500	0.00000e+00	
			         1.40667	0.00000e+00	
			         1.40833	0.00000e+00	
			         1.41000	-1.00000e+00	
			         1.41167	-1.00000e+00	
			         1.41333	-1.00000e+00	
			         1.41500	-2.00000e+00	
			         1.41667	-2.00000e+00	
			         1.41833	-3.00000e+00	
			         1.42000	-3.00000e+00	
			         1.42167	-4.00000e+00	
			         1.42333	-4.00000e+00	
			         1.42500	-5.00000e+00	
			         1.42667	-5.00000e+00	
			         1.42833	-5.00000e+00	
			         1.43000	-5.00000e+00	
			         1.43167	-5.00000e+00	
			         1.43333	-5.00000e+00	
			         1.43500	-5.00000e+00	
			         1.43667	-5.00000e+00	
			         1.43833	-5.00000e+00	
			         1.44000	-5.00000e+00	
			         1.44167	-4.00000e+00	
			         1.44333	-4.00000e+00	
			         1.44500	-4.00000e+00	
			         1.44667	-4.00000e+00	
			         1.44833	-4.00000e+00	
			         1.45000	-3.00000e+00	
			         1.45167	-3.00000e+00	
			         1.45333	-3.00000e+00	
			         1.45500	-2.00000e+00	
			         1.45667	-2.00000e+00	
			         1.45833	-1.00000e+00	
			         1.46000	-1.00000e+00	
			         1.46167	-1.00000e+00	
			         1.46333	0.00000e+00	
			         1.46500	0.00000e+00	
			         1.46667	0.00000e+00	
			         1.46833	0.00000e+00	
			         1.47000	0.00000e+00	
			         1.47167	0.00000e+00	
			         1.47333	0.00000e+00	
			         1.47500	0.00000e+00	
			         1.47667	0.00000e+00	
			         1.47833	0.00000e+00	
			         1.48000	0.00000e+00	
			         1.48167	0.00000e+00	
			         1.48333	1.00000e+00	
			         1.48500	1.00000e+00	
			         1.48667	1.00000e+00	
			         1.48833	2.00000e+00	
			         1.49000	2.00000e+00	
			         1.49167	2.00000e+00	
			         1.49333	2.00000e+00	
			         1.49500	2.00000e+00	
			         1.49667	2.00000e+00	
			         1.49833	2.00000e+00	
			         1.50000	2.00000e+00	
			         1.50167	1.00000e+00	
			         1.50333	1.00000e+00	
			         1.50500	0.00000e+00	
			         1.50667	0.00000e+00	
			         1.50833	-1.00000e+00	
			         1.51000	-1.00000e+00	
			         1.51167	-1.00000e+00	
			         1.51333	-2.00000e+00	
			         1.51500	-2.00000e+00	
			         1.51667	-2.00000e+00	
			         1.51833	-2.00000e+00	
			         1.52000	-2.00000e+00	
			         1.52167	-2.00000e+00	
			         1.52333	-2.00000e+00	
			         1.52500	-1.00000e+00	
			         1.52667	-1.00000e+00	
			         1.52833	0.00000e+00	
			         1.53000	0.00000e+00	
			         1.53167	0.00000e+00	
			         1.53333	1.00000e+00	
			         1.53500	1.00000e+00	
			         1.53667	2.00000e+00	
			         1.53833	2.00000e+00	
			         1.54000	3.00000e+00	
			         1.54167	3.00000e+00	
			         1.54333	4.00000e+00	
			         1.54500	4.00000e+00	
			         1.54667	5.00000e+00	
			         1.54833	5.00000e+00	
			         1.55000	5.00000e+00	
			         1.55167	5.00000e+00	
			         1.55333	5.00000e+00	
			         1.55500	5.00000e+00	
			         1.55667	5.00000e+00	
			         1.55833	4.00000e+00	
			         1.56000	4.00000e+00	
			         1.56167	3.00000e+00	
			         1.56333	3.00000e+00	
			         1.56500	2.00000e+00	
			         1.56667	2.00000e+00	
			         1.56833	1.00000e+00	
			         1.57000	1.00000e+00	
			         1.57167	1.00000e+00	
			         1.57333	0.00000e+00	
			         1.57500	0.00000e+00	
			         1.57667	0.00000e+00	
			         1.57833	-1.00000e+00	
			         1.58000	-1.00000e+00	
			         1.58167	-1.00000e+00	
			         1.58333	-2.00000e+00	
			         1.58500	-2.00000e+00	
			         1.58667	-2.00000e+00	
			         1.58833	-2.00000e+00	
			         1.59000	-3.00000e+00	
			         1.59167	-3.00000e+00	
			         1.59333	-3.00000e+00	
			         1.59500	-3.00000e+00	
			         1.59667	-3.00000e+00	
			         1.59833	-3.00000e+00	
			         1.60000	-3.00000e+00	
			         1.60167	-3.00000e+00	
			         1.60333	-2.00000e+00	
			         1.60500	-2.00000e+00	
			         1.60667	-2.00000e+00	
			         1.60833	-1.00000e+00	
			         1.61000	-1.00000e+00	
			         1.61167	-1.00000e+00	
			         1.61333	0.00000e+00	
			         1.61500	0.00000e+00	
			         1.61667	0.00000e+00	
			         1.61833	0.00000e+00	
			         1.62000	-1.00000e+00	
			         1.62167	-1.00000e+00	
			         1.62333	-1.00000e+00	
			         1.62500	-2.00000e+00	
			         1.62667	-2.00000e+00	
			         1.62833	-3.00000e+00	
			         1.63000	-3.00000e+00	
			         1.63167	-4.00000e+00	
			         1.63333	-4.00000e+00	
			         1.63500	-5.00000e+00	
			         1.63667	-5.00000e+00	
			         1.63833	-5.00000e+00	
			         1.64000	-5.00000e+00	
			         1.64167	-6.00000e+00	
			         1.64333	-6.00000e+00	
			         1.64500	-6.00000e+00	
			         1.64667	-6.00000e+00	
			         1.64833	-5.00000e+00	
			         1.65000	-5.00000e+00	
			         1.65167	-4.00000e+00	
			         1.65333	-4.00000e+00	
			         1.65500	-3.00000e+00	
			         1.65667	-3.00000e+00	
			         1.65833	-3.00000e+00	
			         1.66000	-3.00000e+00	
			         1.66167	-2.00000e+00	
			         1.66333	-2.00000e+00	
			         1.66500	-2.00000e+00	
			         1.66667	-2.00000e+00	
			         1.66833	-2.00000e+00	
			         1.67000	-2.00000e+00	
			         1.67167	-1.00000e+00	
			         1.67333	-1.00000e+00	
			         1.67500	-1.00000e+00	
			         1.67667	-1.00000e+00	
			         1.67833	0.00000e+00	
			         1.68000	0.00000e+00	
			         1.68167	0.00000e+00	
			         1.68333	1.00000e+00	
			         1.68500	1.00000e+00	
			         1.68667	1.00000e+00	
			         1.68833	1.00000e+00	
			         1.69000	1.00000e+00	
			         1.69167	1.00000e+00	
			         1.69333	1.00000e+00	
			         1.69500	1.00000e+00	
			         1.69667	1.00000e+00	
			         1.69833	2.00000e+00	
			         1.70000	2.00000e+00	
			         1.70167	3.00000e+00	
			         1.70333	4.00000e+00	
			         1.70500	5.00000e+00	
			         1.70667	6.00000e+00	
			         1.70833	7.00000e+00	
			         1.71000	7.00000e+00	
			         1.71167	7.00000e+00	
			         1.71333	7.00000e+00	
			         1.71500	7.00000e+00	
			         1.71667	7.00000e+00	
			         1.71833	7.00000e+00	
			         1.72000	6.00000e+00	
			         1.72167	7.00000e+00	
			         1.72333	8.00000e+00	
			         1.72500	9.00000e+00	
			         1.72667	1.10000e+01	
			         1.72833	1.40000e+01	
			         1.73000	1.70000e+01	
			         1.73167	2.10000e+01	
			         1.73333	2.50000e+01	
			         1.73500	3.00000e+01	
			         1.73667	3.40000e+01	
			         1.73833	3.70000e+01	
			         1.74000	4.00000e+01	
			         1.74167	4.20000e+01	
			         1.74333	4.30000e+01	
			         1.74500	4.30000e+01	
			         1.74667	4.30000e+01	
			         1.74833	4.10000e+01	
			         1.75000	3.80000e+01	
			         1.75167	3.50000e+01	
			         1.75333	3.10000e+01	
			         1.75500	2.70000e+01	
			         1.75667	2.30000e+01	
			         1.75833	1.90000e+01	
			         1.76000	1.50000e+01	
			         1.76167	1.20000e+01	
			         1.76333	8.00000e+00	
			         1.76500	5.00000e+00	
			         1.76667	2.00000e+00	
			         1.76833	-1.00000e+00	
			         1.77000	-3.00000e+00	
			         1.77167	-6.00000e+00	
			         1.77333	-8.00000e+00	
			         1.77500	-9.00000e+00	
			         1.77667	-1.10000e+01	
			         1.77833	-1.20000e+01	
			         1.78000	-1.30000e+01	
			         1.78167	-1.40000e+01	
			         1.78333	-1.50000e+01	
			         1.78500	-1.60000e+01	
			         1.78667	-1.70000e+01	
			         1.78833	-1.70000e+01	
			         1.79000	-1.70000e+01	
			         1.79167	-1.70000e+01	
			         1.79333	-1.70000e+01	
			         1.79500	-1.60000e+01	
			         1.79667	-1.60000e+01	
			         1.79833	-1.60000e+01	
			         1.80000	-1.50000e+01	
			         1.80167	-1.40000e+01	
			         1.80333	-1.40000e+01	
			         1.80500	-1.30000e+01	
			         1.80667	-1.30000e+01	
			         1.80833	-1.30000e+01	
			         1.81000	-1.30000e+01	
			         1.81167	-1.20000e+01	
			         1.81333	-1.20000e+01	
			         1.81500	-1.10000e+01	
			         1.81667	-1.10000e+01	
			         1.81833	-1.10000e+01	
			         1.82000	-1.00000e+01	
			         1.82167	-1.00000e+01	
			         1.82333	-1.00000e+01	
			         1.82500	-9.00000e+00	
			         1.82667	-9.00000e+00	
			         1.82833	-9.00000e+00	
			         1.83000	-8.00000e+00	
			         1.83167	-8.00000e+00	
			         1.83333	-8.00000e+00	
			         1.83500	-8.00000e+00	
			         1.83667	-9.00000e+00	
			         1.83833	-9.00000e+00	
			         1.84000	-9.00000e+00	
			         1.84167	-9.00000e+00	
			         1.84333	-9.00000e+00	
			         1.84500	-9.00000e+00	
			         1.84667	-9.00000e+00	
			         1.84833	-8.00000e+00	
			         1.85000	-8.00000e+00	
			         1.85167	-7.00000e+00	
			         1.85333	-6.00000e+00	
			         1.85500	-6.00000e+00	
			         1.85667	-5.00000e+00	
			         1.85833	-4.00000e+00	
			         1.86000	-4.00000e+00	
			         1.86167	-4.00000e+00	
			         1.86333	-4.00000e+00	
			         1.86500	-4.00000e+00	
			         1.86667	-4.00000e+00	
			         1.86833	-4.00000e+00	
			         1.87000	-5.00000e+00	
			         1.87167	-5.00000e+00	
			         1.87333	-6.00000e+00	
			         1.87500	-6.00000e+00	
			         1.87667	-7.00000e+00	
			         1.87833	-7.00000e+00	
			         1.88000	-8.00000e+00	
			         1.88167	-8.00000e+00	
			         1.88333	-8.00000e+00	
			         1.88500	-9.00000e+00	
			         1.88667	-9.00000e+00	
			         1.88833	-9.00000e+00	
			         1.89000	-8.00000e+00	
			         1.89167	-8.00000e+00	
			         1.89333	-7.00000e+00	
			         1.89500	-7.00000e+00	
			         1.89667	-6.00000e+00	
			         1.89833	-5.00000e+00	
			         1.90000	-5.00000e+00	
			         1.90167	-4.00000e+00	
			         1.90333	-4.00000e+00	
			         1.90500	-3.00000e+00	
			         1.90667	-3.00000e+00	
			         1.90833	-3.00000e+00	
			         1.91000	-3.00000e+00	
			         1.91167	-4.00000e+00	
			         1.91333	-4.00000e+00	
			         1.91500	-5.00000e+00	
			         1.91667	-6.00000e+00	
			         1.91833	-7.00000e+00	
			         1.92000	-7.00000e+00	
			         1.92167	-8.00000e+00	
			         1.92333	-8.00000e+00	
			         1.92500	-8.00000e+00	
			         1.92667	-8.00000e+00	
			         1.92833	-8.00000e+00	
			         1.93000	-8.00000e+00	
			         1.93167	-7.00000e+00	
			         1.93333	-7.00000e+00	
			         1.93500	-6.00000e+00	
			         1.93667	-6.00000e+00	
			         1.93833	-5.00000e+00	
			         1.94000	-5.00000e+00	
			         1.94167	-4.00000e+00	
			         1.94333	-4.00000e+00	
			         1.94500	-3.00000e+00	
			         1.94667	-3.00000e+00	
			         1.94833	-3.00000e+00	
			         1.95000	-2.00000e+00	
			         1.95167	-2.00000e+00	
			         1.95333	-2.00000e+00	
			         1.95500	-2.00000e+00	
			         1.95667	-2.00000e+00	
			         1.95833	-3.00000e+00	
			         1.96000	-3.00000e+00	
			         1.96167	-3.00000e+00	
			         1.96333	-4.00000e+00	
			         1.96500	-4.00000e+00	
			         1.96667	-4.00000e+00	
			         1.96833	-4.00000e+00	
			         1.97000	-4.00000e+00	
			         1.97167	-4.00000e+00	
			         1.97333	-4.00000e+00	
			         1.97500	-4.00000e+00	
			         1.97667	-3.00000e+00	
			         1.97833	-3.00000e+00	
			         1.98000	-2.00000e+00	
			         1.98167	-2.00000e+00	
			         1.98333	-1.00000e+00	
			         1.98500	-1.00000e+00	
			         1.98667	-1.00000e+00	
			         1.98833	-1.00000e+00	
			         1.99000	-1.00000e+00	
			         1.99167	-1.00000e+00	
			         1.99333	-1.00000e+00	
			         1.99500	-1.00000e+00	
			         1.99667	-1.00000e+00	
			         1.99833	-2.00000e+00	
			         2.00000	-2.00000e+00	
			         2.00167	-3.00000e+00	
			         2.00333	-3.00000e+00	
			         2.00500	-3.00000e+00	
			         2.00667	-3.00000e+00	
			         2.00833	-3.00000e+00	
			         2.01000	-3.00000e+00	
			         2.01167	-3.00000e+00	
			         2.01333	-2.00000e+00	
			         2.01500	-2.00000e+00	
			         2.01667	-1.00000e+00	
			         2.01833	0.00000e+00	
			         2.02000	0.00000e+00	
			         2.02167	1.00000e+00	
			         2.02333	2.00000e+00	
			         2.02500	2.00000e+00	
			         2.02667	3.00000e+00	
			         2.02833	3.00000e+00	
			         2.03000	3.00000e+00	
			         2.03167	2.00000e+00	
			         2.03333	2.00000e+00	
			         2.03500	2.00000e+00	
			         2.03667	2.00000e+00	
			         2.03833	1.00000e+00	
			         2.04000	1.00000e+00	
			         2.04167	1.00000e+00	
			         2.04333	2.00000e+00	
			         2.04500	2.00000e+00	
			         2.04667	2.00000e+00	
			         2.04833	3.00000e+00	
			         2.05000	3.00000e+00	
			         2.05167	3.00000e+00	
			         2.05333	3.00000e+00	
			         2.05500	3.00000e+00	
			         2.05667	3.00000e+00	
			         2.05833	3.00000e+00	
			         2.06000	3.00000e+00	
			         2.06167	3.00000e+00	
			         2.06333	3.00000e+00	
			         2.06500	3.00000e+00	
			         2.06667	3.00000e+00	
			         2.06833	3.00000e+00	
			         2.07000	3.00000e+00	
			         2.07167	3.00000e+00	
			         2.07333	3.00000e+00	
			         2.07500	3.00000e+00	
			         2.07667	3.00000e+00	
			         2.07833	2.00000e+00	
			         2.08000	2.00000e+00	
			         2.08167	2.00000e+00	
			         2.08333	2.00000e+00	
			         2.08500	1.00000e+00	
			         2.08667	1.00000e+00	
			         2.08833	1.00000e+00	
			         2.09000	1.00000e+00	
			         2.09167	1.00000e+00	
			         2.09333	0.00000e+00	
			         2.09500	0.00000e+00	
			         2.09667	0.00000e+00	
			         2.09833	0.00000e+00	
			         2.10000	0.00000e+00	
			         2.10167	-1.00000e+00	
			         2.10333	-1.00000e+00	
			         2.10500	-1.00000e+00	
			         2.10667	-1.00000e+00	
			         2.10833	-1.00000e+00	
			         2.11000	-1.00000e+00	
			         2.11167	-1.00000e+00	
			         2.11333	-1.00000e+00	
			         2.11500	-1.00000e+00	
			         2.11667	-1.00000e+00	
			         2.11833	-1.00000e+00	
			         2.12000	0.00000e+00	
			         2.12167	0.00000e+00	
			         2.12333	0.00000e+00	
			         2.12500	0.00000e+00	
			         2.12667	1.00000e+00	
			         2.12833	1.00000e+00	
			         2.13000	1.00000e+00	
			         2.13167	1.00000e+00	
			         2.13333	2.00000e+00	
			         2.13500	2.00000e+00	
			         2.13667	2.00000e+00	
			         2.13833	2.00000e+00	
			         2.14000	3.00000e+00	
			         2.14167	3.00000e+00	
			         2.14333	3.00000e+00	
			         2.14500	3.00000e+00	
			         2.14667	4.00000e+00	
			         2.14833	4.00000e+00	
			         2.15000	4.00000e+00	
			         2.15167	4.00000e+00	
			         2.15333	3.00000e+00	
			         2.15500	3.00000e+00	
			         2.15667	3.00000e+00	
			         2.15833	2.00000e+00	
			         2.16000	1.00000e+00	
			         2.16167	1.00000e+00	
			         2.16333	0.00000e+00	
			         2.16500	0.00000e+00	
			         2.16667	-1.00000e+00	
			         2.16833	-1.00000e+00	
			         2.17000	-1.00000e+00	
			         2.17167	-1.00000e+00	
			         2.17333	-1.00000e+00	
			         2.17500	0.00000e+00	
			         2.17667	0.00000e+00	
			         2.17833	0.00000e+00	
			         2.18000	1.00000e+00	
			         2.18167	1.00000e+00	
			         2.18333	1.00000e+00	
			         2.18500	1.00000e+00	
			         2.18667	1.00000e+00	
			         2.18833	1.00000e+00	
			         2.19000	1.00000e+00	
			         2.19167	1.00000e+00	
			         2.19333	0.00000e+00	
			         2.19500	0.00000e+00	
			         2.19667	0.00000e+00	
			         2.19833	0.00000e+00	
			         2.20000	-1.00000e+00	
			         2.20167	-1.00000e+00	
			         2.20333	-1.00000e+00	
			         2.20500	-1.00000e+00	
			         2.20667	-1.00000e+00	
			         2.20833	-1.00000e+00	
			         2.21000	-1.00000e+00	
			         2.21167	-1.00000e+00	
			         2.21333	-1.00000e+00	
			         2.21500	-1.00000e+00	
			         2.21667	-1.00000e+00	
			         2.21833	-1.00000e+00	
			         2.22000	-1.00000e+00	
			         2.22167	0.00000e+00	
			         2.22333	0.00000e+00	
			         2.22500	0.00000e+00	
			         2.22667	0.00000e+00	
			         2.22833	0.00000e+00	
			         2.23000	0.00000e+00	
			         2.23167	0.00000e+00	
			         2.23333	0.00000e+00	
			         2.23500	0.00000e+00	
			         2.23667	0.00000e+00	
			         2.23833	-1.00000e+00	
			         2.24000	-1.00000e+00	
			         2.24167	-1.00000e+00	
			         2.24333	-1.00000e+00	
			         2.24500	-2.00000e+00	
			         2.24667	-2.00000e+00	
			         2.24833	-2.00000e+00	
			         2.25000	-2.00000e+00	
			         2.25167	-2.00000e+00	
			         2.25333	-2.00000e+00	
			         2.25500	-2.00000e+00	
			         2.25667	-2.00000e+00	
			         2.25833	-1.00000e+00	
			         2.26000	-1.00000e+00	
			         2.26167	0.00000e+00	
			         2.26333	0.00000e+00	
			         2.26500	1.00000e+00	
			         2.26667	2.00000e+00	
			         2.26833	3.00000e+00	
			         2.27000	3.00000e+00	
			         2.27167	4.00000e+00	
			         2.27333	4.00000e+00	
			         2.27500	4.00000e+00	
			         2.27667	3.00000e+00	
			         2.27833	3.00000e+00	
			         2.28000	2.00000e+00	
			         2.28167	1.00000e+00	
			         2.28333	0.00000e+00	
			         2.28500	-1.00000e+00	
			         2.28667	-1.00000e+00	
			         2.28833	-2.00000e+00	
			         2.29000	-3.00000e+00	
			         2.29167	-4.00000e+00	
			         2.29333	-4.00000e+00	
			         2.29500	-4.00000e+00	
			         2.29667	-4.00000e+00	
			         2.29833	-4.00000e+00	
			         2.30000	-4.00000e+00	
			         2.30167	-3.00000e+00	
			         2.30333	-3.00000e+00	
			         2.30500	-3.00000e+00	
			         2.30667	-2.00000e+00	
			         2.30833	-2.00000e+00	
			         2.31000	-2.00000e+00	
			         2.31167	-2.00000e+00	
			         2.31333	-2.00000e+00	
			         2.31500	-2.00000e+00	
			         2.31667	-2.00000e+00	
			         2.31833	-2.00000e+00	
			         2.32000	-2.00000e+00	
			         2.32167	-2.00000e+00	
			         2.32333	-3.00000e+00	
			         2.32500	-3.00000e+00	
			         2.32667	-3.00000e+00	
			         2.32833	-3.00000e+00	
			         2.33000	-3.00000e+00	
			         2.33167	-3.00000e+00	
			         2.33333	-2.00000e+00	
			         2.33500	-2.00000e+00	
			         2.33667	-2.00000e+00	
			         2.33833	-2.00000e+00	
			         2.34000	-2.00000e+00	
			         2.34167	-2.00000e+00	
			         2.34333	-2.00000e+00	
			         2.34500	-3.00000e+00	
			         2.34667	-3.00000e+00	
			         2.34833	-3.00000e+00	
			         2.35000	-4.00000e+00	
			         2.35167	-4.00000e+00	
			         2.35333	-5.00000e+00	
			         2.35500	-5.00000e+00	
			         2.35667	-5.00000e+00	
			         2.35833	-5.00000e+00	
			         2.36000	-6.00000e+00	
			         2.36167	-6.00000e+00	
			         2.36333	-6.00000e+00	
			         2.36500	-6.00000e+00	
			         2.36667	-6.00000e+00	
			         2.36833	-6.00000e+00	
			         2.37000	-6.00000e+00	
			         2.37167	-5.00000e+00	
			         2.37333	-5.00000e+00	
			         2.37500	-5.00000e+00	
			         2.37667	-4.00000e+00	
			         2.37833	-4.00000e+00	
			         2.38000	-3.00000e+00	
			         2.38167	-2.00000e+00	
			         2.38333	-2.00000e+00	
			         2.38500	-1.00000e+00	
			         2.38667	-1.00000e+00	
			         2.38833	-1.00000e+00	
			         2.39000	0.00000e+00	
			         2.39167	0.00000e+00	
			         2.39333	0.00000e+00	
			         2.39500	0.00000e+00	
			         2.39667	0.00000e+00	
			         2.39833	1.00000e+00	
			         2.40000	1.00000e+00	
			         2.40167	2.00000e+00	
			         2.40333	2.00000e+00	
			         2.40500	3.00000e+00	
			         2.40667	3.00000e+00	
			         2.40833	4.00000e+00	
			         2.41000	4.00000e+00	
			         2.41167	4.00000e+00	
			         2.41333	4.00000e+00	
			         2.41500	4.00000e+00	
			         2.41667	4.00000e+00	
			         2.41833	4.00000e+00	
			         2.42000	4.00000e+00	
			         2.42167	4.00000e+00	
			         2.42333	3.00000e+00	
			         2.42500	3.00000e+00	
			         2.42667	3.00000e+00	
			         2.42833	3.00000e+00	
			         2.43000	3.00000e+00	
			         2.43167	4.00000e+00	
			         2.43333	4.00000e+00	
			         2.43500	4.00000e+00	
			         2.43667	3.00000e+00	
			         2.43833	3.00000e+00	
			         2.44000	2.00000e+00	
			         2.44167	1.00000e+00	
			         2.44333	0.00000e+00	
			         2.44500	-1.00000e+00	
			         2.44667	-3.00000e+00	
			         2.44833	-4.00000e+00	
			         2.45000	-5.00000e+00	
			         2.45167	-6.00000e+00	
			         2.45333	-7.00000e+00	
			         2.45500	-7.00000e+00	
			         2.45667	-8.00000e+00	
			         2.45833	-8.00000e+00	
			         2.46000	-7.00000e+00	
			         2.46167	-7.00000e+00	
			         2.46333	-7.00000e+00	
			         2.46500	-7.00000e+00	
			         2.46667	-6.00000e+00	
			         2.46833	-6.00000e+00	
			         2.47000	-6.00000e+00	
			         2.47167	-6.00000e+00	
			         2.47333	-7.00000e+00	
			         2.47500	-7.00000e+00	
			         2.47667	-7.00000e+00	
			         2.47833	-8.00000e+00	
			         2.48000	-8.00000e+00	
			         2.48167	-8.00000e+00	
			         2.48333	-8.00000e+00	
			         2.48500	-9.00000e+00	
			         2.48667	-9.00000e+00	
			         2.48833	-9.00000e+00	
			         2.49000	-9.00000e+00	
			         2.49167	-9.00000e+00	
			         2.49333	-9.00000e+00	
			         2.49500	-8.00000e+00	
			         2.49667	-8.00000e+00	
			         2.49833	-8.00000e+00	
			         2.50000	-8.00000e+00	
			         2.50167	-8.00000e+00	
			         2.50333	-8.00000e+00	
			         2.50500	-7.00000e+00	
			         2.50667	-7.00000e+00	
			         2.50833	-7.00000e+00	
			         2.51000	-6.00000e+00	
			         2.51167	-6.00000e+00	
			         2.51333	-6.00000e+00	
			         2.51500	-5.00000e+00	
			         2.51667	-5.00000e+00	
			         2.51833	-5.00000e+00	
			         2.52000	-5.00000e+00	
			         2.52167	-5.00000e+00	
			         2.52333	-5.00000e+00	
			         2.52500	-5.00000e+00	
			         2.52667	-6.00000e+00	
			         2.52833	-6.00000e+00	
			         2.53000	-7.00000e+00	
			         2.53167	-7.00000e+00	
			         2.53333	-8.00000e+00	
			         2.53500	-8.00000e+00	
			         2.53667	-9.00000e+00	
			         2.53833	-9.00000e+00	
			         2.54000	-9.00000e+00	
			         2.54167	-9.00000e+00	
			         2.54333	-9.00000e+00	
			         2.54500	-8.00000e+00	
			         2.54667	-7.00000e+00	
			         2.54833	-6.00000e+00	
			         2.55000	-4.00000e+00	
			         2.55167	-3.00000e+00	
			         2.55333	-1.00000e+00	
			         2.55500	1.00000e+00	
			         2.55667	2.00000e+00	
			         2.55833	4.00000e+00	
			         2.56000	5.00000e+00	
			         2.56167	6.00000e+00	
			         2.56333	7.00000e+00	
			         2.56500	7.00000e+00	
			         2.56667	7.00000e+00	
			         2.56833	8.00000e+00	
			         2.57000	8.00000e+00	
			         2.57167	9.00000e+00	
			         2.57333	1.00000e+01	
			         2.57500	1.10000e+01	
			         2.57667	1.30000e+01	
			         2.57833	1.50000e+01	
			         2.58000	1.80000e+01	
			         2.58167	2.10000e+01	
			         2.58333	2.40000e+01	
			         2.58500	2.70000e+01	
			         2.58667	3.00000e+01	
			         2.58833	3.20000e+01	
			         2.59000	3.40000e+01	
			         2.59167	3.50000e+01	
			         2.59333	3.50000e+01	
			         2.59500	3.50000e+01	
			         2.59667	3.30000e+01	
			         2.59833	3.10000e+01	
			         2.60000	2.90000e+01	
			         2.60167	2.60000e+01	
			         2.60333	2.30000e+01	
			         2.60500	1.90000e+01	
			         2.60667	1.60000e+01	
			         2.60833	1.20000e+01	
			         2.61000	9.00000e+00	
			         2.61167	6.00000e+00	
			         2.61333	3.00000e+00	
			         2.61500	0.00000e+00	
			         2.61667	-3.00000e+00	
			         2.61833	-5.00000e+00	
			         2.62000	-7.00000e+00	
			         2.62167	-9.00000e+00	
			         2.62333	-1.10000e+01	
			         2.62500	-1.20000e+01	
			         2.62667	-1.30000e+01	
			         2.62833	-1.40000e+01	
			         2.63000	-1.50000e+01	
			         2.63167	-1.50000e+01	
			         2.63333	-1.60000e+01	
			         2.63500	-1.60000e+01	
			         2.63667	-1.60000e+01	
			         2.63833	-1.60000e+01	
			         2.64000	-1.60000e+01	
			         2.64167	-1.60000e+01	
			         2.64333	-1.60000e+01	
			         2.64500	-1.60000e+01	
			         2.64667	-1.60000e+01	
			         2.64833	-1.60000e+01	
			         2.65000	-1.60000e+01	
			         2.65167	-1.60000e+01	
			         2.65333	-1.50000e+01	
			         2.65500	-1.50000e+01	
			         2.65667	-1.50000e+01	
			         2.65833	-1.40000e+01	
			         2.66000	-1.40000e+01	
			         2.66167	-1.40000e+01	
			         2.66333	-1.40000e+01	
			         2.66500	-1.40000e+01	
			         2.66667	-1.40000e+01	
			         2.66833	-1.40000e+01	
