Velocity (TVI), in cm/s

Time (s) :	Trace 1 : 		Ecg : 		
0.02644   	1.06910e-03		         0.00000	9.60000e+01	
0.03338   	1.22576e+00		         0.00167	1.18000e+02	
0.04003   	2.35102e+00		         0.00333	1.41000e+02	
0.04669   	4.13034e+00		         0.00500	1.66000e+02	
0.05335   	4.13491e+00		         0.00667	1.91000e+02	
0.06029   	3.78635e+00		         0.00833	2.17000e+02	
0.06695   	2.30286e+00		         0.01000	2.42000e+02	
0.07361   	1.07868e+00		         0.01167	2.66000e+02	
0.08027   	-2.45766e-01		         0.01333	2.87000e+02	
0.08743   	7.36313e-02		         0.01500	3.05000e+02	
0.09386   	1.01163e+00		         0.01667	3.16000e+02	
0.10052   	2.40224e+00		         0.01833	3.21000e+02	
0.10718   	3.27500e+00		         0.02000	3.19000e+02	
0.11411   	4.06756e+00		         0.02167	3.08000e+02	
0.12076   	4.69352e+00		         0.02333	2.88000e+02	
0.12743   	4.98146e+00		         0.02500	2.59000e+02	
0.13409   	5.15654e+00		         0.02667	2.23000e+02	
0.14102   	5.15765e+00		         0.02833	1.78000e+02	
0.14768   	5.10893e+00		         0.03000	1.27000e+02	
0.15434   	5.02684e+00		         0.03167	7.00000e+01	
0.16100   	4.97467e+00		         0.03333	1.10000e+01	
0.16793   	4.79907e+00		         0.03500	-5.10000e+01	
0.17460   	4.59319e+00		         0.03667	-1.11000e+02	
0.18125   	4.44866e+00		         0.03833	-1.70000e+02	
0.18791   	4.36886e+00		         0.04000	-2.24000e+02	
0.19485   	4.15463e+00		         0.04167	-2.73000e+02	
0.20151   	4.02433e+00		         0.04333	-3.17000e+02	
0.20817   	3.98517e+00		         0.04500	-3.54000e+02	
0.21483   	3.88656e+00		         0.04667	-3.83000e+02	
0.22176   	3.72592e+00		         0.04833	-4.06000e+02	
0.22842   	3.70016e+00		         0.05000	-4.22000e+02	
0.23508   	3.66369e+00		         0.05167	-4.32000e+02	
0.24174   	3.60517e+00		         0.05333	-4.36000e+02	
0.24867   	3.59486e+00		         0.05500	-4.34000e+02	
0.25533   	3.56857e+00		         0.05667	-4.28000e+02	
0.26199   	3.53687e+00		         0.05833	-4.18000e+02	
0.26865   	3.46041e+00		         0.06000	-4.04000e+02	
0.27559   	3.32128e+00		         0.06167	-3.87000e+02	
0.28225   	3.12669e+00		         0.06333	-3.68000e+02	
0.28890   	2.98905e+00		         0.06500	-3.47000e+02	
0.29556   	2.78510e+00		         0.06667	-3.25000e+02	
0.30250   	2.57492e+00		         0.06833	-3.01000e+02	
0.30916   	2.46309e+00		         0.07000	-2.76000e+02	
0.31582   	2.43806e+00		         0.07167	-2.51000e+02	
0.32248   	2.35498e+00		         0.07333	-2.26000e+02	
0.32941   	2.25346e+00		         0.07500	-2.00000e+02	
0.33607   	2.21700e+00		         0.07667	-1.74000e+02	
0.34273   	2.05506e+00		         0.07833	-1.49000e+02	
0.34939   	1.84403e+00		         0.08000	-1.25000e+02	
0.35632   	1.64104e+00		         0.08167	-1.01000e+02	
0.36298   	1.46863e+00		         0.08333	-7.90000e+01	
0.36978   	1.26298e+00		         0.08500	-5.80000e+01	
0.37630   	1.13196e+00		         0.08667	-3.90000e+01	
0.38323   	9.48446e-01		         0.08833	-2.10000e+01	
0.38989   	7.92257e-01		         0.09000	-5.00000e+00	
0.39655   	6.16111e-01		         0.09167	1.00000e+01	
0.40321   	3.82242e-01		         0.09333	2.20000e+01	
0.41015   	6.65092e-02		         0.09500	3.40000e+01	
0.41680   	-2.30982e-01		         0.09667	4.30000e+01	
0.42347   	-4.12252e-01		         0.09833	5.10000e+01	
0.43012   	-4.49047e-01		         0.10000	5.80000e+01	
0.43706   	-3.19473e-01		         0.10167	6.40000e+01	
0.44371   	5.57182e-02		         0.10333	6.80000e+01	
0.45038   	3.16609e-01		         0.10500	7.20000e+01	
0.45704   	4.98408e-01		         0.10667	7.50000e+01	
0.46397   	4.27187e-01		         0.10833	7.70000e+01	
0.47063   	3.80970e-01		         0.11000	7.90000e+01	
0.47729   	1.99519e-01		         0.11167	8.00000e+01	
0.48395   	1.76350e-01		         0.11333	8.00000e+01	
0.49088   	6.77923e-02		         0.11500	8.00000e+01	
0.49754   	2.90135e-02		         0.11667	8.00000e+01	
0.50420   	-3.85717e-02		         0.11833	8.00000e+01	
0.51086   	-1.57636e-01		         0.12000	8.00000e+01	
0.51779   	-3.48802e-01		         0.12167	7.90000e+01	
0.52445   	-6.36161e-01		         0.12333	7.80000e+01	
0.53111   	-8.26853e-01		         0.12500	7.70000e+01	
0.53777   	-1.24886e+00		         0.12667	7.60000e+01	
0.54471   	-1.83399e+00		         0.12833	7.50000e+01	
0.55136   	-2.30112e+00		         0.13000	7.30000e+01	
0.55803   	-2.59007e+00		         0.13167	7.20000e+01	
0.56468   	-2.88178e+00		         0.13333	7.10000e+01	
0.57162   	-3.01413e+00		         0.13500	6.90000e+01	
0.57828   	-3.02458e+00		         0.13667	6.80000e+01	
0.58494   	-3.14692e+00		         0.13833	6.60000e+01	
0.59160   	-3.28108e+00		         0.14000	6.50000e+01	
0.59853   	-3.48712e+00		         0.14167	6.30000e+01	
0.60519   	-3.66906e+00		         0.14333	6.20000e+01	
0.61185   	-3.73570e+00		         0.14500	6.10000e+01	
0.61883   	-3.75644e+00		         0.14667	6.10000e+01	
0.62544   	-3.73613e+00		         0.14833	6.10000e+01	
0.63210   	-3.65769e+00		         0.15000	6.10000e+01	
0.63876   	-3.58436e+00		         0.15167	6.20000e+01	
0.64542   	-3.45556e+00		         0.15333	6.20000e+01	
0.65235   	-3.29321e+00		         0.15500	6.30000e+01	
0.65901   	-3.03903e+00		         0.15667	6.40000e+01	
0.66567   	-2.76468e+00		         0.15833	6.40000e+01	
0.67233   	-2.38955e+00		         0.16000	6.40000e+01	
0.67927   	-2.11587e+00		         0.16167	6.40000e+01	
0.68592   	-1.78675e+00		         0.16333	6.40000e+01	
0.69259   	-1.56910e+00		         0.16500	6.40000e+01	
0.69925   	-1.26480e+00		         0.16667	6.30000e+01	
0.70618   	-1.12215e+00		         0.16833	6.20000e+01	
0.71284   	-9.34923e-01		         0.17000	6.20000e+01	
0.71950   	-7.71182e-01		         0.17167	6.00000e+01	
0.72616   	-6.10758e-01		         0.17333	5.90000e+01	
0.73309   	-5.20212e-01		         0.17500	5.80000e+01	
0.73975   	-4.07558e-01		         0.17667	5.70000e+01	
0.74641   	-3.16505e-01		         0.17833	5.60000e+01	
0.75307   	-2.85085e-01		         0.18000	5.50000e+01	
0.76000   	-2.73492e-01		         0.18167	5.40000e+01	
0.76666   	-2.76850e-01		         0.18333	5.30000e+01	
0.77332   	-2.68490e-01		         0.18500	5.30000e+01	
0.77998   	-2.53959e-01		         0.18667	5.20000e+01	
0.78692   	-2.34609e-01		         0.18833	5.20000e+01	
0.79357   	-1.80994e-01		         0.19000	5.10000e+01	
0.80023   	-1.54255e-01		         0.19167	5.00000e+01	
0.80690   	-1.29567e-01		         0.19333	5.00000e+01	
0.81383   	-1.01999e-01		         0.19500	4.90000e+01	
0.82049   	-7.21372e-02		         0.19667	4.90000e+01	
0.82715   	-8.36079e-02		         0.19833	4.90000e+01	
0.83381   	-8.90583e-02		         0.20000	4.90000e+01	
0.84074   	-8.73250e-02		         0.20167	4.90000e+01	
0.84740   	-1.20097e-01		         0.20333	4.90000e+01	
0.85406   	-1.38351e-01		         0.20500	4.90000e+01	
0.86072   	-1.48089e-01		         0.20667	4.90000e+01	
0.86765   	-1.56687e-01		         0.20833	4.90000e+01	
0.87431   	-1.60254e-01		         0.21000	4.90000e+01	
0.88097   	-1.54209e-01		         0.21167	4.80000e+01	
0.88763   	-1.64141e-01		         0.21333	4.80000e+01	
0.89456   	-1.64179e-01		         0.21500	4.70000e+01	
0.90122   	-1.63614e-01		         0.21667	4.70000e+01	
0.90789   	-1.83748e-01		         0.21833	4.60000e+01	
0.91455   	-1.83676e-01		         0.22000	4.60000e+01	
0.92147   	-1.94035e-01		         0.22167	4.50000e+01	
0.92814   	-1.97215e-01		         0.22333	4.50000e+01	
0.93479   	-1.95334e-01		         0.22500	4.50000e+01	
0.94146   	-1.77034e-01		         0.22667	4.50000e+01	
0.94839   	-1.75406e-01		         0.22833	4.60000e+01	
0.95505   	-1.59033e-01		         0.23000	4.60000e+01	
0.96171   	-1.36381e-01		         0.23167	4.70000e+01	
0.96837   	-1.12946e-01		         0.23333	4.80000e+01	
0.97530   	-8.80048e-02		         0.23500	4.80000e+01	
0.98196   	-8.29619e-02		         0.23667	4.90000e+01	
0.98862   	-8.19263e-02		         0.23833	5.00000e+01	
0.99528   	-1.00028e-01		         0.24000	5.10000e+01	
1.00221   	-1.16491e-01		         0.24167	5.30000e+01	
1.00887   	-1.40280e-01		         0.24333	5.40000e+01	
1.01553   	-1.44908e-01		         0.24500	5.50000e+01	
1.02219   	-1.51970e-01		         0.24667	5.60000e+01	
1.02913   	-1.55661e-01		         0.24833	5.70000e+01	
1.03578   	-1.64303e-01		         0.25000	5.80000e+01	
1.04244   	-1.65645e-01		         0.25167	5.90000e+01	
1.04910   	-1.57003e-01		         0.25333	6.00000e+01	
1.05604   	-1.51735e-01		         0.25500	6.10000e+01	
1.06270   	-1.39223e-01		         0.25667	6.30000e+01	
1.06936   	-1.21077e-01		         0.25833	6.40000e+01	
1.07602   	-1.18325e-01		         0.26000	6.50000e+01	
1.08295   	-1.22620e-01		         0.26167	6.60000e+01	
1.08961   	-1.67183e-01		         0.26333	6.70000e+01	
1.09627   	-2.49669e-01		         0.26500	6.80000e+01	
1.10293   	-4.16775e-01		         0.26667	7.00000e+01	
1.10986   	-6.95702e-01		         0.26833	7.20000e+01	
1.11652   	-1.17370e+00		         0.27000	7.30000e+01	
1.12318   	-1.92864e+00		         0.27167	7.50000e+01	
1.12984   	-3.04139e+00		         0.27333	7.70000e+01	
1.13678   	-4.30546e+00		         0.27500	7.90000e+01	
1.14344   	-5.64203e+00		         0.27667	8.10000e+01	
1.15034   	-6.94419e+00		         0.27833	8.30000e+01	
1.15676   	-7.87808e+00		         0.28000	8.50000e+01	
1.16369   	-8.30564e+00		         0.28167	8.70000e+01	
1.17035   	-8.39022e+00		         0.28333	8.90000e+01	
1.17700   	-8.03397e+00		         0.28500	9.10000e+01	
1.18366   	-7.36141e+00		         0.28667	9.30000e+01	
1.19060   	-6.53289e+00		         0.28833	9.50000e+01	
1.19726   	-5.59592e+00		         0.29000	9.60000e+01	
1.20392   	-4.71995e+00		         0.29167	9.70000e+01	
1.21058   	-3.84628e+00		         0.29333	9.90000e+01	
1.21751   	-3.12247e+00		         0.29500	1.00000e+02	
1.22417   	-2.50773e+00		         0.29667	1.00000e+02	
1.23083   	-2.12730e+00		         0.29833	1.00000e+02	
1.23749   	-1.62517e+00		         0.30000	1.00000e+02	
1.24442   	-1.04360e+00		         0.30167	1.00000e+02	
1.25108   	5.15386e-01		         0.30333	9.90000e+01	
1.25774   	1.49542e+00		         0.30500	9.80000e+01	
1.26440   	3.50533e+00		         0.30667	9.70000e+01	
1.27134   	3.52209e+00		         0.30833	9.60000e+01	
1.27800   	2.58448e+00		         0.31000	9.50000e+01	
1.28465   	1.43797e+00		         0.31167	9.40000e+01	
1.29132   	7.71902e-01		         0.31333	9.20000e+01	
1.29825   	-6.54180e-01		         0.31500	9.10000e+01	
1.30491   	-5.29521e-02		         0.31667	8.90000e+01	
1.31156   	1.48730e+00		         0.31833	8.70000e+01	
1.31823   	2.39344e+00		         0.32000	8.60000e+01	
1.32516   	3.44658e+00		         0.32167	8.40000e+01	
1.33182   	4.24887e+00		         0.32333	8.20000e+01	
1.33848   	4.86006e+00		         0.32500	8.00000e+01	
1.34514   	5.10704e+00		         0.32667	7.80000e+01	
1.35207   	5.21411e+00		         0.32833	7.60000e+01	
1.35873   	5.17838e+00		         0.33000	7.30000e+01	
1.36539   	5.11704e+00		         0.33167	7.10000e+01	
1.37205   	5.09968e+00		         0.33333	6.80000e+01	
1.37898   	5.06201e+00		         0.33500	6.50000e+01	
1.38564   	5.00735e+00		         0.33667	6.10000e+01	
1.39230   	4.91949e+00		         0.33833	5.80000e+01	
1.39927   	4.78712e+00		         0.34000	5.40000e+01	
1.40590   	4.56054e+00		         0.34167	5.00000e+01	
1.41256   	4.42647e+00		         0.34333	4.60000e+01	
1.41921   	4.24207e+00		         0.34500	4.20000e+01	
1.42588   	4.12110e+00		         0.34667	3.80000e+01	
1.43281   	3.99759e+00		         0.34833	3.30000e+01	
1.43947   	3.93089e+00		         0.35000	2.90000e+01	
1.44613   	3.84552e+00		         0.35167	2.40000e+01	
1.45279   	3.82276e+00		         0.35333	2.00000e+01	
1.45972   	3.74883e+00		         0.35500	1.50000e+01	
1.46638   	3.70509e+00		         0.35667	1.10000e+01	
1.47304   	3.57928e+00		         0.35833	7.00000e+00	
1.47970   	3.45907e+00		         0.36000	3.00000e+00	
1.48664   	3.36287e+00		         0.36167	-1.00000e+00	
1.49329   	3.21129e+00		         0.36333	-5.00000e+00	
1.49995   	3.11277e+00		         0.36500	-8.00000e+00	
1.50661   	3.02807e+00		         0.36667	-1.20000e+01	
1.51354   	2.90669e+00		         0.36833	-1.50000e+01	
1.52021   	2.76381e+00		         0.37000	-1.90000e+01	
1.52686   	2.61565e+00		         0.37167	-2.20000e+01	
1.53352   	2.46683e+00		         0.37333	-2.60000e+01	
1.54046   	2.33609e+00		         0.37500	-2.90000e+01	
1.54711   	2.19383e+00		         0.37667	-3.30000e+01	
1.55378   	2.01772e+00		         0.37833	-3.70000e+01	
1.56044   	1.92855e+00		         0.38000	-4.00000e+01	
1.56737   	1.75463e+00		         0.38167	-4.30000e+01	
1.57403   	1.58577e+00		         0.38333	-4.70000e+01	
1.58069   	1.42195e+00		         0.38500	-5.00000e+01	
1.58735   	1.23942e+00		         0.38667	-5.30000e+01	
1.59428   	1.00559e+00		         0.38833	-5.50000e+01	
1.60094   	8.59497e-01		         0.39000	-5.80000e+01	
1.60760   	6.67145e-01		         0.39167	-6.00000e+01	
1.61426   	4.37465e-01		         0.39333	-6.20000e+01	
1.62119   	1.79803e-01		         0.39500	-6.30000e+01	
1.62785   	-1.63010e-01		         0.39667	-6.50000e+01	
1.63451   	-5.40905e-01		         0.39833	-6.60000e+01	
1.64117   	-8.07649e-01		         0.40000	-6.70000e+01	
1.64810   	-9.65887e-01		         0.40167	-6.80000e+01	
1.65477   	-7.53514e-01		         0.40333	-6.90000e+01	
1.66143   	-3.35049e-01		         0.40500	-7.00000e+01	
1.66809   	3.59567e-02		         0.40667	-7.10000e+01	
1.67502   	3.44013e-01		         0.40833	-7.20000e+01	
1.68167   	5.86566e-01		         0.41000	-7.30000e+01	
1.68834   	5.14974e-01		         0.41167	-7.30000e+01	
1.69500   	3.68362e-01		         0.41333	-7.40000e+01	
1.70193   	3.53011e-01		         0.41500	-7.50000e+01	
1.70859   	2.93105e-01		         0.41667	-7.50000e+01	
1.71525   	1.68209e-01		         0.41833	-7.60000e+01	
1.72191   	5.19204e-02		         0.42000	-7.70000e+01	
1.72884   	-7.75462e-03		         0.42167	-7.70000e+01	
1.73551   	-3.48186e-01		         0.42333	-7.70000e+01	
1.74216   	-7.77073e-01		         0.42500	-7.70000e+01	
1.74882   	-1.11836e+00		         0.42667	-7.60000e+01	
1.75575   	-1.58709e+00		         0.42833	-7.60000e+01	
1.76241   	-2.13971e+00		         0.43000	-7.50000e+01	
1.76908   	-2.50913e+00		         0.43167	-7.30000e+01	
1.77574   	-2.65110e+00		         0.43333	-7.20000e+01	
1.78266   	-2.79921e+00		         0.43500	-7.00000e+01	
1.78933   	-2.93318e+00		         0.43667	-6.90000e+01	
1.79599   	-3.01561e+00		         0.43833	-6.70000e+01	
1.80265   	-3.11040e+00		         0.44000	-6.60000e+01	
1.80958   	-3.32349e+00		         0.44167	-6.40000e+01	
1.81624   	-3.44757e+00		         0.44333	-6.30000e+01	
1.82290   	-3.54813e+00		         0.44500	-6.10000e+01	
1.82956   	-3.62372e+00		         0.44667	-6.10000e+01	
1.83649   	-3.69294e+00		         0.44833	-6.00000e+01	
1.84316   	-3.71642e+00		         0.45000	-6.00000e+01	
1.84981   	-3.76962e+00		         0.45167	-5.90000e+01	
1.85647   	-3.71992e+00		         0.45333	-5.90000e+01	
1.86340   	-3.64553e+00		         0.45500	-5.80000e+01	
1.87006   	-3.47209e+00		         0.45667	-5.80000e+01	
1.87672   	-3.14974e+00		         0.45833	-5.70000e+01	
1.88338   	-2.97098e+00		         0.46000	-5.70000e+01	
1.89032   	-2.65540e+00		         0.46167	-5.60000e+01	
1.89736   	-2.27063e+00		         0.46333	-5.50000e+01	
1.90364   	-1.93665e+00		         0.46500	-5.40000e+01	
1.91030   	-1.66988e+00		         0.46667	-5.20000e+01	
1.91723   	-1.30826e+00		         0.46833	-5.00000e+01	
1.92389   	-9.99476e-01		         0.47000	-4.90000e+01	
1.93055   	-8.87735e-01		         0.47167	-4.70000e+01	
1.93721   	-7.08851e-01		         0.47333	-4.60000e+01	
1.94414   	-6.24108e-01		         0.47500	-4.40000e+01	
1.95108   	-5.50610e-01		         0.47667	-4.30000e+01	
1.95746   	-5.09778e-01		         0.47833	-4.10000e+01	
1.96412   	-3.82792e-01		         0.48000	-4.00000e+01	
1.97105   	-3.44041e-01		         0.48167	-3.90000e+01	
1.97771   	-2.93634e-01		         0.48333	-3.70000e+01	
1.98438   	-2.48161e-01		         0.48500	-3.60000e+01	
1.99103   	-2.38241e-01		         0.48667	-3.50000e+01	
1.99796   	-2.59584e-01		         0.48833	-3.40000e+01	
2.00463   	-2.67115e-01		         0.49000	-3.30000e+01	
2.01128   	-2.65689e-01		         0.49167	-3.10000e+01	
2.01795   	-2.57871e-01		         0.49333	-3.00000e+01	
2.02488   	-2.44630e-01		         0.49500	-2.80000e+01	
2.03153   	-2.38820e-01		         0.49667	-2.60000e+01	
2.03820   	-2.36749e-01		         0.49833	-2.50000e+01	
2.04486   	-2.35226e-01		         0.50000	-2.30000e+01	
2.05179   	-2.10165e-01		         0.50167	-2.10000e+01	
2.05844   	-1.90020e-01		         0.50333	-1.80000e+01	
2.06511   	-1.63699e-01		         0.50500	-1.60000e+01	
2.07177   	-1.51930e-01		         0.50667	-1.40000e+01	
2.07870   	-1.39581e-01		         0.50833	-1.20000e+01	
2.08536   	-1.26339e-01		         0.51000	-1.00000e+01	
2.09202   	-1.10418e-01		         0.51167	-8.00000e+00	
2.09868   	-1.12575e-01		         0.51333	-7.00000e+00	
2.10561   	-9.77064e-02		         0.51500	-5.00000e+00	
2.11227   	-1.03624e-01		         0.51667	-4.00000e+00	
2.11893   	-1.05936e-01		         0.51833	-3.00000e+00	
2.12559   	-1.44960e-01		         0.52000	-2.00000e+00	
2.13253   	-1.55415e-01		         0.52167	-2.00000e+00	
2.13919   	-1.71356e-01		         0.52333	-1.00000e+00	
2.14584   	-1.74500e-01		         0.52500	-1.00000e+00	
2.15251   	-1.80130e-01		         0.52667	-1.00000e+00	
2.15944   	-1.65746e-01		         0.52833	0.00000e+00	
2.16610   	-1.62108e-01		         0.53000	0.00000e+00	
2.17276   	-1.60198e-01		         0.53167	0.00000e+00	
2.17955   	-1.52646e-01		         0.53333	0.00000e+00	
2.18635   	-1.57189e-01		         0.53500	0.00000e+00	
2.19301   	-1.53833e-01		         0.53667	0.00000e+00	
2.19967   	-1.50700e-01		         0.53833	0.00000e+00	
2.20633   	-1.48444e-01		         0.54000	0.00000e+00	
2.21326   	-1.49478e-01		         0.54167	0.00000e+00	
2.21992   	-1.51553e-01		         0.54333	0.00000e+00	
2.22658   	-1.65242e-01		         0.54500	0.00000e+00	
2.23324   	-1.70127e-01		         0.54667	0.00000e+00	
2.24018   	-1.73163e-01		         0.54833	0.00000e+00	
2.24684   	-1.73170e-01		         0.55000	-1.00000e+00	
2.25350   	-1.73739e-01		         0.55167	-2.00000e+00	
2.26016   	-1.69021e-01		         0.55333	-2.00000e+00	
2.26709   	-1.76884e-01		         0.55500	-3.00000e+00	
2.27375   	-2.03450e-01		         0.55667	-4.00000e+00	
2.28041   	-2.89251e-01		         0.55833	-4.00000e+00	
2.28707   	-4.61640e-01		         0.56000	-5.00000e+00	
2.29400   	-7.48574e-01		         0.56167	-6.00000e+00	
2.30066   	-1.33960e+00		         0.56333	-6.00000e+00	
2.30732   	-2.31694e+00		         0.56500	-7.00000e+00	
2.31398   	-3.63645e+00		         0.56667	-7.00000e+00	
2.32091   	-5.08406e+00		         0.56833	-8.00000e+00	
2.32757   	-6.57115e+00		         0.57000	-8.00000e+00	
2.33423   	-7.72754e+00		         0.57167	-8.00000e+00	
2.34089   	-8.41668e+00		         0.57333	-8.00000e+00	
2.34782   	-8.58599e+00		         0.57500	-8.00000e+00	
2.35448   	-8.53911e+00		         0.57667	-8.00000e+00	
2.36114   	-8.01239e+00		         0.57833	-8.00000e+00	
2.36780   	-7.29673e+00		         0.58000	-7.00000e+00	
2.37474   	-6.38315e+00		         0.58167	-7.00000e+00	
2.38139   	-5.50219e+00		         0.58333	-7.00000e+00	
2.38806   	-4.39786e+00		         0.58500	-6.00000e+00	
2.39472   	-3.52531e+00		         0.58667	-6.00000e+00	
2.40165   	-2.90970e+00		         0.58833	-6.00000e+00	
2.40831   	-2.26660e+00		         0.59000	-6.00000e+00	
2.41497   	-1.85514e+00		         0.59167	-6.00000e+00	
2.42163   	-1.41940e+00		         0.59333	-7.00000e+00	
2.42856   	-9.60122e-01		         0.59500	-7.00000e+00	
2.43522   	1.26031e-01		         0.59667	-8.00000e+00	
2.44188   	1.32425e+00		         0.59833	-9.00000e+00	
2.44854   	3.03216e+00		         0.60000	-1.00000e+01	
2.45548   	2.97113e+00		         0.60167	-1.10000e+01	
2.46213   	2.11484e+00		         0.60333	-1.20000e+01	
2.46879   	1.33100e+00		         0.60500	-1.30000e+01	
2.47545   	4.27303e-01		         0.60667	-1.40000e+01	
2.48238   	-7.09879e-01		         0.60833	-1.50000e+01	
2.48905   	-2.40924e-02		         0.61000	-1.60000e+01	
2.49570   	1.61651e+00		         0.61167	-1.60000e+01	
2.50236   	2.74110e+00		         0.61333	-1.70000e+01	
2.50930   	3.67667e+00		         0.61500	-1.70000e+01	
2.51596   	4.43891e+00		         0.61667	-1.80000e+01	
2.52262   	4.91913e+00		         0.61833	-1.80000e+01	
2.52928   	5.12516e+00		         0.62000	-1.90000e+01	
2.53621   	5.19975e+00		         0.62167	-1.90000e+01	
2.54287   	5.13166e+00		         0.62333	-1.90000e+01	
2.54953   	5.12123e+00		         0.62500	-2.00000e+01	
2.55619   	5.07664e+00		         0.62667	-2.00000e+01	
2.56312   	4.99037e+00		         0.62833	-2.00000e+01	
2.56978   	4.88935e+00		         0.63000	-2.00000e+01	
2.57644   	4.74767e+00		         0.63167	-1.90000e+01	
2.58310   	4.56215e+00		         0.63333	-1.90000e+01	
2.59003   	4.41600e+00		         0.63500	-1.90000e+01	
2.59669   	4.28647e+00		         0.63667	-1.80000e+01	
2.60335   	4.11703e+00		         0.63833	-1.70000e+01	
2.61001   	4.03463e+00		         0.64000	-1.60000e+01	
2.61695   	3.99021e+00		         0.64167	-1.50000e+01	
2.62360   	3.94616e+00		         0.64333	-1.40000e+01	
2.63026   	3.94654e+00		         0.64500	-1.30000e+01	
2.63693   	3.93910e+00		         0.64667	-1.20000e+01	
2.64420   	3.87943e+00		         0.64833	-1.10000e+01	
2.65052   	3.77317e+00		         0.65000	-1.10000e+01	
2.65718   	3.64578e+00		         0.65167	-1.10000e+01	
2.66384   	3.50264e+00		         0.65333	-1.10000e+01	
2.67077   	3.33815e+00		         0.65500	-1.10000e+01	
2.67777   	3.18404e+00		         0.65667	-1.20000e+01	
2.68409   	2.98830e+00		         0.65833	-1.20000e+01	
2.69075   	2.83650e+00		         0.66000	-1.30000e+01	
2.69768   	2.61520e+00		         0.66167	-1.30000e+01	
2.70434   	2.52793e+00		         0.66333	-1.40000e+01	
2.71100   	2.41480e+00		         0.66500	-1.40000e+01	
2.71766   	2.34137e+00		         0.66667	-1.50000e+01	
2.72459   	2.23957e+00		         0.66833	-1.50000e+01	
2.73126   	2.21717e+00		         0.67000	-1.50000e+01	
2.73791   	2.03788e+00		         0.67167	-1.50000e+01	
2.74457   	1.88092e+00		         0.67333	-1.40000e+01	
2.75151   	1.79031e+00		         0.67500	-1.40000e+01	
2.75816   	1.63252e+00		         0.67667	-1.40000e+01	
2.76483   	1.35915e+00		         0.67833	-1.40000e+01	
2.77149   	1.16987e+00		         0.68000	-1.40000e+01	
2.77842   	1.03656e+00		         0.68167	-1.40000e+01	
2.78508   	8.34806e-01		         0.68333	-1.40000e+01	
2.79174   	6.29456e-01		         0.68500	-1.50000e+01	
2.79840   	4.36585e-01		         0.68667	-1.50000e+01	
2.80533   	1.88928e-01		         0.68833	-1.60000e+01	
2.81199   	-2.07223e-01		         0.69000	-1.60000e+01	
2.81865   	-5.94003e-01		         0.69167	-1.70000e+01	
2.82531   	-8.90811e-01		         0.69333	-1.70000e+01	
2.83224   	-1.00133e+00		         0.69500	-1.70000e+01	
2.83890   	-8.55902e-01		         0.69667	-1.70000e+01	
2.84556   	-5.13808e-01		         0.69833	-1.70000e+01	
2.85222   	-1.64198e-01		         0.70000	-1.70000e+01	
2.85915   	2.77224e-01		         0.70167	-1.70000e+01	
2.86582   	4.45520e-01		         0.70333	-1.70000e+01	
2.87248   	5.59104e-01		         0.70500	-1.70000e+01	
2.87913   	5.81228e-01		         0.70667	-1.60000e+01	
2.88607   	6.99400e-01		         0.70833	-1.60000e+01	
2.89272   	5.20571e-01		         0.71000	-1.50000e+01	
2.89939   	5.43406e-01		         0.71167	-1.40000e+01	
2.90605   	3.91778e-01		         0.71333	-1.30000e+01	
2.91298   	1.62441e-01		         0.71500	-1.20000e+01	
2.91964   	-1.79932e-01		         0.71667	-1.20000e+01	
2.92660   	-4.42339e-01		         0.71833	-1.10000e+01	
2.93296   	-7.95159e-01		         0.72000	-1.00000e+01	
2.93989   	-1.28308e+00		         0.72167	-9.00000e+00	
2.94655   	-1.70928e+00		         0.72333	-8.00000e+00	
2.95321   	-2.13247e+00		         0.72500	-8.00000e+00	
2.95987   	-2.34304e+00		         0.72667	-7.00000e+00	
2.96680   	-2.59306e+00		         0.72833	-7.00000e+00	
2.97346   	-2.74769e+00		         0.73000	-7.00000e+00	
2.98013   	-2.85873e+00		         0.73167	-7.00000e+00	
2.98678   	-3.03111e+00		         0.73333	-7.00000e+00	
2.99371   	-3.39995e+00		         0.73500	-7.00000e+00	
3.00038   	-3.52719e+00		         0.73667	-6.00000e+00	
3.00703   	-3.71037e+00		         0.73833	-6.00000e+00	
3.01370   	-3.82999e+00		         0.74000	-6.00000e+00	
3.02063   	-3.88273e+00		         0.74167	-5.00000e+00	
3.02729   	-3.81089e+00		         0.74333	-5.00000e+00	
3.03395   	-3.83180e+00		         0.74500	-4.00000e+00	
3.04061   	-3.70824e+00		         0.74667	-4.00000e+00	
3.04755   	-3.47698e+00		         0.74833	-4.00000e+00	
3.05420   	-3.28537e+00		         0.75000	-3.00000e+00	
3.06086   	-2.94227e+00		         0.75167	-3.00000e+00	
3.06752   	-2.54786e+00		         0.75333	-4.00000e+00	
3.07445   	-2.11325e+00		         0.75500	-4.00000e+00	
3.08111   	-1.88555e+00		         0.75667	-5.00000e+00	
3.08777   	-1.54817e+00		         0.75833	-6.00000e+00	
3.09443   	-1.33631e+00		         0.76000	-7.00000e+00	
3.10136   	-1.18312e+00		         0.76167	-7.00000e+00	
3.10802   	-1.01885e+00		         0.76333	-8.00000e+00	
3.11469   	-8.01640e-01		         0.76500	-9.00000e+00	
3.12135   	-6.24355e-01		         0.76667	-1.00000e+01	
3.12828   	-5.07830e-01		         0.76833	-1.00000e+01	
3.13494   	-4.54374e-01		         0.77000	-1.10000e+01	
3.14160   	-3.66280e-01		         0.77167	-1.10000e+01	
3.14826   	-3.38691e-01		         0.77333	-1.00000e+01	
3.15519   	-2.91424e-01		         0.77500	-1.00000e+01	
3.16185   	-2.59975e-01		         0.77667	-1.00000e+01	
3.16851   	-1.78956e-01		         0.77833	-9.00000e+00	
3.17517   	-1.91740e-01		         0.78000	-9.00000e+00	
3.18210   	-1.55995e-01		         0.78167	-9.00000e+00	
3.18876   	-1.39975e-01		         0.78333	-8.00000e+00	
3.19542   	-1.22618e-01		         0.78500	-8.00000e+00	
3.20208   	-1.34387e-01		         0.78667	-7.00000e+00	
3.20901   	-1.32843e-01		         0.78833	-7.00000e+00	
3.21567   	-1.35923e-01		         0.79000	-7.00000e+00	
3.22233   	-1.42911e-01		         0.79167	-7.00000e+00	
3.22899   	-1.56046e-01		         0.79333	-7.00000e+00	
3.23593   	-1.61868e-01		         0.79500	-7.00000e+00	
3.24258   	-1.70197e-01		         0.79667	-7.00000e+00	
3.24925   	-1.67422e-01		         0.79833	-7.00000e+00	
3.25591   	-1.66676e-01		         0.80000	-7.00000e+00	
3.26284   	-1.59914e-01		         0.80167	-7.00000e+00	
3.26950   	-1.51833e-01		         0.80333	-6.00000e+00	
3.27616   	-1.52206e-01		         0.80500	-6.00000e+00	
3.28282   	-1.57888e-01		         0.80667	-6.00000e+00	
3.28975   	-1.54444e-01		         0.80833	-6.00000e+00	
3.29642   	-1.45968e-01		         0.81000	-6.00000e+00	
3.30307   	-1.47901e-01		         0.81167	-6.00000e+00	
3.30973   	-1.37679e-01		         0.81333	-5.00000e+00	
3.31666   	-1.32218e-01		         0.81500	-5.00000e+00	
3.32332   	-1.45571e-01		         0.81667	-4.00000e+00	
3.32999   	-1.66886e-01		         0.81833	-4.00000e+00	
3.33664   	-1.75170e-01		         0.82000	-3.00000e+00	
3.34357   	-1.90122e-01		         0.82167	-3.00000e+00	
3.35024   	-1.98563e-01		         0.82333	-2.00000e+00	
3.35689   	-1.96749e-01		         0.82500	-2.00000e+00	
3.36355   	-1.84887e-01		         0.82667	-2.00000e+00	
3.37049   	-1.57375e-01		         0.82833	-1.00000e+00	
3.37714   	-1.25507e-01		         0.83000	-1.00000e+00	
3.38381   	-1.01824e-01		         0.83167	-2.00000e+00	
3.39047   	-6.35233e-02		         0.83333	-2.00000e+00	
3.39740   	-3.51946e-02		         0.83500	-3.00000e+00	
3.40406   	-3.18445e-02		         0.83667	-4.00000e+00	
3.41072   	-4.24628e-02		         0.83833	-5.00000e+00	
3.41738   	-4.96955e-02		         0.84000	-6.00000e+00	
3.42461   	-6.74916e-02		         0.84167	-7.00000e+00	
3.43097   	-9.85600e-02		         0.84333	-8.00000e+00	
3.43763   	-1.56952e-01		         0.84500	-9.00000e+00	
3.44429   	-2.47590e-01		         0.84667	-1.00000e+01	
3.45122   	-4.32301e-01		         0.84833	-1.10000e+01	
3.45788   	-7.43092e-01		         0.85000	-1.10000e+01	
3.46455   	-1.24987e+00		         0.85167	-1.20000e+01	
3.47120   	-2.11094e+00		         0.85333	-1.20000e+01	
3.47813   	-3.35587e+00		         0.85500	-1.20000e+01	
3.48480   	-4.71316e+00		         0.85667	-1.20000e+01	
3.49146   	-6.12677e+00		         0.85833	-1.20000e+01	
3.49812   	-7.39534e+00		         0.86000	-1.20000e+01	
3.50505   	-8.31454e+00		         0.86167	-1.10000e+01	
3.51171   	-8.73101e+00		         0.86333	-1.00000e+01	
3.51837   	-8.80054e+00		         0.86500	-1.00000e+01	
3.52503   	-8.52619e+00		         0.86667	-9.00000e+00	
3.53196   	-7.95414e+00		         0.86833	-9.00000e+00	
3.53862   	-7.07059e+00		         0.87000	-8.00000e+00	
3.54528   	-5.98583e+00		         0.87167	-8.00000e+00	
3.55194   	-4.82006e+00		         0.87333	-8.00000e+00	
3.55887   	-3.74237e+00		         0.87500	-8.00000e+00	
3.56554   	-2.93509e+00		         0.87667	-9.00000e+00	
3.57219   	-2.30662e+00		         0.87833	-9.00000e+00	
3.57885   	-1.95591e+00		         0.88000	-9.00000e+00	
3.58578   	-1.62079e+00		         0.88167	-9.00000e+00	
3.59244   	-1.03910e+00		         0.88333	-9.00000e+00	
3.59910   	2.12114e-01		         0.88500	-8.00000e+00	
3.60576   	6.84822e-01		         0.88667	-8.00000e+00	
3.61270   	1.46959e+00		         0.88833	-8.00000e+00	
			         0.89000	-7.00000e+00	
			         0.89167	-6.00000e+00	
			         0.89333	-6.00000e+00	
			         0.89500	-5.00000e+00	
			         0.89667	-5.00000e+00	
			         0.89833	-4.00000e+00	
			         0.90000	-4.00000e+00	
			         0.90167	-4.00000e+00	
			         0.90333	-3.00000e+00	
			         0.90500	-3.00000e+00	
			         0.90667	-3.00000e+00	
			         0.90833	-3.00000e+00	
			         0.91000	-3.00000e+00	
			         0.91167	-3.00000e+00	
			         0.91333	-3.00000e+00	
			         0.91500	-2.00000e+00	
			         0.91667	-2.00000e+00	
			         0.91833	-2.00000e+00	
			         0.92000	-1.00000e+00	
			         0.92167	-1.00000e+00	
			         0.92333	-1.00000e+00	
			         0.92500	-1.00000e+00	
			         0.92667	-2.00000e+00	
			         0.92833	-2.00000e+00	
			         0.93000	-3.00000e+00	
			         0.93167	-3.00000e+00	
			         0.93333	-4.00000e+00	
			         0.93500	-5.00000e+00	
			         0.93667	-5.00000e+00	
			         0.93833	-6.00000e+00	
			         0.94000	-6.00000e+00	
			         0.94167	-7.00000e+00	
			         0.94333	-7.00000e+00	
			         0.94500	-7.00000e+00	
			         0.94667	-6.00000e+00	
			         0.94833	-6.00000e+00	
			         0.95000	-5.00000e+00	
			         0.95167	-4.00000e+00	
			         0.95333	-3.00000e+00	
			         0.95500	-3.00000e+00	
			         0.95667	-2.00000e+00	
			         0.95833	-1.00000e+00	
			         0.96000	0.00000e+00	
			         0.96167	0.00000e+00	
			         0.96333	1.00000e+00	
			         0.96500	1.00000e+00	
			         0.96667	2.00000e+00	
			         0.96833	2.00000e+00	
			         0.97000	3.00000e+00	
			         0.97167	3.00000e+00	
			         0.97333	3.00000e+00	
			         0.97500	3.00000e+00	
			         0.97667	3.00000e+00	
			         0.97833	3.00000e+00	
			         0.98000	3.00000e+00	
			         0.98167	3.00000e+00	
			         0.98333	3.00000e+00	
			         0.98500	2.00000e+00	
			         0.98667	2.00000e+00	
			         0.98833	2.00000e+00	
			         0.99000	1.00000e+00	
			         0.99167	1.00000e+00	
			         0.99333	0.00000e+00	
			         0.99500	0.00000e+00	
			         0.99667	-1.00000e+00	
			         0.99833	-1.00000e+00	
			         1.00000	-1.00000e+00	
			         1.00167	-1.00000e+00	
			         1.00333	0.00000e+00	
			         1.00500	0.00000e+00	
			         1.00667	0.00000e+00	
			         1.00833	0.00000e+00	
			         1.01000	0.00000e+00	
			         1.01167	0.00000e+00	
			         1.01333	1.00000e+00	
			         1.01500	1.00000e+00	
			         1.01667	1.00000e+00	
			         1.01833	0.00000e+00	
			         1.02000	0.00000e+00	
			         1.02167	0.00000e+00	
			         1.02333	-1.00000e+00	
			         1.02500	-2.00000e+00	
			         1.02667	-2.00000e+00	
			         1.02833	-3.00000e+00	
			         1.03000	-4.00000e+00	
			         1.03167	-5.00000e+00	
			         1.03333	-6.00000e+00	
			         1.03500	-6.00000e+00	
			         1.03667	-6.00000e+00	
			         1.03833	-7.00000e+00	
			         1.04000	-7.00000e+00	
			         1.04167	-6.00000e+00	
			         1.04333	-6.00000e+00	
			         1.04500	-6.00000e+00	
			         1.04667	-5.00000e+00	
			         1.04833	-5.00000e+00	
			         1.05000	-4.00000e+00	
			         1.05167	-3.00000e+00	
			         1.05333	-2.00000e+00	
			         1.05500	-1.00000e+00	
			         1.05667	0.00000e+00	
			         1.05833	1.00000e+00	
			         1.06000	3.00000e+00	
			         1.06167	4.00000e+00	
			         1.06333	6.00000e+00	
			         1.06500	9.00000e+00	
			         1.06667	1.10000e+01	
			         1.06833	1.40000e+01	
			         1.07000	1.70000e+01	
			         1.07167	1.90000e+01	
			         1.07333	2.20000e+01	
			         1.07500	2.40000e+01	
			         1.07667	2.70000e+01	
			         1.07833	2.90000e+01	
			         1.08000	3.00000e+01	
			         1.08167	3.10000e+01	
			         1.08333	3.20000e+01	
			         1.08500	3.20000e+01	
			         1.08667	3.20000e+01	
			         1.08833	3.20000e+01	
			         1.09000	3.10000e+01	
			         1.09167	3.10000e+01	
			         1.09333	3.10000e+01	
			         1.09500	3.00000e+01	
			         1.09667	3.00000e+01	
			         1.09833	2.90000e+01	
			         1.10000	2.80000e+01	
			         1.10167	2.70000e+01	
			         1.10333	2.50000e+01	
			         1.10500	2.30000e+01	
			         1.10667	2.10000e+01	
			         1.10833	1.80000e+01	
			         1.11000	1.50000e+01	
			         1.11167	1.20000e+01	
			         1.11333	8.00000e+00	
			         1.11500	4.00000e+00	
			         1.11667	0.00000e+00	
			         1.11833	-4.00000e+00	
			         1.12000	-7.00000e+00	
			         1.12167	-1.00000e+01	
			         1.12333	-1.30000e+01	
			         1.12500	-1.50000e+01	
			         1.12667	-1.60000e+01	
			         1.12833	-1.80000e+01	
			         1.13000	-1.80000e+01	
			         1.13167	-1.90000e+01	
			         1.13333	-1.90000e+01	
			         1.13500	-1.90000e+01	
			         1.13667	-1.80000e+01	
			         1.13833	-1.80000e+01	
			         1.14000	-1.70000e+01	
			         1.14167	-1.70000e+01	
			         1.14333	-1.60000e+01	
			         1.14500	-1.60000e+01	
			         1.14667	-1.60000e+01	
			         1.14833	-1.60000e+01	
			         1.15000	-1.60000e+01	
			         1.15167	-1.60000e+01	
			         1.15333	-1.70000e+01	
			         1.15500	-1.70000e+01	
			         1.15667	-1.90000e+01	
			         1.15833	-2.00000e+01	
			         1.16000	-2.20000e+01	
			         1.16167	-2.40000e+01	
			         1.16333	-2.50000e+01	
			         1.16500	-2.70000e+01	
			         1.16667	-2.90000e+01	
			         1.16833	-3.00000e+01	
			         1.17000	-3.20000e+01	
			         1.17167	-3.30000e+01	
			         1.17333	-3.30000e+01	
			         1.17500	-3.30000e+01	
			         1.17667	-3.30000e+01	
			         1.17833	-3.20000e+01	
			         1.18000	-3.10000e+01	
			         1.18167	-3.00000e+01	
			         1.18333	-2.90000e+01	
			         1.18500	-2.70000e+01	
			         1.18667	-2.60000e+01	
			         1.18833	-2.50000e+01	
			         1.19000	-2.40000e+01	
			         1.19167	-2.20000e+01	
			         1.19333	-2.10000e+01	
			         1.19500	-2.00000e+01	
			         1.19667	-1.80000e+01	
			         1.19833	-1.60000e+01	
			         1.20000	-1.30000e+01	
			         1.20167	-9.00000e+00	
			         1.20333	-3.00000e+00	
			         1.20500	3.00000e+00	
			         1.20667	1.20000e+01	
			         1.20833	2.20000e+01	
			         1.21000	3.40000e+01	
			         1.21167	4.80000e+01	
			         1.21333	6.40000e+01	
			         1.21500	8.20000e+01	
			         1.21667	1.02000e+02	
			         1.21833	1.24000e+02	
			         1.22000	1.47000e+02	
			         1.22167	1.72000e+02	
			         1.22333	1.98000e+02	
			         1.22500	2.24000e+02	
			         1.22667	2.49000e+02	
			         1.22833	2.73000e+02	
			         1.23000	2.93000e+02	
			         1.23167	3.08000e+02	
			         1.23333	3.18000e+02	
			         1.23500	3.21000e+02	
			         1.23667	3.16000e+02	
			         1.23833	3.03000e+02	
			         1.24000	2.81000e+02	
			         1.24167	2.50000e+02	
			         1.24333	2.12000e+02	
			         1.24500	1.66000e+02	
			         1.24667	1.14000e+02	
			         1.24833	5.70000e+01	
			         1.25000	-2.00000e+00	
			         1.25167	-6.20000e+01	
			         1.25333	-1.21000e+02	
			         1.25500	-1.78000e+02	
			         1.25667	-2.30000e+02	
			         1.25833	-2.77000e+02	
			         1.26000	-3.18000e+02	
			         1.26167	-3.52000e+02	
			         1.26333	-3.80000e+02	
			         1.26500	-4.01000e+02	
			         1.26667	-4.15000e+02	
			         1.26833	-4.23000e+02	
			         1.27000	-4.26000e+02	
			         1.27167	-4.23000e+02	
			         1.27333	-4.16000e+02	
			         1.27500	-4.05000e+02	
			         1.27667	-3.91000e+02	
			         1.27833	-3.74000e+02	
			         1.28000	-3.55000e+02	
			         1.28167	-3.34000e+02	
			         1.28333	-3.12000e+02	
			         1.28500	-2.89000e+02	
			         1.28667	-2.65000e+02	
			         1.28833	-2.41000e+02	
			         1.29000	-2.16000e+02	
			         1.29167	-1.92000e+02	
			         1.29333	-1.67000e+02	
			         1.29500	-1.43000e+02	
			         1.29667	-1.20000e+02	
			         1.29833	-9.70000e+01	
			         1.30000	-7.60000e+01	
			         1.30167	-5.50000e+01	
			         1.30333	-3.60000e+01	
			         1.30500	-1.80000e+01	
			         1.30667	-2.00000e+00	
			         1.30833	1.20000e+01	
			         1.31000	2.40000e+01	
			         1.31167	3.50000e+01	
			         1.31333	4.40000e+01	
			         1.31500	5.20000e+01	
			         1.31667	5.80000e+01	
			         1.31833	6.40000e+01	
			         1.32000	6.80000e+01	
			         1.32167	7.10000e+01	
			         1.32333	7.40000e+01	
			         1.32500	7.70000e+01	
			         1.32667	7.90000e+01	
			         1.32833	8.10000e+01	
			         1.33000	8.20000e+01	
			         1.33167	8.30000e+01	
			         1.33333	8.40000e+01	
			         1.33500	8.40000e+01	
			         1.33667	8.40000e+01	
			         1.33833	8.30000e+01	
			         1.34000	8.20000e+01	
			         1.34167	8.10000e+01	
			         1.34333	8.00000e+01	
			         1.34500	7.80000e+01	
			         1.34667	7.60000e+01	
			         1.34833	7.40000e+01	
			         1.35000	7.20000e+01	
			         1.35167	6.90000e+01	
			         1.35333	6.70000e+01	
			         1.35500	6.40000e+01	
			         1.35667	6.20000e+01	
			         1.35833	6.00000e+01	
			         1.36000	5.90000e+01	
			         1.36167	5.70000e+01	
			         1.36333	5.60000e+01	
			         1.36500	5.40000e+01	
			         1.36667	5.30000e+01	
			         1.36833	5.30000e+01	
			         1.37000	5.20000e+01	
			         1.37167	5.20000e+01	
			         1.37333	5.20000e+01	
			         1.37500	5.10000e+01	
			         1.37667	5.10000e+01	
			         1.37833	5.10000e+01	
			         1.38000	5.00000e+01	
			         1.38167	5.00000e+01	
			         1.38333	4.90000e+01	
			         1.38500	4.80000e+01	
			         1.38667	4.80000e+01	
			         1.38833	4.70000e+01	
			         1.39000	4.70000e+01	
			         1.39167	4.60000e+01	
			         1.39333	4.60000e+01	
			         1.39500	4.60000e+01	
			         1.39667	4.60000e+01	
			         1.39833	4.60000e+01	
			         1.40000	4.60000e+01	
			         1.40167	4.60000e+01	
			         1.40333	4.60000e+01	
			         1.40500	4.50000e+01	
			         1.40667	4.50000e+01	
			         1.40833	4.50000e+01	
			         1.41000	4.50000e+01	
			         1.41167	4.50000e+01	
			         1.41333	4.50000e+01	
			         1.41500	4.40000e+01	
			         1.41667	4.40000e+01	
			         1.41833	4.40000e+01	
			         1.42000	4.40000e+01	
			         1.42167	4.40000e+01	
			         1.42333	4.40000e+01	
			         1.42500	4.40000e+01	
			         1.42667	4.40000e+01	
			         1.42833	4.40000e+01	
			         1.43000	4.30000e+01	
			         1.43167	4.30000e+01	
			         1.43333	4.20000e+01	
			         1.43500	4.20000e+01	
			         1.43667	4.10000e+01	
			         1.43833	4.10000e+01	
			         1.44000	4.10000e+01	
			         1.44167	4.10000e+01	
			         1.44333	4.10000e+01	
			         1.44500	4.10000e+01	
			         1.44667	4.20000e+01	
			         1.44833	4.20000e+01	
			         1.45000	4.30000e+01	
			         1.45167	4.40000e+01	
			         1.45333	4.50000e+01	
			         1.45500	4.60000e+01	
			         1.45667	4.70000e+01	
			         1.45833	4.80000e+01	
			         1.46000	4.90000e+01	
			         1.46167	5.10000e+01	
			         1.46333	5.20000e+01	
			         1.46500	5.30000e+01	
			         1.46667	5.50000e+01	
			         1.46833	5.70000e+01	
			         1.47000	5.80000e+01	
			         1.47167	6.00000e+01	
			         1.47333	6.20000e+01	
			         1.47500	6.40000e+01	
			         1.47667	6.60000e+01	
			         1.47833	6.80000e+01	
			         1.48000	7.00000e+01	
			         1.48167	7.10000e+01	
			         1.48333	7.30000e+01	
			         1.48500	7.50000e+01	
			         1.48667	7.70000e+01	
			         1.48833	7.80000e+01	
			         1.49000	8.00000e+01	
			         1.49167	8.20000e+01	
			         1.49333	8.40000e+01	
			         1.49500	8.60000e+01	
			         1.49667	8.70000e+01	
			         1.49833	8.90000e+01	
			         1.50000	9.00000e+01	
			         1.50167	9.20000e+01	
			         1.50333	9.30000e+01	
			         1.50500	9.40000e+01	
			         1.50667	9.50000e+01	
			         1.50833	9.50000e+01	
			         1.51000	9.60000e+01	
			         1.51167	9.60000e+01	
			         1.51333	9.60000e+01	
			         1.51500	9.60000e+01	
			         1.51667	9.50000e+01	
			         1.51833	9.50000e+01	
			         1.52000	9.40000e+01	
			         1.52167	9.30000e+01	
			         1.52333	9.10000e+01	
			         1.52500	9.00000e+01	
			         1.52667	8.90000e+01	
			         1.52833	8.70000e+01	
			         1.53000	8.60000e+01	
			         1.53167	8.50000e+01	
			         1.53333	8.40000e+01	
			         1.53500	8.30000e+01	
			         1.53667	8.20000e+01	
			         1.53833	8.10000e+01	
			         1.54000	8.00000e+01	
			         1.54167	7.90000e+01	
			         1.54333	7.70000e+01	
			         1.54500	7.50000e+01	
			         1.54667	7.30000e+01	
			         1.54833	7.00000e+01	
			         1.55000	6.70000e+01	
			         1.55167	6.30000e+01	
			         1.55333	5.90000e+01	
			         1.55500	5.50000e+01	
			         1.55667	5.00000e+01	
			         1.55833	4.60000e+01	
			         1.56000	4.10000e+01	
			         1.56167	3.60000e+01	
			         1.56333	3.20000e+01	
			         1.56500	2.80000e+01	
			         1.56667	2.40000e+01	
			         1.56833	2.10000e+01	
			         1.57000	1.70000e+01	
			         1.57167	1.40000e+01	
			         1.57333	1.00000e+01	
			         1.57500	7.00000e+00	
			         1.57667	4.00000e+00	
			         1.57833	0.00000e+00	
			         1.58000	-3.00000e+00	
			         1.58167	-7.00000e+00	
			         1.58333	-1.10000e+01	
			         1.58500	-1.50000e+01	
			         1.58667	-1.90000e+01	
			         1.58833	-2.30000e+01	
			         1.59000	-2.60000e+01	
			         1.59167	-3.00000e+01	
			         1.59333	-3.40000e+01	
			         1.59500	-3.70000e+01	
			         1.59667	-4.00000e+01	
			         1.59833	-4.30000e+01	
			         1.60000	-4.60000e+01	
			         1.60167	-4.90000e+01	
			         1.60333	-5.10000e+01	
			         1.60500	-5.30000e+01	
			         1.60667	-5.50000e+01	
			         1.60833	-5.60000e+01	
			         1.61000	-5.80000e+01	
			         1.61167	-5.90000e+01	
			         1.61333	-6.00000e+01	
			         1.61500	-6.20000e+01	
			         1.61667	-6.30000e+01	
			         1.61833	-6.40000e+01	
			         1.62000	-6.50000e+01	
			         1.62167	-6.60000e+01	
			         1.62333	-6.60000e+01	
			         1.62500	-6.70000e+01	
			         1.62667	-6.80000e+01	
			         1.62833	-6.90000e+01	
			         1.63000	-6.90000e+01	
			         1.63167	-7.00000e+01	
			         1.63333	-7.00000e+01	
			         1.63500	-7.00000e+01	
			         1.63667	-7.10000e+01	
			         1.63833	-7.10000e+01	
			         1.64000	-7.20000e+01	
			         1.64167	-7.20000e+01	
			         1.64333	-7.20000e+01	
			         1.64500	-7.30000e+01	
			         1.64667	-7.30000e+01	
			         1.64833	-7.30000e+01	
			         1.65000	-7.30000e+01	
			         1.65167	-7.30000e+01	
			         1.65333	-7.20000e+01	
			         1.65500	-7.10000e+01	
			         1.65667	-7.00000e+01	
			         1.65833	-6.80000e+01	
			         1.66000	-6.70000e+01	
			         1.66167	-6.50000e+01	
			         1.66333	-6.30000e+01	
			         1.66500	-6.10000e+01	
			         1.66667	-5.90000e+01	
			         1.66833	-5.70000e+01	
			         1.67000	-5.50000e+01	
			         1.67167	-5.30000e+01	
			         1.67333	-5.10000e+01	
			         1.67500	-5.00000e+01	
			         1.67667	-4.90000e+01	
			         1.67833	-4.80000e+01	
			         1.68000	-4.60000e+01	
			         1.68167	-4.50000e+01	
			         1.68333	-4.40000e+01	
			         1.68500	-4.30000e+01	
			         1.68667	-4.30000e+01	
			         1.68833	-4.20000e+01	
			         1.69000	-4.10000e+01	
			         1.69167	-4.00000e+01	
			         1.69333	-3.90000e+01	
			         1.69500	-3.80000e+01	
			         1.69667	-3.70000e+01	
			         1.69833	-3.60000e+01	
			         1.70000	-3.50000e+01	
			         1.70167	-3.30000e+01	
			         1.70333	-3.20000e+01	
			         1.70500	-3.00000e+01	
			         1.70667	-2.90000e+01	
			         1.70833	-2.70000e+01	
			         1.71000	-2.50000e+01	
			         1.71167	-2.30000e+01	
			         1.71333	-2.10000e+01	
			         1.71500	-2.00000e+01	
			         1.71667	-1.90000e+01	
			         1.71833	-1.70000e+01	
			         1.72000	-1.60000e+01	
			         1.72167	-1.50000e+01	
			         1.72333	-1.40000e+01	
			         1.72500	-1.30000e+01	
			         1.72667	-1.20000e+01	
			         1.72833	-1.10000e+01	
			         1.73000	-1.10000e+01	
			         1.73167	-1.00000e+01	
			         1.73333	-1.00000e+01	
			         1.73500	-9.00000e+00	
			         1.73667	-9.00000e+00	
			         1.73833	-8.00000e+00	
			         1.74000	-7.00000e+00	
			         1.74167	-6.00000e+00	
			         1.74333	-5.00000e+00	
			         1.74500	-4.00000e+00	
			         1.74667	-3.00000e+00	
			         1.74833	-2.00000e+00	
			         1.75000	-1.00000e+00	
			         1.75167	0.00000e+00	
			         1.75333	1.00000e+00	
			         1.75500	1.00000e+00	
			         1.75667	1.00000e+00	
			         1.75833	1.00000e+00	
			         1.76000	0.00000e+00	
			         1.76167	-1.00000e+00	
			         1.76333	-1.00000e+00	
			         1.76500	-2.00000e+00	
			         1.76667	-3.00000e+00	
			         1.76833	-4.00000e+00	
			         1.77000	-5.00000e+00	
			         1.77167	-5.00000e+00	
			         1.77333	-6.00000e+00	
			         1.77500	-6.00000e+00	
			         1.77667	-6.00000e+00	
			         1.77833	-6.00000e+00	
			         1.78000	-6.00000e+00	
			         1.78167	-7.00000e+00	
			         1.78333	-7.00000e+00	
			         1.78500	-7.00000e+00	
			         1.78667	-7.00000e+00	
			         1.78833	-7.00000e+00	
			         1.79000	-7.00000e+00	
			         1.79167	-8.00000e+00	
			         1.79333	-8.00000e+00	
			         1.79500	-8.00000e+00	
			         1.79667	-8.00000e+00	
			         1.79833	-8.00000e+00	
			         1.80000	-8.00000e+00	
			         1.80167	-8.00000e+00	
			         1.80333	-9.00000e+00	
			         1.80500	-9.00000e+00	
			         1.80667	-9.00000e+00	
			         1.80833	-1.00000e+01	
			         1.81000	-1.00000e+01	
			         1.81167	-1.00000e+01	
			         1.81333	-1.10000e+01	
			         1.81500	-1.10000e+01	
			         1.81667	-1.20000e+01	
			         1.81833	-1.20000e+01	
			         1.82000	-1.20000e+01	
			         1.82167	-1.20000e+01	
			         1.82333	-1.20000e+01	
			         1.82500	-1.20000e+01	
			         1.82667	-1.20000e+01	
			         1.82833	-1.20000e+01	
			         1.83000	-1.10000e+01	
			         1.83167	-1.10000e+01	
			         1.83333	-1.10000e+01	
			         1.83500	-1.10000e+01	
			         1.83667	-1.10000e+01	
			         1.83833	-1.10000e+01	
			         1.84000	-1.10000e+01	
			         1.84167	-1.10000e+01	
			         1.84333	-1.10000e+01	
			         1.84500	-1.10000e+01	
			         1.84667	-1.20000e+01	
			         1.84833	-1.20000e+01	
			         1.85000	-1.30000e+01	
			         1.85167	-1.30000e+01	
			         1.85333	-1.40000e+01	
			         1.85500	-1.40000e+01	
			         1.85667	-1.50000e+01	
			         1.85833	-1.60000e+01	
			         1.86000	-1.60000e+01	
			         1.86167	-1.70000e+01	
			         1.86333	-1.70000e+01	
			         1.86500	-1.70000e+01	
			         1.86667	-1.70000e+01	
			         1.86833	-1.70000e+01	
			         1.87000	-1.70000e+01	
			         1.87167	-1.60000e+01	
			         1.87333	-1.60000e+01	
			         1.87500	-1.60000e+01	
			         1.87667	-1.50000e+01	
			         1.87833	-1.50000e+01	
			         1.88000	-1.40000e+01	
			         1.88167	-1.40000e+01	
			         1.88333	-1.30000e+01	
			         1.88500	-1.30000e+01	
			         1.88667	-1.30000e+01	
			         1.88833	-1.20000e+01	
			         1.89000	-1.20000e+01	
			         1.89167	-1.10000e+01	
			         1.89333	-1.10000e+01	
			         1.89500	-1.10000e+01	
			         1.89667	-1.00000e+01	
			         1.89833	-1.00000e+01	
			         1.90000	-1.00000e+01	
			         1.90167	-1.00000e+01	
			         1.90333	-1.00000e+01	
			         1.90500	-1.00000e+01	
			         1.90667	-1.00000e+01	
			         1.90833	-1.00000e+01	
			         1.91000	-1.00000e+01	
			         1.91167	-1.10000e+01	
			         1.91333	-1.10000e+01	
			         1.91500	-1.20000e+01	
			         1.91667	-1.20000e+01	
			         1.91833	-1.20000e+01	
			         1.92000	-1.30000e+01	
			         1.92167	-1.30000e+01	
			         1.92333	-1.30000e+01	
			         1.92500	-1.30000e+01	
			         1.92667	-1.30000e+01	
			         1.92833	-1.30000e+01	
			         1.93000	-1.30000e+01	
			         1.93167	-1.30000e+01	
			         1.93333	-1.20000e+01	
			         1.93500	-1.20000e+01	
			         1.93667	-1.20000e+01	
			         1.93833	-1.20000e+01	
			         1.94000	-1.20000e+01	
			         1.94167	-1.20000e+01	
			         1.94333	-1.20000e+01	
			         1.94500	-1.20000e+01	
			         1.94667	-1.20000e+01	
			         1.94833	-1.20000e+01	
			         1.95000	-1.20000e+01	
			         1.95167	-1.20000e+01	
			         1.95333	-1.20000e+01	
			         1.95500	-1.10000e+01	
			         1.95667	-1.10000e+01	
			         1.95833	-1.00000e+01	
			         1.96000	-1.00000e+01	
			         1.96167	-9.00000e+00	
			         1.96333	-8.00000e+00	
			         1.96500	-8.00000e+00	
			         1.96667	-8.00000e+00	
			         1.96833	-7.00000e+00	
			         1.97000	-7.00000e+00	
			         1.97167	-7.00000e+00	
			         1.97333	-8.00000e+00	
			         1.97500	-8.00000e+00	
			         1.97667	-9.00000e+00	
			         1.97833	-9.00000e+00	
			         1.98000	-1.00000e+01	
			         1.98167	-1.10000e+01	
			         1.98333	-1.20000e+01	
			         1.98500	-1.20000e+01	
			         1.98667	-1.30000e+01	
			         1.98833	-1.30000e+01	
			         1.99000	-1.30000e+01	
			         1.99167	-1.30000e+01	
			         1.99333	-1.30000e+01	
			         1.99500	-1.20000e+01	
			         1.99667	-1.10000e+01	
			         1.99833	-1.00000e+01	
			         2.00000	-8.00000e+00	
			         2.00167	-7.00000e+00	
			         2.00333	-6.00000e+00	
			         2.00500	-5.00000e+00	
			         2.00667	-5.00000e+00	
			         2.00833	-4.00000e+00	
			         2.01000	-4.00000e+00	
			         2.01167	-4.00000e+00	
			         2.01333	-5.00000e+00	
			         2.01500	-5.00000e+00	
			         2.01667	-5.00000e+00	
			         2.01833	-6.00000e+00	
			         2.02000	-6.00000e+00	
			         2.02167	-7.00000e+00	
			         2.02333	-7.00000e+00	
			         2.02500	-7.00000e+00	
			         2.02667	-7.00000e+00	
			         2.02833	-7.00000e+00	
			         2.03000	-7.00000e+00	
			         2.03167	-7.00000e+00	
			         2.03333	-7.00000e+00	
			         2.03500	-7.00000e+00	
			         2.03667	-7.00000e+00	
			         2.03833	-7.00000e+00	
			         2.04000	-7.00000e+00	
			         2.04167	-7.00000e+00	
			         2.04333	-6.00000e+00	
			         2.04500	-6.00000e+00	
			         2.04667	-6.00000e+00	
			         2.04833	-6.00000e+00	
			         2.05000	-5.00000e+00	
			         2.05167	-5.00000e+00	
			         2.05333	-5.00000e+00	
			         2.05500	-5.00000e+00	
			         2.05667	-5.00000e+00	
			         2.05833	-5.00000e+00	
			         2.06000	-5.00000e+00	
			         2.06167	-5.00000e+00	
			         2.06333	-5.00000e+00	
			         2.06500	-5.00000e+00	
			         2.06667	-5.00000e+00	
			         2.06833	-5.00000e+00	
			         2.07000	-5.00000e+00	
			         2.07167	-5.00000e+00	
			         2.07333	-5.00000e+00	
			         2.07500	-5.00000e+00	
			         2.07667	-5.00000e+00	
			         2.07833	-5.00000e+00	
			         2.08000	-5.00000e+00	
			         2.08167	-5.00000e+00	
			         2.08333	-4.00000e+00	
			         2.08500	-4.00000e+00	
			         2.08667	-4.00000e+00	
			         2.08833	-4.00000e+00	
			         2.09000	-5.00000e+00	
			         2.09167	-5.00000e+00	
			         2.09333	-5.00000e+00	
			         2.09500	-5.00000e+00	
			         2.09667	-5.00000e+00	
			         2.09833	-6.00000e+00	
			         2.10000	-6.00000e+00	
			         2.10167	-6.00000e+00	
			         2.10333	-6.00000e+00	
			         2.10500	-7.00000e+00	
			         2.10667	-7.00000e+00	
			         2.10833	-7.00000e+00	
			         2.11000	-7.00000e+00	
			         2.11167	-6.00000e+00	
			         2.11333	-6.00000e+00	
			         2.11500	-5.00000e+00	
			         2.11667	-5.00000e+00	
			         2.11833	-5.00000e+00	
			         2.12000	-5.00000e+00	
			         2.12167	-5.00000e+00	
			         2.12333	-6.00000e+00	
			         2.12500	-6.00000e+00	
			         2.12667	-7.00000e+00	
			         2.12833	-7.00000e+00	
			         2.13000	-8.00000e+00	
			         2.13167	-8.00000e+00	
			         2.13333	-8.00000e+00	
			         2.13500	-9.00000e+00	
			         2.13667	-8.00000e+00	
			         2.13833	-8.00000e+00	
			         2.14000	-8.00000e+00	
			         2.14167	-7.00000e+00	
			         2.14333	-6.00000e+00	
			         2.14500	-5.00000e+00	
			         2.14667	-5.00000e+00	
			         2.14833	-4.00000e+00	
			         2.15000	-3.00000e+00	
			         2.15167	-3.00000e+00	
			         2.15333	-3.00000e+00	
			         2.15500	-3.00000e+00	
			         2.15667	-3.00000e+00	
			         2.15833	-3.00000e+00	
			         2.16000	-4.00000e+00	
			         2.16167	-4.00000e+00	
			         2.16333	-4.00000e+00	
			         2.16500	-5.00000e+00	
			         2.16667	-5.00000e+00	
			         2.16833	-5.00000e+00	
			         2.17000	-4.00000e+00	
			         2.17167	-4.00000e+00	
			         2.17333	-3.00000e+00	
			         2.17500	-3.00000e+00	
			         2.17667	-2.00000e+00	
			         2.17833	-2.00000e+00	
			         2.18000	-1.00000e+00	
			         2.18167	0.00000e+00	
			         2.18333	1.00000e+00	
			         2.18500	2.00000e+00	
			         2.18667	3.00000e+00	
			         2.18833	4.00000e+00	
			         2.19000	5.00000e+00	
			         2.19167	6.00000e+00	
			         2.19333	6.00000e+00	
			         2.19500	6.00000e+00	
			         2.19667	6.00000e+00	
			         2.19833	6.00000e+00	
			         2.20000	5.00000e+00	
			         2.20167	4.00000e+00	
			         2.20333	3.00000e+00	
			         2.20500	2.00000e+00	
			         2.20667	0.00000e+00	
			         2.20833	-1.00000e+00	
			         2.21000	-3.00000e+00	
			         2.21167	-4.00000e+00	
			         2.21333	-5.00000e+00	
			         2.21500	-6.00000e+00	
			         2.21667	-7.00000e+00	
			         2.21833	-7.00000e+00	
			         2.22000	-7.00000e+00	
			         2.22167	-6.00000e+00	
			         2.22333	-6.00000e+00	
			         2.22500	-5.00000e+00	
			         2.22667	-4.00000e+00	
			         2.22833	-4.00000e+00	
			         2.23000	-3.00000e+00	
			         2.23167	-2.00000e+00	
			         2.23333	-1.00000e+00	
			         2.23500	-1.00000e+00	
			         2.23667	0.00000e+00	
			         2.23833	2.00000e+00	
			         2.24000	3.00000e+00	
			         2.24167	5.00000e+00	
			         2.24333	7.00000e+00	
			         2.24500	9.00000e+00	
			         2.24667	1.20000e+01	
			         2.24833	1.50000e+01	
			         2.25000	1.70000e+01	
			         2.25167	2.00000e+01	
			         2.25333	2.30000e+01	
			         2.25500	2.50000e+01	
			         2.25667	2.70000e+01	
			         2.25833	2.90000e+01	
			         2.26000	3.00000e+01	
			         2.26167	3.10000e+01	
			         2.26333	3.10000e+01	
			         2.26500	3.10000e+01	
			         2.26667	3.00000e+01	
			         2.26833	2.90000e+01	
			         2.27000	2.90000e+01	
			         2.27167	2.80000e+01	
			         2.27333	2.70000e+01	
			         2.27500	2.60000e+01	
			         2.27667	2.50000e+01	
			         2.27833	2.50000e+01	
			         2.28000	2.40000e+01	
			         2.28167	2.30000e+01	
			         2.28333	2.20000e+01	
			         2.28500	2.10000e+01	
			         2.28667	1.90000e+01	
			         2.28833	1.70000e+01	
			         2.29000	1.40000e+01	
			         2.29167	1.10000e+01	
			         2.29333	7.00000e+00	
			         2.29500	4.00000e+00	
			         2.29667	0.00000e+00	
			         2.29833	-4.00000e+00	
			         2.30000	-8.00000e+00	
			         2.30167	-1.10000e+01	
			         2.30333	-1.40000e+01	
			         2.30500	-1.70000e+01	
			         2.30667	-1.90000e+01	
			         2.30833	-2.00000e+01	
			         2.31000	-2.10000e+01	
			         2.31167	-2.20000e+01	
			         2.31333	-2.20000e+01	
			         2.31500	-2.20000e+01	
			         2.31667	-2.10000e+01	
			         2.31833	-2.00000e+01	
			         2.32000	-1.90000e+01	
			         2.32167	-1.80000e+01	
			         2.32333	-1.70000e+01	
			         2.32500	-1.60000e+01	
			         2.32667	-1.50000e+01	
			         2.32833	-1.40000e+01	
			         2.33000	-1.40000e+01	
			         2.33167	-1.40000e+01	
			         2.33333	-1.50000e+01	
			         2.33500	-1.50000e+01	
			         2.33667	-1.70000e+01	
			         2.33833	-1.80000e+01	
			         2.34000	-2.00000e+01	
			         2.34167	-2.30000e+01	
			         2.34333	-2.50000e+01	
			         2.34500	-2.70000e+01	
			         2.34667	-2.90000e+01	
			         2.34833	-3.00000e+01	
			         2.35000	-3.20000e+01	
			         2.35167	-3.20000e+01	
			         2.35333	-3.20000e+01	
			         2.35500	-3.20000e+01	
			         2.35667	-3.20000e+01	
			         2.35833	-3.10000e+01	
			         2.36000	-3.00000e+01	
			         2.36167	-2.90000e+01	
			         2.36333	-2.80000e+01	
			         2.36500	-2.60000e+01	
			         2.36667	-2.50000e+01	
			         2.36833	-2.40000e+01	
			         2.37000	-2.30000e+01	
			         2.37167	-2.20000e+01	
			         2.37333	-2.10000e+01	
			         2.37500	-2.00000e+01	
			         2.37667	-1.90000e+01	
			         2.37833	-1.80000e+01	
			         2.38000	-1.60000e+01	
			         2.38167	-1.30000e+01	
			         2.38333	-1.00000e+01	
			         2.38500	-5.00000e+00	
			         2.38667	1.00000e+00	
			         2.38833	9.00000e+00	
			         2.39000	1.90000e+01	
			         2.39167	3.10000e+01	
			         2.39333	4.50000e+01	
			         2.39500	6.10000e+01	
			         2.39667	7.90000e+01	
			         2.39833	9.90000e+01	
			         2.40000	1.21000e+02	
			         2.40167	1.45000e+02	
			         2.40333	1.70000e+02	
			         2.40500	1.96000e+02	
			         2.40667	2.22000e+02	
			         2.40833	2.47000e+02	
			         2.41000	2.70000e+02	
			         2.41167	2.90000e+02	
			         2.41333	3.06000e+02	
			         2.41500	3.15000e+02	
			         2.41667	3.18000e+02	
			         2.41833	3.13000e+02	
			         2.42000	2.99000e+02	
			         2.42167	2.77000e+02	
			         2.42333	2.46000e+02	
			         2.42500	2.07000e+02	
			         2.42667	1.61000e+02	
			         2.42833	1.09000e+02	
			         2.43000	5.20000e+01	
			         2.43167	-7.00000e+00	
			         2.43333	-6.80000e+01	
			         2.43500	-1.26000e+02	
			         2.43667	-1.82000e+02	
			         2.43833	-2.34000e+02	
			         2.44000	-2.80000e+02	
			         2.44167	-3.20000e+02	
			         2.44333	-3.53000e+02	
			         2.44500	-3.80000e+02	
			         2.44667	-3.99000e+02	
			         2.44833	-4.12000e+02	
			         2.45000	-4.20000e+02	
			         2.45167	-4.21000e+02	
			         2.45333	-4.18000e+02	
			         2.45500	-4.11000e+02	
			         2.45667	-4.00000e+02	
			         2.45833	-3.87000e+02	
			         2.46000	-3.71000e+02	
			         2.46167	-3.52000e+02	
			         2.46333	-3.33000e+02	
			         2.46500	-3.11000e+02	
			         2.46667	-2.89000e+02	
			         2.46833	-2.66000e+02	
			         2.47000	-2.43000e+02	
			         2.47167	-2.19000e+02	
			         2.47333	-1.94000e+02	
			         2.47500	-1.70000e+02	
			         2.47667	-1.46000e+02	
			         2.47833	-1.23000e+02	
			         2.48000	-1.00000e+02	
			         2.48167	-7.80000e+01	
			         2.48333	-5.80000e+01	
			         2.48500	-3.80000e+01	
			         2.48667	-2.00000e+01	
			         2.48833	-4.00000e+00	
			         2.49000	1.10000e+01	
			         2.49167	2.50000e+01	
			         2.49333	3.70000e+01	
			         2.49500	4.70000e+01	
			         2.49667	5.50000e+01	
			         2.49833	6.20000e+01	
			         2.50000	6.80000e+01	
			         2.50167	7.20000e+01	
			         2.50333	7.50000e+01	
			         2.50500	7.70000e+01	
			         2.50667	7.80000e+01	
			         2.50833	7.80000e+01	
			         2.51000	7.80000e+01	
			         2.51167	7.80000e+01	
			         2.51333	7.70000e+01	
			         2.51500	7.60000e+01	
			         2.51667	7.50000e+01	
			         2.51833	7.40000e+01	
			         2.52000	7.30000e+01	
			         2.52167	7.20000e+01	
			         2.52333	7.20000e+01	
			         2.52500	7.20000e+01	
			         2.52667	7.10000e+01	
			         2.52833	7.10000e+01	
			         2.53000	7.10000e+01	
			         2.53167	7.00000e+01	
			         2.53333	6.90000e+01	
			         2.53500	6.80000e+01	
			         2.53667	6.70000e+01	
			         2.53833	6.60000e+01	
			         2.54000	6.50000e+01	
			         2.54167	6.30000e+01	
			         2.54333	6.20000e+01	
			         2.54500	6.00000e+01	
			         2.54667	5.80000e+01	
			         2.54833	5.70000e+01	
			         2.55000	5.60000e+01	
			         2.55167	5.50000e+01	
			         2.55333	5.40000e+01	
			         2.55500	5.40000e+01	
			         2.55667	5.40000e+01	
			         2.55833	5.40000e+01	
			         2.56000	5.40000e+01	
			         2.56167	5.50000e+01	
			         2.56333	5.60000e+01	
			         2.56500	5.60000e+01	
			         2.56667	5.70000e+01	
			         2.56833	5.80000e+01	
			         2.57000	5.80000e+01	
			         2.57167	5.80000e+01	
			         2.57333	5.80000e+01	
			         2.57500	5.80000e+01	
			         2.57667	5.80000e+01	
			         2.57833	5.70000e+01	
			         2.58000	5.60000e+01	
			         2.58167	5.60000e+01	
			         2.58333	5.50000e+01	
			         2.58500	5.40000e+01	
			         2.58667	5.30000e+01	
			         2.58833	5.20000e+01	
			         2.59000	5.10000e+01	
			         2.59167	5.00000e+01	
			         2.59333	5.00000e+01	
			         2.59500	4.90000e+01	
			         2.59667	4.80000e+01	
			         2.59833	4.80000e+01	
			         2.60000	4.70000e+01	
			         2.60167	4.70000e+01	
			         2.60333	4.70000e+01	
			         2.60500	4.70000e+01	
			         2.60667	4.80000e+01	
			         2.60833	4.90000e+01	
			         2.61000	4.90000e+01	
			         2.61167	5.00000e+01	
			         2.61333	5.10000e+01	
			         2.61500	5.20000e+01	
			         2.61667	5.20000e+01	
			         2.61833	5.30000e+01	
			         2.62000	5.30000e+01	
			         2.62167	5.30000e+01	
			         2.62333	5.30000e+01	
			         2.62500	5.30000e+01	
			         2.62667	5.30000e+01	
			         2.62833	5.20000e+01	
			         2.63000	5.20000e+01	
			         2.63167	5.20000e+01	
			         2.63333	5.20000e+01	
			         2.63500	5.30000e+01	
			         2.63667	5.30000e+01	
			         2.63833	5.40000e+01	
			         2.64000	5.40000e+01	
			         2.64167	5.50000e+01	
			         2.64333	5.50000e+01	
			         2.64500	5.60000e+01	
			         2.64667	5.70000e+01	
			         2.64833	5.70000e+01	
			         2.65000	5.80000e+01	
			         2.65167	5.90000e+01	
			         2.65333	6.00000e+01	
			         2.65500	6.10000e+01	
			         2.65667	6.20000e+01	
			         2.65833	6.30000e+01	
			         2.66000	6.40000e+01	
			         2.66167	6.50000e+01	
			         2.66333	6.70000e+01	
			         2.66500	6.80000e+01	
			         2.66667	6.90000e+01	
			         2.66833	7.10000e+01	
			         2.67000	7.30000e+01	
			         2.67167	7.50000e+01	
			         2.67333	7.70000e+01	
			         2.67500	7.90000e+01	
			         2.67667	8.10000e+01	
			         2.67833	8.40000e+01	
			         2.68000	8.70000e+01	
			         2.68167	9.00000e+01	
			         2.68333	9.20000e+01	
			         2.68500	9.50000e+01	
			         2.68667	9.70000e+01	
			         2.68833	9.90000e+01	
			         2.69000	1.01000e+02	
			         2.69167	1.02000e+02	
			         2.69333	1.03000e+02	
			         2.69500	1.03000e+02	
			         2.69667	1.03000e+02	
			         2.69833	1.03000e+02	
			         2.70000	1.02000e+02	
			         2.70167	1.01000e+02	
			         2.70333	1.00000e+02	
			         2.70500	9.80000e+01	
			         2.70667	9.70000e+01	
			         2.70833	9.60000e+01	
			         2.71000	9.50000e+01	
			         2.71167	9.30000e+01	
			         2.71333	9.20000e+01	
			         2.71500	9.00000e+01	
			         2.71667	8.70000e+01	
			         2.71833	8.50000e+01	
			         2.72000	8.20000e+01	
			         2.72167	7.90000e+01	
			         2.72333	7.60000e+01	
			         2.72500	7.20000e+01	
			         2.72667	6.90000e+01	
			         2.72833	6.60000e+01	
			         2.73000	6.20000e+01	
			         2.73167	5.80000e+01	
			         2.73333	5.40000e+01	
			         2.73500	5.10000e+01	
			         2.73667	4.70000e+01	
			         2.73833	4.30000e+01	
			         2.74000	3.90000e+01	
			         2.74167	3.50000e+01	
			         2.74333	3.10000e+01	
			         2.74500	2.70000e+01	
			         2.74667	2.30000e+01	
			         2.74833	1.90000e+01	
			         2.75000	1.50000e+01	
			         2.75167	1.10000e+01	
			         2.75333	8.00000e+00	
			         2.75500	4.00000e+00	
			         2.75667	1.00000e+00	
			         2.75833	-2.00000e+00	
			         2.76000	-5.00000e+00	
			         2.76167	-7.00000e+00	
			         2.76333	-1.00000e+01	
			         2.76500	-1.30000e+01	
			         2.76667	-1.60000e+01	
			         2.76833	-1.90000e+01	
			         2.77000	-2.20000e+01	
			         2.77167	-2.40000e+01	
			         2.77333	-2.70000e+01	
			         2.77500	-3.10000e+01	
			         2.77667	-3.40000e+01	
			         2.77833	-3.70000e+01	
			         2.78000	-4.00000e+01	
			         2.78167	-4.30000e+01	
			         2.78333	-4.60000e+01	
			         2.78500	-4.90000e+01	
			         2.78667	-5.20000e+01	
			         2.78833	-5.40000e+01	
			         2.79000	-5.70000e+01	
			         2.79167	-5.90000e+01	
			         2.79333	-6.20000e+01	
			         2.79500	-6.40000e+01	
			         2.79667	-6.60000e+01	
			         2.79833	-6.70000e+01	
			         2.80000	-6.90000e+01	
			         2.80167	-7.00000e+01	
			         2.80333	-7.10000e+01	
			         2.80500	-7.10000e+01	
			         2.80667	-7.20000e+01	
			         2.80833	-7.20000e+01	
			         2.81000	-7.20000e+01	
			         2.81167	-7.20000e+01	
			         2.81333	-7.20000e+01	
			         2.81500	-7.20000e+01	
			         2.81667	-7.20000e+01	
			         2.81833	-7.20000e+01	
			         2.82000	-7.20000e+01	
			         2.82167	-7.30000e+01	
			         2.82333	-7.30000e+01	
			         2.82500	-7.30000e+01	
			         2.82667	-7.40000e+01	
			         2.82833	-7.40000e+01	
			         2.83000	-7.40000e+01	
			         2.83167	-7.40000e+01	
			         2.83333	-7.30000e+01	
			         2.83500	-7.30000e+01	
			         2.83667	-7.30000e+01	
			         2.83833	-7.20000e+01	
			         2.84000	-7.10000e+01	
			         2.84167	-7.10000e+01	
			         2.84333	-7.00000e+01	
			         2.84500	-6.80000e+01	
			         2.84667	-6.70000e+01	
			         2.84833	-6.60000e+01	
			         2.85000	-6.50000e+01	
			         2.85167	-6.30000e+01	
			         2.85333	-6.20000e+01	
			         2.85500	-6.00000e+01	
			         2.85667	-5.80000e+01	
			         2.85833	-5.60000e+01	
			         2.86000	-5.50000e+01	
			         2.86167	-5.30000e+01	
			         2.86333	-5.00000e+01	
			         2.86500	-4.80000e+01	
			         2.86667	-4.60000e+01	
			         2.86833	-4.40000e+01	
			         2.87000	-4.20000e+01	
			         2.87167	-4.00000e+01	
			         2.87333	-3.80000e+01	
			         2.87500	-3.60000e+01	
			         2.87667	-3.40000e+01	
			         2.87833	-3.30000e+01	
			         2.88000	-3.20000e+01	
			         2.88167	-3.00000e+01	
			         2.88333	-2.90000e+01	
			         2.88500	-2.70000e+01	
			         2.88667	-2.60000e+01	
			         2.88833	-2.40000e+01	
			         2.89000	-2.30000e+01	
			         2.89167	-2.10000e+01	
			         2.89333	-1.90000e+01	
			         2.89500	-1.80000e+01	
			         2.89667	-1.60000e+01	
			         2.89833	-1.50000e+01	
			         2.90000	-1.40000e+01	
			         2.90167	-1.30000e+01	
			         2.90333	-1.20000e+01	
			         2.90500	-1.10000e+01	
			         2.90667	-1.00000e+01	
			         2.90833	-9.00000e+00	
			         2.91000	-9.00000e+00	
			         2.91167	-8.00000e+00	
			         2.91333	-8.00000e+00	
			         2.91500	-7.00000e+00	
			         2.91667	-7.00000e+00	
			         2.91833	-6.00000e+00	
			         2.92000	-6.00000e+00	
			         2.92167	-5.00000e+00	
			         2.92333	-4.00000e+00	
			         2.92500	-4.00000e+00	
			         2.92667	-3.00000e+00	
			         2.92833	-3.00000e+00	
			         2.93000	-3.00000e+00	
			         2.93167	-2.00000e+00	
			         2.93333	-2.00000e+00	
			         2.93500	-2.00000e+00	
			         2.93667	-2.00000e+00	
			         2.93833	-1.00000e+00	
			         2.94000	-1.00000e+00	
			         2.94167	-1.00000e+00	
			         2.94333	-1.00000e+00	
			         2.94500	-1.00000e+00	
			         2.94667	-1.00000e+00	
			         2.94833	-1.00000e+00	
			         2.95000	-1.00000e+00	
			         2.95167	-2.00000e+00	
			         2.95333	-2.00000e+00	
			         2.95500	-2.00000e+00	
			         2.95667	-2.00000e+00	
			         2.95833	-2.00000e+00	
			         2.96000	-2.00000e+00	
			         2.96167	-2.00000e+00	
			         2.96333	-2.00000e+00	
			         2.96500	-3.00000e+00	
			         2.96667	-3.00000e+00	
			         2.96833	-3.00000e+00	
			         2.97000	-3.00000e+00	
			         2.97167	-3.00000e+00	
			         2.97333	-4.00000e+00	
			         2.97500	-4.00000e+00	
			         2.97667	-4.00000e+00	
			         2.97833	-5.00000e+00	
			         2.98000	-6.00000e+00	
			         2.98167	-6.00000e+00	
			         2.98333	-7.00000e+00	
			         2.98500	-7.00000e+00	
			         2.98667	-8.00000e+00	
			         2.98833	-8.00000e+00	
			         2.99000	-8.00000e+00	
			         2.99167	-9.00000e+00	
			         2.99333	-9.00000e+00	
			         2.99500	-9.00000e+00	
			         2.99667	-1.00000e+01	
			         2.99833	-1.00000e+01	
			         3.00000	-1.00000e+01	
			         3.00167	-1.00000e+01	
			         3.00333	-1.00000e+01	
			         3.00500	-1.00000e+01	
			         3.00667	-1.10000e+01	
			         3.00833	-1.10000e+01	
			         3.01000	-1.20000e+01	
			         3.01167	-1.20000e+01	
			         3.01333	-1.20000e+01	
			         3.01500	-1.20000e+01	
			         3.01667	-1.20000e+01	
			         3.01833	-1.20000e+01	
			         3.02000	-1.20000e+01	
			         3.02167	-1.20000e+01	
			         3.02333	-1.20000e+01	
			         3.02500	-1.10000e+01	
			         3.02667	-1.10000e+01	
			         3.02833	-1.10000e+01	
			         3.03000	-1.20000e+01	
			         3.03167	-1.20000e+01	
			         3.03333	-1.20000e+01	
			         3.03500	-1.30000e+01	
			         3.03667	-1.40000e+01	
			         3.03833	-1.50000e+01	
			         3.04000	-1.60000e+01	
			         3.04167	-1.70000e+01	
			         3.04333	-1.80000e+01	
			         3.04500	-1.90000e+01	
			         3.04667	-2.00000e+01	
			         3.04833	-2.00000e+01	
			         3.05000	-2.00000e+01	
			         3.05167	-2.00000e+01	
			         3.05333	-2.00000e+01	
			         3.05500	-1.90000e+01	
			         3.05667	-1.80000e+01	
			         3.05833	-1.70000e+01	
			         3.06000	-1.60000e+01	
			         3.06167	-1.50000e+01	
			         3.06333	-1.40000e+01	
			         3.06500	-1.40000e+01	
			         3.06667	-1.30000e+01	
			         3.06833	-1.30000e+01	
			         3.07000	-1.30000e+01	
			         3.07167	-1.30000e+01	
			         3.07333	-1.30000e+01	
			         3.07500	-1.40000e+01	
			         3.07667	-1.40000e+01	
			         3.07833	-1.40000e+01	
			         3.08000	-1.50000e+01	
			         3.08167	-1.50000e+01	
			         3.08333	-1.60000e+01	
			         3.08500	-1.60000e+01	
			         3.08667	-1.60000e+01	
			         3.08833	-1.60000e+01	
			         3.09000	-1.60000e+01	
			         3.09167	-1.50000e+01	
			         3.09333	-1.50000e+01	
			         3.09500	-1.40000e+01	
			         3.09667	-1.40000e+01	
			         3.09833	-1.30000e+01	
			         3.10000	-1.20000e+01	
			         3.10167	-1.10000e+01	
			         3.10333	-1.00000e+01	
			         3.10500	-9.00000e+00	
			         3.10667	-8.00000e+00	
			         3.10833	-7.00000e+00	
			         3.11000	-7.00000e+00	
			         3.11167	-6.00000e+00	
			         3.11333	-6.00000e+00	
			         3.11500	-7.00000e+00	
			         3.11667	-7.00000e+00	
			         3.11833	-8.00000e+00	
			         3.12000	-9.00000e+00	
			         3.12167	-1.00000e+01	
			         3.12333	-1.10000e+01	
			         3.12500	-1.10000e+01	
			         3.12667	-1.20000e+01	
			         3.12833	-1.20000e+01	
			         3.13000	-1.20000e+01	
			         3.13167	-1.20000e+01	
			         3.13333	-1.20000e+01	
			         3.13500	-1.10000e+01	
			         3.13667	-1.10000e+01	
			         3.13833	-1.00000e+01	
			         3.14000	-9.00000e+00	
			         3.14167	-8.00000e+00	
			         3.14333	-8.00000e+00	
			         3.14500	-7.00000e+00	
			         3.14667	-7.00000e+00	
			         3.14833	-6.00000e+00	
			         3.15000	-7.00000e+00	
			         3.15167	-7.00000e+00	
			         3.15333	-7.00000e+00	
			         3.15500	-8.00000e+00	
			         3.15667	-9.00000e+00	
			         3.15833	-1.00000e+01	
			         3.16000	-1.10000e+01	
			         3.16167	-1.20000e+01	
			         3.16333	-1.30000e+01	
			         3.16500	-1.30000e+01	
			         3.16667	-1.30000e+01	
			         3.16833	-1.40000e+01	
			         3.17000	-1.40000e+01	
			         3.17167	-1.40000e+01	
			         3.17333	-1.40000e+01	
			         3.17500	-1.30000e+01	
			         3.17667	-1.30000e+01	
			         3.17833	-1.30000e+01	
			         3.18000	-1.30000e+01	
			         3.18167	-1.20000e+01	
			         3.18333	-1.20000e+01	
			         3.18500	-1.10000e+01	
			         3.18667	-1.10000e+01	
			         3.18833	-1.10000e+01	
			         3.19000	-1.10000e+01	
			         3.19167	-1.00000e+01	
			         3.19333	-1.00000e+01	
			         3.19500	-1.00000e+01	
			         3.19667	-1.00000e+01	
			         3.19833	-9.00000e+00	
			         3.20000	-9.00000e+00	
			         3.20167	-9.00000e+00	
			         3.20333	-9.00000e+00	
			         3.20500	-9.00000e+00	
			         3.20667	-9.00000e+00	
			         3.20833	-9.00000e+00	
			         3.21000	-9.00000e+00	
			         3.21167	-9.00000e+00	
			         3.21333	-9.00000e+00	
			         3.21500	-8.00000e+00	
			         3.21667	-8.00000e+00	
			         3.21833	-8.00000e+00	
			         3.22000	-7.00000e+00	
			         3.22167	-7.00000e+00	
			         3.22333	-7.00000e+00	
			         3.22500	-6.00000e+00	
			         3.22667	-6.00000e+00	
			         3.22833	-6.00000e+00	
			         3.23000	-6.00000e+00	
			         3.23167	-5.00000e+00	
			         3.23333	-5.00000e+00	
			         3.23500	-5.00000e+00	
			         3.23667	-5.00000e+00	
			         3.23833	-5.00000e+00	
			         3.24000	-6.00000e+00	
			         3.24167	-6.00000e+00	
			         3.24333	-6.00000e+00	
			         3.24500	-6.00000e+00	
			         3.24667	-6.00000e+00	
			         3.24833	-6.00000e+00	
			         3.25000	-7.00000e+00	
			         3.25167	-7.00000e+00	
			         3.25333	-7.00000e+00	
			         3.25500	-7.00000e+00	
			         3.25667	-7.00000e+00	
			         3.25833	-8.00000e+00	
			         3.26000	-8.00000e+00	
			         3.26167	-8.00000e+00	
			         3.26333	-7.00000e+00	
			         3.26500	-7.00000e+00	
			         3.26667	-6.00000e+00	
			         3.26833	-5.00000e+00	
			         3.27000	-4.00000e+00	
			         3.27167	-3.00000e+00	
			         3.27333	-2.00000e+00	
			         3.27500	-2.00000e+00	
			         3.27667	-1.00000e+00	
			         3.27833	-1.00000e+00	
			         3.28000	0.00000e+00	
			         3.28167	0.00000e+00	
			         3.28333	0.00000e+00	
			         3.28500	-1.00000e+00	
			         3.28667	-1.00000e+00	
			         3.28833	-1.00000e+00	
			         3.29000	-2.00000e+00	
			         3.29167	-2.00000e+00	
			         3.29333	-2.00000e+00	
			         3.29500	-2.00000e+00	
			         3.29667	-2.00000e+00	
			         3.29833	-2.00000e+00	
			         3.30000	-2.00000e+00	
			         3.30167	-2.00000e+00	
			         3.30333	-2.00000e+00	
			         3.30500	-2.00000e+00	
			         3.30667	-2.00000e+00	
			         3.30833	-2.00000e+00	
			         3.31000	-2.00000e+00	
			         3.31167	-2.00000e+00	
			         3.31333	-3.00000e+00	
			         3.31500	-3.00000e+00	
			         3.31667	-3.00000e+00	
			         3.31833	-3.00000e+00	
			         3.32000	-3.00000e+00	
			         3.32167	-3.00000e+00	
			         3.32333	-2.00000e+00	
			         3.32500	-2.00000e+00	
			         3.32667	-1.00000e+00	
			         3.32833	0.00000e+00	
			         3.33000	1.00000e+00	
			         3.33167	2.00000e+00	
			         3.33333	3.00000e+00	
			         3.33500	3.00000e+00	
			         3.33667	3.00000e+00	
			         3.33833	4.00000e+00	
			         3.34000	4.00000e+00	
			         3.34167	3.00000e+00	
			         3.34333	3.00000e+00	
			         3.34500	3.00000e+00	
			         3.34667	3.00000e+00	
			         3.34833	3.00000e+00	
			         3.35000	3.00000e+00	
			         3.35167	3.00000e+00	
			         3.35333	3.00000e+00	
			         3.35500	3.00000e+00	
			         3.35667	3.00000e+00	
			         3.35833	3.00000e+00	
			         3.36000	4.00000e+00	
			         3.36167	4.00000e+00	
			         3.36333	4.00000e+00	
			         3.36500	4.00000e+00	
			         3.36667	4.00000e+00	
			         3.36833	4.00000e+00	
			         3.37000	4.00000e+00	
			         3.37167	3.00000e+00	
			         3.37333	3.00000e+00	
			         3.37500	3.00000e+00	
			         3.37667	3.00000e+00	
			         3.37833	3.00000e+00	
			         3.38000	3.00000e+00	
			         3.38167	3.00000e+00	
			         3.38333	3.00000e+00	
			         3.38500	3.00000e+00	
			         3.38667	3.00000e+00	
			         3.38833	2.00000e+00	
			         3.39000	2.00000e+00	
			         3.39167	2.00000e+00	
			         3.39333	2.00000e+00	
			         3.39500	2.00000e+00	
			         3.39667	2.00000e+00	
			         3.39833	2.00000e+00	
			         3.40000	2.00000e+00	
			         3.40167	3.00000e+00	
			         3.40333	4.00000e+00	
			         3.40500	5.00000e+00	
			         3.40667	7.00000e+00	
			         3.40833	9.00000e+00	
			         3.41000	1.10000e+01	
			         3.41167	1.30000e+01	
			         3.41333	1.50000e+01	
			         3.41500	1.70000e+01	
			         3.41667	1.90000e+01	
			         3.41833	2.10000e+01	
			         3.42000	2.40000e+01	
			         3.42167	2.60000e+01	
			         3.42333	2.80000e+01	
			         3.42500	3.00000e+01	
			         3.42667	3.10000e+01	
			         3.42833	3.20000e+01	
			         3.43000	3.30000e+01	
			         3.43167	3.40000e+01	
			         3.43333	3.40000e+01	
			         3.43500	3.40000e+01	
			         3.43667	3.40000e+01	
			         3.43833	3.40000e+01	
			         3.44000	3.30000e+01	
			         3.44167	3.20000e+01	
			         3.44333	3.20000e+01	
			         3.44500	3.10000e+01	
			         3.44667	3.00000e+01	
			         3.44833	2.90000e+01	
			         3.45000	2.80000e+01	
			         3.45167	2.70000e+01	
			         3.45333	2.60000e+01	
			         3.45500	2.40000e+01	
			         3.45667	2.10000e+01	
			         3.45833	1.80000e+01	
			         3.46000	1.50000e+01	
			         3.46167	1.10000e+01	
			         3.46333	8.00000e+00	
			         3.46500	3.00000e+00	
			         3.46667	-1.00000e+00	
			         3.46833	-5.00000e+00	
			         3.47000	-9.00000e+00	
			         3.47167	-1.20000e+01	
			         3.47333	-1.50000e+01	
			         3.47500	-1.70000e+01	
			         3.47667	-1.90000e+01	
			         3.47833	-2.00000e+01	
			         3.48000	-2.10000e+01	
			         3.48167	-2.10000e+01	
			         3.48333	-2.10000e+01	
			         3.48500	-2.00000e+01	
			         3.48667	-1.90000e+01	
			         3.48833	-1.80000e+01	
			         3.49000	-1.60000e+01	
			         3.49167	-1.50000e+01	
			         3.49333	-1.50000e+01	
			         3.49500	-1.40000e+01	
			         3.49667	-1.40000e+01	
			         3.49833	-1.50000e+01	
			         3.50000	-1.50000e+01	
			         3.50167	-1.60000e+01	
			         3.50333	-1.70000e+01	
			         3.50500	-1.90000e+01	
			         3.50667	-2.10000e+01	
			         3.50833	-2.30000e+01	
			         3.51000	-2.50000e+01	
			         3.51167	-2.60000e+01	
			         3.51333	-2.70000e+01	
			         3.51500	-2.80000e+01	
			         3.51667	-2.90000e+01	
			         3.51833	-2.90000e+01	
			         3.52000	-3.00000e+01	
			         3.52167	-3.00000e+01	
			         3.52333	-3.00000e+01	
			         3.52500	-2.90000e+01	
			         3.52667	-2.90000e+01	
			         3.52833	-2.80000e+01	
			         3.53000	-2.70000e+01	
			         3.53167	-2.70000e+01	
			         3.53333	-2.60000e+01	
			         3.53500	-2.50000e+01	
			         3.53667	-2.40000e+01	
			         3.53833	-2.40000e+01	
			         3.54000	-2.30000e+01	
			         3.54167	-2.20000e+01	
			         3.54333	-2.10000e+01	
			         3.54500	-1.90000e+01	
			         3.54667	-1.60000e+01	
			         3.54833	-1.30000e+01	
			         3.55000	-9.00000e+00	
			         3.55167	-4.00000e+00	
			         3.55333	2.00000e+00	
			         3.55500	1.00000e+01	
			         3.55667	1.90000e+01	
			         3.55833	3.00000e+01	
			         3.56000	4.30000e+01	
			         3.56167	5.80000e+01	
			         3.56333	7.50000e+01	
			         3.56500	9.50000e+01	
			         3.56667	1.16000e+02	
			         3.56833	1.39000e+02	
			         3.57000	1.64000e+02	
			         3.57167	1.90000e+02	
			         3.57333	2.16000e+02	
			         3.57500	2.42000e+02	
			         3.57667	2.66000e+02	
			         3.57833	2.87000e+02	
			         3.58000	3.03000e+02	
			         3.58167	3.14000e+02	
			         3.58333	3.18000e+02	
			         3.58500	3.13000e+02	
			         3.58667	3.00000e+02	
			         3.58833	2.78000e+02	
			         3.59000	2.47000e+02	
			         3.59167	2.08000e+02	
			         3.59333	1.62000e+02	
			         3.59500	1.09000e+02	
			         3.59667	5.20000e+01	
			         3.59833	-7.00000e+00	
			         3.60000	-6.80000e+01	
			         3.60167	-1.26000e+02	
			         3.60333	-1.82000e+02	
			         3.60500	-2.34000e+02	
			         3.60667	-2.80000e+02	
			         3.60833	-3.19000e+02	
			         3.61000	-3.52000e+02	
			         3.61167	-3.79000e+02	
			         3.61333	-3.98000e+02	
			         3.61500	-4.12000e+02	
			         3.61667	-4.19000e+02	
			         3.61833	-4.21000e+02	
			         3.62000	-4.19000e+02	
			         3.62167	-4.12000e+02	
			         3.62333	-4.02000e+02	
			         3.62500	-3.89000e+02	
			         3.62667	-3.73000e+02	
			         3.62833	-3.55000e+02	
			         3.63000	-3.35000e+02	
			         3.63167	-3.14000e+02	
			         3.63333	-2.91000e+02	
			         3.63500	-2.68000e+02	
